# graphene_CS-68900-AC
# h[nm],U(h)[kJ/mol]
0.200000000000000011,54.664100124752039278
0.201000000000000012,54.108794091994674602
0.202000000000000013,52.784364545146580383
0.203000000000000014,51.137319431249508739
0.204000000000000015,49.413737762657866881
0.205000000000000016,47.734554452337000896
0.206000000000000016,46.146220039776281396
0.207000000000000017,44.653964581856612881
0.208000000000000018,43.242944678348322896
0.209000000000000019,41.891094889113730915
0.210000000000000020,40.576421465552741097
0.211000000000000021,39.280676423293300559
0.212000000000000022,37.990763754962891596
0.213000000000000023,36.698803646718040739
0.214000000000000024,35.401474222114281076
0.215000000000000024,34.099032671969183639
0.216000000000000025,32.794265243021683887
0.217000000000000026,31.491510828905767028
0.218000000000000027,30.195832628768677353
0.219000000000000028,28.912366674278096923
0.220000000000000029,27.645847695637478125
0.221000000000000030,26.400296457614217616
0.222000000000000031,25.178844460353591472
0.223000000000000032,23.983668970532505682
0.224000000000000032,22.816011741409951696
0.225000000000000033,21.676257110272210582
0.226000000000000034,20.564048482456943390
0.227000000000000035,19.478425894755993397
0.228000000000000036,18.417970997739711692
0.229000000000000037,17.380949167480942208
0.230000000000000038,16.365441424645716495
0.231000000000000039,15.369461350395463128
0.232000000000000040,14.391054240320261925
0.233000000000000040,13.428377356174982182
0.234000000000000041,12.479761364056985329
0.235000000000000042,11.543753938429336614
0.236000000000000043,10.619147117681658088
0.237000000000000044,9.704990370564356539
0.238000000000000045,8.800591521566483166
0.239000000000000046,7.905507729571279008
0.240000000000000047,7.019528654552030567
0.241000000000000048,6.142653812532155477
0.242000000000000048,5.275065934904406006
0.243000000000000049,4.417101934881030090
0.244000000000000050,3.569222857314949149
0.245000000000000051,2.731983960548103330
0.246000000000000052,1.906005859261819424
0.247000000000000053,1.091947451783398693
0.248000000000000054,0.290481168046081817
0.249000000000000055,-0.497729092231361581
0.250000000000000056,-1.272047106564963004
0.251000000000000056,-2.031880460690378420
0.252000000000000057,-2.776693664733128397
0.253000000000000058,-3.506018338629837583
0.254000000000000059,-4.219460615723633623
0.255000000000000060,-4.916705962146622255
0.256000000000000061,-5.597521644038518041
0.257000000000000062,-6.261757096746608298
0.258000000000000063,-6.909342461766270205
0.259000000000000064,-7.540285560067604642
0.260000000000000064,-8.154667566235129783
0.261000000000000065,-8.752637637996175002
0.262000000000000066,-9.334406741548246345
0.263000000000000067,-9.900240895767604243
0.264000000000000068,-10.450454038895093944
0.265000000000000069,-10.985400700501557480
0.266000000000000070,-11.505468640145982917
0.267000000000000071,-12.011071592745011571
0.268000000000000071,-12.502642239740948682
0.269000000000000072,-12.980625505059569136
0.270000000000000073,-13.445472255867466416
0.271000000000000074,-13.897633470473859774
0.272000000000000075,-14.337554919510534290
0.273000000000000076,-14.765672391843320810
0.274000000000000077,-15.182407483554461791
0.275000000000000078,-15.588163956780510588
0.276000000000000079,-15.983324665159305056
0.277000000000000079,-16.368249034074672466
0.278000000000000080,-16.743271076707525680
0.279000000000000081,-17.108697921021082777
0.280000000000000082,-17.464808818123636058
0.281000000000000083,-17.811854598862460364
0.282000000000000084,-18.150057542900093210
0.283000000000000085,-18.479611622804064552
0.284000000000000086,-18.800683084740100526
0.285000000000000087,-19.113411327095146675
0.286000000000000087,-19.417910038678307671
0.287000000000000088,-19.714268558963311762
0.288000000000000089,-20.002553424063549414
0.289000000000000090,-20.282810063694441283
0.290000000000000091,-20.555064616206017547
0.291000000000000092,-20.819325830802000610
0.292000000000000093,-21.075587028240271081
0.293000000000000094,-21.323828093586357113
0.294000000000000095,-21.564017476921911509
0.295000000000000095,-21.796114180256360271
0.296000000000000096,-22.020069711219043995
0.297000000000000097,-22.235829986395224012
0.298000000000000098,-22.443337169387653773
0.299000000000000099,-22.642531430819644811
0.300000000000000100,-22.833352619528341165
0.301000000000000101,-23.015741836120071184
0.302000000000000102,-23.189642901861095226
0.303000000000000103,-23.355003717555540277
0.304000000000000103,-23.511777508609977616
0.305000000000000104,-23.659923953903501115
0.306000000000000105,-23.799410197371464903
0.307000000000000106,-23.930211742373014516
0.308000000000000107,-24.052313229950311069
0.309000000000000108,-24.165709103004736846
0.310000000000000109,-24.270404159217999762
0.311000000000000110,-24.366413996238147632
0.312000000000000111,-24.453765353240378033
0.313000000000000111,-24.532496353463432825
0.314000000000000112,-24.602656652724284925
0.315000000000000113,-24.664307499230186949
0.316000000000000114,-24.717521710247531530
0.317000000000000115,-24.762383571355396583
0.318000000000000116,-24.798988664116656366
0.319000000000000117,-24.827443628046250268
0.320000000000000118,-24.847865862750829535
0.321000000000000119,-24.860383176063024280
0.322000000000000119,-24.865133383901582675
0.323000000000000120,-24.862263867461475542
0.324000000000000121,-24.851931093180873233
0.325000000000000122,-24.834300100748016860
0.326000000000000123,-24.809543964206881128
0.327000000000000124,-24.777843230997287804
0.328000000000000125,-24.739385343529555428
0.329000000000000126,-24.694364047646335081
0.330000000000000127,-24.642978792069662575
0.331000000000000127,-24.585434122672250368
0.332000000000000128,-24.521939075149713716
0.333000000000000129,-24.452706569408775295
0.334000000000000130,-24.377952808725609657
0.335000000000000131,-24.297896686472412853
0.336000000000000132,-24.212759202957236937
0.337000000000000133,-24.122762894677009626
0.338000000000000134,-24.028131278044877916
0.339000000000000135,-23.929088309422279934
0.340000000000000135,-23.825857863065230902
0.341000000000000136,-23.718663228381551278
0.342000000000000137,-23.607726627694500365
0.343000000000000138,-23.493268755515856583
0.344000000000000139,-23.375508340150705777
0.345000000000000140,-23.254661728285633160
0.346000000000000141,-23.130942493051975362
0.347000000000000142,-23.004561065906635520
0.348000000000000143,-22.875724392534831253
0.349000000000000143,-22.744635612850078843
0.350000000000000144,-22.611493765049623050
0.351000000000000145,-22.476493513574585137
0.352000000000000146,-22.339824900726224399
0.353000000000000147,-22.201673121600077110
0.354000000000000148,-22.062218321919736752
0.355000000000000149,-21.921635418280089880
0.356000000000000150,-21.780093940246494810
0.357000000000000151,-21.637757893700573675
0.358000000000000151,-21.494785644774658806
0.359000000000000152,-21.351329823675978759
0.360000000000000153,-21.207537247666188307
0.361000000000000154,-21.063548862433801645
0.362000000000000155,-20.919499701073426934
0.363000000000000156,-20.775518859868675747
0.364000000000000157,-20.631729490062419075
0.365000000000000158,-20.488248804790565316
0.366000000000000159,-20.345188100351233373
0.367000000000000159,-20.202652790981368014
0.368000000000000160,-20.060742456316848603
0.369000000000000161,-19.919550900718142827
0.370000000000000162,-19.779166223654080170
0.371000000000000163,-19.639670900348214388
0.372000000000000164,-19.501141871906870762
0.373000000000000165,-19.363650644165069536
0.374000000000000166,-19.227263394504532812
0.375000000000000167,-19.092041085918602050
0.376000000000000167,-18.958039587619946786
0.377000000000000168,-18.825309801509874319
0.378000000000000169,-18.693897793851288469
0.379000000000000170,-18.563844931512157643
0.380000000000000171,-18.435188022170557076
0.381000000000000172,-18.307959457898647315
0.382000000000000173,-18.182187361567624606
0.383000000000000174,-18.057895735542537352
0.384000000000000175,-17.935104612160944981
0.385000000000000175,-17.813830205515721161
0.386000000000000176,-17.694085064087879289
0.387000000000000177,-17.575878223800621925
0.388000000000000178,-17.459215361091175112
0.389000000000000179,-17.344098945621400532
0.390000000000000180,-17.230528392272780991
0.391000000000000181,-17.118500212094705404
0.392000000000000182,-17.008008161898555244
0.393000000000000183,-16.899043392212359294
0.394000000000000183,-16.791594593332870744
0.395000000000000184,-16.685648139233123288
0.396000000000000185,-16.581188229103926091
0.397000000000000186,-16.478197026327883634
0.398000000000000187,-16.376654794703338069
0.399000000000000188,-16.276540031754020532
0.400000000000000189,-16.177829598977957914
0.401000000000000190,-16.080498848905733666
0.402000000000000191,-15.984521748854698231
0.403000000000000191,-15.889871001280434726
0.404000000000000192,-15.796518160642079920
0.405000000000000193,-15.704433746711293551
0.406000000000000194,-15.613587354268233298
0.407000000000000195,-15.523947759140034108
0.408000000000000196,-15.435483020549096267
0.409000000000000197,-15.348160579749352550
0.410000000000000198,-15.261947354939241706
0.411000000000000199,-15.176809832449484006
0.412000000000000199,-15.092714154212993449
0.413000000000000200,-15.009626201532663359
0.414000000000000201,-14.927511675170512362
0.415000000000000202,-14.846336171788767189
0.416000000000000203,-14.766065256780578352
0.417000000000000204,-14.686664533533686949
0.418000000000000205,-14.608099709176268988
0.419000000000000206,-14.530336656859379474
0.420000000000000207,-14.453341474634674668
0.421000000000000207,-14.377080540990945678
0.422000000000000208,-14.301520567115925786
0.423000000000000209,-14.226628645954017216
0.424000000000000210,-14.152372298132949169
0.425000000000000211,-14.078719514835151827
0.426000000000000212,-14.005638797692100184
0.427000000000000213,-13.933099195781238677
0.428000000000000214,-13.861070339807275431
0.429000000000000214,-13.789522473550505310
0.430000000000000215,-13.718426482665956101
0.431000000000000216,-13.647753920917978121
0.432000000000000217,-13.577477033935247519
0.433000000000000218,-13.507568780571421740
0.434000000000000219,-13.438002851956918349
0.435000000000000220,-13.368753688326913576
0.436000000000000221,-13.299796493710374534
0.437000000000000222,-13.231107248564573098
0.438000000000000222,-13.162662720438579100
0.439000000000000223,-13.094440472748811288
0.440000000000000224,-13.026418871748242978
0.441000000000000225,-12.958577091770342449
0.442000000000000226,-12.890895118827293331
0.443000000000000227,-12.823353752640707981
0.444000000000000228,-12.755934607182108920
0.445000000000000229,-12.688620109798415925
0.446000000000000230,-12.621393498996528848
0.447000000000000230,-12.554238820959463752
0.448000000000000231,-12.487140924864711167
0.449000000000000232,-12.420085457073856361
0.450000000000000233,-12.353058854260870802
0.451000000000000234,-12.286048335544512256
0.452000000000000235,-12.219041893688695311
0.453000000000000236,-12.152028285432573185
0.454000000000000237,-12.084997021010741136
0.455000000000000238,-12.017938352921433420
0.456000000000000238,-11.950843263999423982
0.457000000000000239,-11.883703454848010495
0.458000000000000240,-11.816511330682851977
0.459000000000000241,-11.749259987638449587
0.460000000000000242,-11.681943198586420607
0.461000000000000243,-11.614555398512591111
0.462000000000000244,-11.547091669498600552
0.463000000000000245,-11.479547725351235243
0.464000000000000246,-11.411919895921837309
0.465000000000000246,-11.344205111155549304
0.466000000000000247,-11.276400884909040911
0.467000000000000248,-11.208505298573376407
0.468000000000000249,-11.140516984537189416
0.469000000000000250,-11.072435109523613761
0.470000000000000251,-11.004259357832943067
0.471000000000000252,-10.935989914521220712
0.472000000000000253,-10.867627448543903057
0.473000000000000254,-10.799173095891607232
0.474000000000000254,-10.730628442744219342
0.475000000000000255,-10.661995508667590826
0.476000000000000256,-10.593276729876192732
0.477000000000000257,-10.524474942583507797
0.478000000000000258,-10.455593366460600890
0.479000000000000259,-10.386635588222347337
0.480000000000000260,-10.317605545359246122
0.481000000000000261,-10.248507510031753753
0.482000000000000262,-10.179346073142982121
0.483000000000000262,-10.110126128604361995
0.484000000000000263,-10.040852857807880838
0.485000000000000264,-9.971531714317535489
0.486000000000000265,-9.902168408791549581
0.487000000000000266,-9.832768894146036942
0.488000000000000267,-9.763339350969800989
0.489000000000000268,-9.693886173199231848
0.490000000000000269,-9.624415954061177558
0.491000000000000270,-9.554935472291127496
0.492000000000000270,-9.485451678633026518
0.493000000000000271,-9.415971682626487649
0.494000000000000272,-9.346502739686396666
0.495000000000000273,-9.277052238479040369
0.496000000000000274,-9.207627688598686078
0.497000000000000275,-9.138236708547385234
0.498000000000000276,-9.068887014020614146
0.499000000000000277,-8.999586406500551305
0.500000000000000222,-8.930342762158414160
0.501000000000000334,-8.861164021066610275
0.502000000000000224,-8.792058176721241125
0.503000000000000336,-8.723033265874615694
0.504000000000000226,-8.654097358677637075
0.505000000000000338,-8.585258549130688976
0.506000000000000227,-8.516524945842265382
0.507000000000000339,-8.447904663093156685
0.508000000000000229,-8.379405812204694826
0.509000000000000341,-8.311036493208307618
0.510000000000000231,-8.242804786814298623
0.511000000000000343,-8.174718746676417069
0.512000000000000233,-8.106786391949670545
0.513000000000000345,-8.039015700137444043
0.514000000000000234,-7.971414600225003255
0.515000000000000346,-7.903990966094887938
0.516000000000000236,-7.836752610220893978
0.517000000000000348,-7.769707277635954590
0.518000000000000238,-7.702862640170124564
0.519000000000000350,-7.636226290953731954
0.520000000000000240,-7.569805739181608928
0.521000000000000352,-7.503608405133357806
0.522000000000000242,-7.437641615445135912
0.523000000000000353,-7.371912598627874402
0.524000000000000243,-7.306428480827170446
0.525000000000000355,-7.241196281819695102
0.526000000000000245,-7.176222911241185720
0.527000000000000357,-7.111515165040671604
0.528000000000000247,-7.047079722156131432
0.529000000000000359,-6.982923141405985135
0.530000000000000249,-6.919051858591577009
0.531000000000000361,-6.855472183805105146
0.532000000000000250,-6.792190298938139748
0.533000000000000362,-6.729212255385059294
0.534000000000000252,-6.666543971936640389
0.535000000000000364,-6.604191232858210192
0.536000000000000254,-6.542159686147553721
0.537000000000000366,-6.480454841966948543
0.538000000000000256,-6.419082071244835319
0.539000000000000368,-6.358046604441331517
0.540000000000000258,-6.297353530473220218
0.541000000000000369,-6.237007795792797182
0.542000000000000259,-6.177014203616218779
0.543000000000000371,-6.117377413295917776
0.544000000000000261,-6.058101939832663874
0.545000000000000373,-5.999192153522201920
0.546000000000000263,-5.940652279732033136
0.547000000000000375,-5.882486398803265182
0.548000000000000265,-5.824698446073563574
0.549000000000000377,-5.767292212015989961
0.550000000000000266,-5.710271342489924074
0.551000000000000378,-5.653639339099223449
0.552000000000000268,-5.597399559653654322
0.553000000000000380,-5.541555218729144805
0.554000000000000270,-5.486109388322967462
0.555000000000000382,-5.431064998599474336
0.556000000000000272,-5.376424838722814847
0.557000000000000384,-5.322191557772280923
0.558000000000000274,-5.268367665736946925
0.559000000000000385,-5.214955534585384633
0.560000000000000275,-5.161957399407270941
0.561000000000000387,-5.109375359622921664
0.562000000000000277,-5.057211380257551347
0.563000000000000389,-5.005467293276676166
0.564000000000000279,-4.954144798979468689
0.565000000000000391,-4.903245467446697425
0.566000000000000281,-4.852770740040247333
0.567000000000000393,-4.802721930950942131
0.568000000000000282,-4.753100228791969251
0.569000000000000394,-4.703906698234598061
0.570000000000000284,-4.655142281683795957
0.571000000000000396,-4.606807800990583956
0.572000000000000286,-4.558903959198819855
0.573000000000000398,-4.511431342323435345
0.574000000000000288,-4.464390421157983013
0.575000000000000400,-4.417781553108725667
0.576000000000000290,-4.371604984053155007
0.577000000000000401,-4.325860850220403009
0.578000000000000291,-4.280549180091560046
0.579000000000000403,-4.235669896317524774
0.580000000000000293,-4.191222817652525023
0.581000000000000405,-4.147207660901026216
0.582000000000000295,-4.103624042876438338
0.583000000000000407,-4.060471482369353069
0.584000000000000297,-4.017749402123849123
0.585000000000000409,-3.975457130819842089
0.586000000000000298,-3.933593905060073670
0.587000000000000410,-3.892158871359794325
0.588000000000000300,-3.851151088137947820
0.589000000000000412,-3.810569527708012938
0.590000000000000302,-3.770413078267342399
0.591000000000000414,-3.730680545883445998
0.592000000000000304,-3.691370656476003376
0.593000000000000416,-3.652482057793208448
0.594000000000000306,-3.614013321381421839
0.595000000000000417,-3.575962944546767552
0.596000000000000307,-3.538329352307724829
0.597000000000000419,-3.501110899337535720
0.598000000000000309,-3.464305871895541067
0.599000000000000421,-3.427912489746331115
0.600000000000000311,-3.391928908065983794
0.601000000000000423,-3.356353219334287985
0.602000000000000313,-3.321183455212425972
0.603000000000000425,-3.286417588404945800
0.604000000000000314,-3.252053534505749521
0.605000000000000426,-3.218089153826902304
0.606000000000000316,-3.184522253210073206
0.607000000000000428,-3.151350587819562232
0.608000000000000318,-3.118571862916712956
0.609000000000000430,-3.086183735614822954
0.610000000000000320,-3.054183816614338465
0.611000000000000432,-3.022569671917579193
0.612000000000000322,-2.991338824522829842
0.613000000000000433,-2.960488756097103824
0.614000000000000323,-2.930016908627453454
0.615000000000000435,-2.899920686050269758
0.616000000000000325,-2.870197455858405799
0.617000000000000437,-2.840844550685718506
0.618000000000000327,-2.811859269868846045
0.619000000000000439,-2.783238880985898778
0.620000000000000329,-2.754980621371945659
0.621000000000000441,-2.727081699611011878
0.622000000000000330,-2.699539297004514005
0.623000000000000442,-2.672350569015870203
0.624000000000000332,-2.645512646691323688
0.625000000000000444,-2.619022638056707208
0.626000000000000334,-2.592877629490232039
0.627000000000000446,-2.567074687071098538
0.628000000000000336,-2.541610857904000653
0.629000000000000448,-2.516483171419407583
0.630000000000000338,-2.491688640649745157
0.631000000000000449,-2.467224263481293089
0.632000000000000339,-2.443087023882057007
0.633000000000000451,-2.419273893105446938
0.634000000000000341,-2.395781830869990081
0.635000000000000453,-2.372607786515012140
0.636000000000000343,-2.349748700132484380
0.637000000000000455,-2.327201503675040861
0.638000000000000345,-2.304963122040379453
0.639000000000000457,-2.283030474132018206
0.640000000000000346,-2.261400473896734820
0.641000000000000458,-2.240070031338634582
0.642000000000000348,-2.219036053510175854
0.643000000000000460,-2.198295445480143773
0.644000000000000350,-2.177845111278942980
0.645000000000000462,-2.157681954821163650
0.646000000000000352,-2.137802880805843131
0.647000000000000464,-2.118204795594373024
0.648000000000000353,-2.098884608066539315
0.649000000000000465,-2.079839230454576970
0.650000000000000355,-2.061065579155799021
0.651000000000000467,-2.042560575523702404
0.652000000000000357,-2.024321146638042634
0.653000000000000469,-2.006344226053903945
0.654000000000000359,-1.988626754530175234
0.655000000000000471,-1.971165680737505088
0.656000000000000361,-1.953957961946151345
0.657000000000000473,-1.937000564693809324
0.658000000000000362,-1.920290465433822646
