# graphene_BENZENE-AC
# h[nm],U(h)[kJ/mol]
0.200000000000000011,57.584027949819869718
0.201000000000000012,57.195601133072770494
0.202000000000000013,56.095226269291934784
0.203000000000000014,54.695972905611732529
0.204000000000000015,53.222791416420115240
0.205000000000000016,51.784408937179634336
0.206000000000000016,50.421298005442331203
0.207000000000000017,49.136857492578243978
0.208000000000000018,47.916990434738579552
0.209000000000000019,46.741808853208851815
0.210000000000000020,45.592120029214392218
0.211000000000000021,44.452558757463947359
0.212000000000000022,43.312654580064801735
0.213000000000000023,42.166707579205649381
0.214000000000000024,41.013049725567512382
0.215000000000000024,39.853059824076623840
0.216000000000000025,38.690155253917843936
0.217000000000000026,37.528885337739652073
0.218000000000000027,36.374186154571845009
0.219000000000000028,35.230815198086830264
0.220000000000000029,34.102959319026936669
0.221000000000000030,32.993995660172814155
0.222000000000000031,31.906379029087258203
0.223000000000000032,30.841627674451189023
0.224000000000000032,29.800380852149107369
0.225000000000000033,28.782504589919398086
0.226000000000000034,27.787225813068367586
0.227000000000000035,26.813278913319390284
0.228000000000000036,25.859052580066940408
0.229000000000000037,24.922728070859218263
0.230000000000000038,24.002402981313107233
0.231000000000000039,23.096196957129343730
0.232000000000000040,22.202337688466169396
0.233000000000000040,21.319226980839559360
0.234000000000000041,20.445487761126106108
0.235000000000000042,19.579993611127417097
0.236000000000000043,18.721882882970596995
0.237000000000000044,17.870559695068816808
0.238000000000000045,17.025684183561480722
0.239000000000000046,16.187154334818238510
0.240000000000000047,15.355081585866665606
0.241000000000000048,14.529762181335527771
0.242000000000000048,13.711646041717880706
0.243000000000000049,12.901304647309336460
0.244000000000000050,12.099399189443222014
0.245000000000000051,11.306649996185255347
0.246000000000000052,10.523808010887799824
0.247000000000000053,9.751628893771874473
0.248000000000000054,8.990850131808375778
0.249000000000000055,8.242171381815515119
0.250000000000000056,7.506238135883277707
0.251000000000000056,6.783628686103955197
0.252000000000000057,6.074844275641668290
0.253000000000000058,5.380302253527039724
0.254000000000000059,4.700331999094879976
0.255000000000000060,4.035173346479582257
0.256000000000000061,3.384977217827160878
0.257000000000000062,2.749808163734691391
0.258000000000000063,2.129648508869814272
0.259000000000000064,1.524403807897798169
0.260000000000000064,0.933909330070815336
0.261000000000000065,0.357937308622582273
0.262000000000000066,-0.203795287846644080
0.263000000000000067,-0.751618681632583940
0.264000000000000068,-1.285902105114794969
0.265000000000000069,-1.807045683391710567
0.266000000000000070,-2.315472526372850393
0.267000000000000071,-2.811621152582585381
0.268000000000000071,-3.295938344320016533
0.269000000000000072,-3.768872512648492545
0.270000000000000073,-4.230867631156966624
0.271000000000000074,-4.682357779672450704
0.272000000000000075,-5.123762323174124944
0.273000000000000076,-5.555481737078102000
0.274000000000000077,-5.977894077802003103
0.275000000000000078,-6.391352087019019024
0.276000000000000079,-6.796180909187801156
0.277000000000000079,-7.192676394695469710
0.278000000000000080,-7.581103955157770358
0.279000000000000081,-7.961697932963406110
0.280000000000000082,-8.334661443897825706
0.281000000000000083,-8.700166649510304495
0.282000000000000084,-9.058355414668945116
0.283000000000000085,-9.409340305360647250
0.284000000000000086,-9.753205882121333659
0.285000000000000087,-10.090010245414042345
0.286000000000000087,-10.419786790710096724
0.287000000000000088,-10.742546132874913667
0.288000000000000089,-11.058278161630742176
0.289000000000000090,-11.366954192286668146
0.290000000000000091,-11.668529178520561373
0.291000000000000092,-11.962943956710471838
0.292000000000000093,-12.250127494086971325
0.293000000000000094,-12.529999115769497209
0.294000000000000095,-12.802470688517715303
0.295000000000000095,-13.067448741741454654
0.296000000000000096,-13.324836508939730706
0.297000000000000097,-13.574535875261631190
0.298000000000000098,-13.816449219278467808
0.299000000000000099,-14.050481139317010815
0.300000000000000100,-14.276540056815480995
0.301000000000000101,-14.494539691123506486
0.302000000000000102,-14.704400401968078071
0.303000000000000103,-14.906050397451746647
0.304000000000000103,-15.099426806934625134
0.305000000000000104,-15.284476619484033577
0.306000000000000105,-15.461157489757042072
0.307000000000000106,-15.629438414218038034
0.308000000000000107,-15.789300281492554490
0.309000000000000108,-15.940736301425946664
0.310000000000000109,-16.083752318060604125
0.311000000000000110,-16.218367012273393613
0.312000000000000111,-16.344612000238456062
0.313000000000000111,-16.462531834202543735
0.314000000000000112,-16.572183912293755981
0.315000000000000113,-16.673638304234771113
0.316000000000000114,-16.766977499908492177
0.317000000000000115,-16.852296087733257934
0.318000000000000116,-16.929700369756197631
0.319000000000000117,-16.999307920271640171
0.320000000000000118,-17.061247094625009879
0.321000000000000119,-17.115656494677281785
0.322000000000000119,-17.162684397186048102
0.323000000000000120,-17.202488151113239923
0.324000000000000121,-17.235233549600749825
0.325000000000000122,-17.261094182068291047
0.326000000000000123,-17.280250771587994052
0.327000000000000124,-17.292890502379790973
0.328000000000000125,-17.299206341956057997
0.329000000000000126,-17.299396362124333848
0.330000000000000127,-17.293663062737650193
0.331000000000000127,-17.282212701764894547
0.332000000000000128,-17.265254634940550460
0.333000000000000129,-17.243000667946802196
0.334000000000000130,-17.215664423782083503
0.335000000000000131,-17.183460727681129754
0.336000000000000132,-17.146605011671979923
0.337000000000000133,-17.105312740588210829
0.338000000000000134,-17.059798861098812495
0.339000000000000135,-17.010277275074866310
0.340000000000000135,-16.956960338382781828
0.341000000000000136,-16.900058385976432618
0.342000000000000137,-16.839779283957810208
0.343000000000000138,-16.776328009085609949
0.344000000000000139,-16.709906256034848582
0.345000000000000140,-16.640712072547437117
0.346000000000000141,-16.568939522463061564
0.347000000000000142,-16.494778376482329918
0.348000000000000143,-16.418413830388821850
0.349000000000000143,-16.340026250343026248
0.350000000000000144,-16.259790944759579645
0.351000000000000145,-16.177877962187832139
0.352000000000000146,-16.094451914535792270
0.353000000000000147,-16.009671824906558157
0.354000000000000148,-15.923690999255807554
0.355000000000000149,-15.836656921026635914
0.356000000000000150,-15.748711167874390071
0.357000000000000151,-15.659989349558651739
0.358000000000000151,-15.570621066051032244
0.359000000000000152,-15.480729884885757741
0.360000000000000153,-15.390433336765388717
0.361000000000000154,-15.299842928424229882
0.362000000000000155,-15.209064171748398309
0.363000000000000156,-15.118196628152503536
0.364000000000000157,-15.027333967218320154
0.365000000000000158,-14.936564038610660177
0.366000000000000159,-14.845968956298715824
0.367000000000000159,-14.755625194127635069
0.368000000000000160,-14.665603691804832920
0.369000000000000161,-14.575969970387216534
0.370000000000000162,-14.486784256379758418
0.371000000000000163,-14.398101613582349856
0.372000000000000164,-14.309972081849181791
0.373000000000000165,-14.222440821954396739
0.374000000000000166,-14.135548265787889477
0.375000000000000167,-14.049330271136364345
0.376000000000000167,-13.963818280336473876
0.377000000000000168,-13.879039482119344129
0.378000000000000169,-13.795016975998070308
0.379000000000000170,-13.711769938582994754
0.380000000000000171,-13.629313791241505882
0.381000000000000172,-13.547660368552408627
0.382000000000000173,-13.466818087036410034
0.383000000000000174,-13.386792113676659000
0.384000000000000175,-13.307584533774093671
0.385000000000000175,-13.229194517713391832
0.386000000000000176,-13.151618486245203243
0.387000000000000177,-13.074850273919574661
0.388000000000000178,-12.998881290334262317
0.389000000000000179,-12.923700678888810245
0.390000000000000180,-12.849295472762539916
0.391000000000000181,-12.775650747860074929
0.392000000000000182,-12.702749772493110214
0.393000000000000183,-12.630574153590936604
0.394000000000000183,-12.559103979255372252
0.395000000000000184,-12.488317957497425681
0.396000000000000185,-12.418193551014274689
0.397000000000000186,-12.348707107884861145
0.398000000000000187,-12.279833988081545471
0.399000000000000188,-12.211548685713209395
0.400000000000000189,-12.143824946932110009
0.401000000000000190,-12.076635883453052500
0.402000000000000191,-12.009954081648450241
0.403000000000000191,-11.943751707197000300
0.404000000000000192,-11.878000605277183155
0.405000000000000193,-11.812672396308965261
0.406000000000000194,-11.747738567259000675
0.407000000000000195,-11.683170558535030281
0.408000000000000196,-11.618939846505352165
0.409000000000000197,-11.555018021688344021
0.410000000000000198,-11.491376862665436676
0.411000000000000199,-11.427988405778686243
0.412000000000000199,-11.364825010680995376
0.413000000000000200,-11.301859421813636786
0.414000000000000201,-11.239064825891265542
0.415000000000000202,-11.176414905479658657
0.416000000000000203,-11.113883888756344476
0.417000000000000204,-11.051446595547835372
0.418000000000000205,-10.989078479740976846
0.419000000000000206,-10.926755668168857127
0.420000000000000207,-10.864454996074069726
0.421000000000000207,-10.802154039254597606
0.422000000000000208,-10.739831142998728097
0.423000000000000209,-10.677465447917295904
0.424000000000000210,-10.615036912781967260
0.425000000000000211,-10.552526334479134462
0.426000000000000212,-10.489915365189279584
0.427000000000000213,-10.427186526901351726
0.428000000000000214,-10.364323223371817662
0.429000000000000214,-10.301309749637077573
0.430000000000000215,-10.238131299187408274
0.431000000000000216,-10.174773968909528676
0.432000000000000217,-10.111224761903526925
0.433000000000000218,-10.047471588278723331
0.434000000000000219,-9.983503264031281077
0.435000000000000220,-9.919309508104852569
0.436000000000000221,-9.854880937733540236
0.437000000000000222,-9.790209062164567655
0.438000000000000222,-9.725286274856069113
0.439000000000000223,-9.660105844243087603
0.440000000000000224,-9.594661903162728933
0.441000000000000225,-9.528949437027076641
0.442000000000000226,-9.462964270830184432
0.443000000000000227,-9.396703055072823219
0.444000000000000228,-9.330163250686499765
0.445000000000000229,-9.263343113035535481
0.446000000000000230,-9.196241675073503430
0.447000000000000230,-9.128858729728014154
0.448000000000000231,-9.061194811584986297
0.449000000000000232,-8.993251177941194996
0.450000000000000233,-8.925029789291357929
0.451000000000000234,-8.856533289313405888
0.452000000000000235,-8.787764984413181324
0.453000000000000236,-8.718728822887138463
0.454000000000000237,-8.649429373759524253
0.455000000000000238,-8.579871805347588420
0.456000000000000238,-8.510061863606475541
0.457000000000000239,-8.440005850302672030
0.458000000000000240,-8.369710601062941180
0.459000000000000241,-8.299183463342993505
0.460000000000000242,-8.228432274358333132
0.461000000000000243,-8.157465339017159422
0.462000000000000244,-8.086291407893430261
0.463000000000000245,-8.014919655275599908
0.464000000000000246,-7.943359657325191669
0.465000000000000246,-7.871621370376732152
0.466000000000000247,-7.799715109409058655
0.467000000000000248,-7.727651526715933805
0.468000000000000249,-7.655441590802250396
0.469000000000000250,-7.583096565530118127
0.470000000000000251,-7.510627989537691285
0.471000000000000252,-7.438047655951609549
0.472000000000000253,-7.365367592412752629
0.473000000000000254,-7.292600041433017211
0.474000000000000254,-7.219757441099689643
0.475000000000000255,-7.146852406142320646
0.476000000000000256,-7.073897709375820853
0.477000000000000257,-7.000906263532020724
0.478000000000000258,-6.927891103490702918
0.479000000000000259,-6.854865368920006752
0.480000000000000260,-6.781842287334759689
0.481000000000000261,-6.708835157580287145
0.482000000000000262,-6.635857333748164777
0.483000000000000262,-6.562922209529382656
0.484000000000000263,-6.490043203009300044
0.485000000000000264,-6.417233741908013656
0.486000000000000265,-6.344507249268775517
0.487000000000000266,-6.271877129596239442
0.488000000000000267,-6.199356755445622369
0.489000000000000268,-6.126959454463056787
0.490000000000000269,-6.054698496876644853
0.491000000000000270,-5.982587083437218567
0.492000000000000270,-5.910638333806937261
0.493000000000000271,-5.838865275393543719
0.494000000000000272,-5.767280832627321274
0.495000000000000273,-5.695897816677260472
0.496000000000000274,-5.624728915602778656
0.497000000000000275,-5.553786684936391715
0.498000000000000276,-5.483083538692680392
0.499000000000000277,-5.412631740798454771
0.500000000000000222,-5.342443396938382882
0.501000000000000334,-5.272530446810428373
0.502000000000000224,-5.202904656784827608
0.503000000000000336,-5.133577612960058545
0.504000000000000226,-5.064560714609340764
0.505000000000000338,-4.995865168010332980
0.506000000000000227,-4.927501980651354252
0.507000000000000339,-4.859481955806243647
0.508000000000000229,-4.791815687470871055
0.509000000000000341,-4.724513555653113706
0.510000000000000231,-4.657585722009097928
0.511000000000000343,-4.591042125817152986
0.512000000000000233,-4.524892480282104223
0.513000000000000345,-4.459146269161315956
0.514000000000000234,-4.393812743704851087
0.515000000000000346,-4.328900919901056632
0.516000000000000236,-4.264419576019888858
0.517000000000000348,-4.200377250445312960
0.518000000000000238,-4.136782239788953319
0.519000000000000350,-4.073642597276387889
0.520000000000000240,-4.010966131398267187
0.521000000000000352,-3.948760404817785563
0.522000000000000242,-3.887032733526641692
0.523000000000000353,-3.825790186241130097
0.524000000000000243,-3.765039584030653863
0.525000000000000355,-3.704787500170408698
0.526000000000000245,-3.645040260210657745
0.527000000000000357,-3.585803942254455201
0.528000000000000247,-3.527084377436504159
0.529000000000000359,-3.468887150595131974
0.530000000000000249,-3.411217601130213772
0.531000000000000361,-3.354080824039324504
0.532000000000000250,-3.297481671125128688
0.533000000000000362,-3.241424752366462769
0.534000000000000252,-3.185914437446390135
0.535000000000000364,-3.130954857429935512
0.536000000000000254,-3.076549906585024807
0.537000000000000366,-3.022703244339485007
0.538000000000000256,-2.969418297368048965
0.539000000000000368,-2.916698261802366687
0.540000000000000258,-2.864546105558250844
0.541000000000000369,-2.812964570773440531
0.542000000000000259,-2.761956176350371717
0.543000000000000371,-2.711523220597560346
0.544000000000000261,-2.661667783964209111
0.545000000000000373,-2.612391731862127475
0.546000000000000263,-2.563696717569736716
0.547000000000000375,-2.515584185212433432
0.548000000000000265,-2.468055372814598858
0.549000000000000377,-2.421111315417621590
0.550000000000000266,-2.374752848259469307
0.551000000000000378,-2.328980610010658037
0.552000000000000268,-2.283795046062186973
0.553000000000000380,-2.239196411860712388
0.554000000000000270,-2.195184776286766670
0.555000000000000382,-2.151760025071504767
0.556000000000000272,-2.108921864248153533
0.557000000000000384,-2.066669823633793701
0.558000000000000274,-2.025003260337997713
0.559000000000000385,-1.983921362294176927
0.560000000000000275,-1.943423151810388827
0.561000000000000387,-1.903507489135797259
0.562000000000000277,-1.864173076039628230
0.563000000000000389,-1.825418459399223536
0.564000000000000279,-1.787242034794181533
0.565000000000000391,-1.749642050103430879
0.566000000000000281,-1.712616609102467269
0.567000000000000393,-1.676163675057829483
0.568000000000000282,-1.640281074316300991
0.569000000000000394,-1.604966499886029130
0.570000000000000284,-1.570217515007391373
0.571000000000000396,-1.536031556710933277
0.572000000000000286,-1.502405939360434983
0.573000000000000398,-1.469337858178626721
0.574000000000000288,-1.436824392753778490
0.575000000000000400,-1.404862510525002772
0.576000000000000290,-1.373449070244513903
0.577000000000000401,-1.342580825414954271
0.578000000000000291,-1.312254427700243031
0.579000000000000403,-1.282466430308159877
0.580000000000000293,-1.253213291343341140
0.581000000000000405,-1.224491377129044656
0.582000000000000295,-1.196296965496537190
0.583000000000000407,-1.168626249040616738
0.584000000000000297,-1.141475338340248724
0.585000000000000409,-1.114840265143038689
0.586000000000000298,-1.088716985512616420
0.587000000000000410,-1.063101382937806871
0.588000000000000300,-1.037989271402813607
0.589000000000000412,-1.013376398417402457
0.590000000000000302,-0.989258448006448576
0.591000000000000414,-0.965631043658007782
0.592000000000000304,-0.942489751229302564
0.593000000000000416,-0.919830081809959177
0.594000000000000306,-0.897647494542026969
0.595000000000000417,-0.875937399396172545
0.596000000000000307,-0.854695159903683832
0.597000000000000419,-0.833916095843840188
0.598000000000000309,-0.813595485886345893
0.599000000000000421,-0.793728570188434235
0.600000000000000311,-0.774310552946528174
0.601000000000000423,-0.755336604902073772
0.602000000000000313,-0.736801865801571032
0.603000000000000425,-0.718701446810431244
0.604000000000000314,-0.701030432880864529
0.605000000000000426,-0.683783885073429465
0.606000000000000316,-0.666956842832519881
0.607000000000000428,-0.650544326215550694
0.608000000000000318,-0.634541338076111794
0.609000000000000430,-0.618942866200992037
0.610000000000000320,-0.603743885401329394
0.611000000000000432,-0.588939359557903552
0.612000000000000322,-0.574524243620858188
0.613000000000000433,-0.560493485563935523
0.614000000000000323,-0.546842028293543114
0.615000000000000435,-0.533564811512818760
0.616000000000000325,-0.520656773541020579
0.617000000000000437,-0.508112853088477534
0.618000000000000327,-0.495927990987468092
0.619000000000000439,-0.484097131879286546
0.620000000000000329,-0.472615225857918708
0.621000000000000441,-0.461477230070632960
0.622000000000000330,-0.450678110275908150
0.623000000000000442,-0.440212842359052003
0.624000000000000332,-0.430076413805974944
0.625000000000000444,-0.420263825135501090
0.626000000000000334,-0.410770091290670547
0.627000000000000446,-0.401590242989488311
0.628000000000000336,-0.392719328035570914
0.629000000000000448,-0.384152412589154113
0.630000000000000338,-0.375884582398985978
0.631000000000000449,-0.367910943995521156
0.632000000000000339,-0.360226625845992132
0.633000000000000451,-0.352826779471798191
0.634000000000000341,-0.345706580528775509
0.635000000000000453,-0.338861229850835333
0.636000000000000343,-0.332285954457479105
0.637000000000000455,-0.325976008525785788
0.638000000000000345,-0.319926674327325855
0.639000000000000457,-0.314133263130577600
0.640000000000000346,-0.308591116069393268
0.641000000000000458,-0.303295604978032263
0.642000000000000348,-0.298242133193324044
0.643000000000000460,-0.293426136324492826
0.644000000000000350,-0.288843082991216082
0.645000000000000462,-0.284488475530432550
0.646000000000000352,-0.280357850672478759
0.647000000000000464,-0.276446780187069863
0.648000000000000353,-0.272750871499722269
0.649000000000000465,-0.269265768279102091
0.650000000000000355,-0.265987150995913746
0.651000000000000467,-0.262910737453807219
0.652000000000000357,-0.260032283292908672
0.653000000000000469,-0.257347582466467273
0.654000000000000359,-0.254852467691195905
0.655000000000000471,-0.252542810871796197
0.656000000000000361,-0.250414523500260944
0.657000000000000473,-0.248463557030424997
0.658000000000000362,-0.246685903228337861
0.659000000000000474,-0.245077594498938373
0.660000000000000364,-0.243634704189606477
