# graphene_CS-55104-AC
# h[nm],U(h)[kJ/mol]
0.149999999999999994,114.851843063703611847
0.150999999999999995,110.660318458419510534
0.151999999999999996,108.502051266023130438
0.152999999999999997,106.799684613335969630
0.153999999999999998,104.971053842489510544
0.154999999999999999,102.903422159803270119
0.156000000000000000,100.668986864822912253
0.157000000000000001,98.382608656134578951
0.158000000000000002,96.139950092066783327
0.159000000000000002,93.998387106078936881
0.160000000000000003,91.978512919880060394
0.161000000000000004,90.073742595822622548
0.162000000000000005,88.261450492638417131
0.163000000000000006,86.512576154342497148
0.164000000000000007,84.798610294203200510
0.165000000000000008,83.095908600338958649
0.166000000000000009,81.387757188967199795
0.167000000000000010,79.664771339775015235
0.168000000000000010,77.924198780328751468
0.169000000000000011,76.168610616468669150
0.170000000000000012,74.404349079798379307
0.171000000000000013,72.639989566120860331
0.172000000000000014,70.884978276822010912
0.173000000000000015,69.148530856984876891
0.174000000000000016,67.438821720355448974
0.175000000000000017,65.762455885795532140
0.176000000000000018,64.124191826307836095
0.177000000000000018,62.526871642677825491
0.178000000000000019,60.971510720428945262
0.179000000000000020,59.457500303790880025
0.180000000000000021,57.982881052651592313
0.181000000000000022,56.544652072865730474
0.182000000000000023,55.139087001462158355
0.183000000000000024,53.762035722004512195
0.184000000000000025,52.409196700760219301
0.185000000000000026,51.076350503901508660
0.186000000000000026,49.759549666096297926
0.187000000000000027,48.455263723704192103
0.188000000000000028,47.160480961663964194
0.189000000000000029,45.872770352127091087
0.190000000000000030,44.590308404211228321
0.191000000000000031,43.311876321979639215
0.192000000000000032,42.036833101271753321
0.193000000000000033,40.765070094176024895
0.194000000000000034,39.496952228011423358
0.195000000000000034,38.233250564106619152
0.196000000000000035,36.975070286192142532
0.197000000000000036,35.723777570821809491
0.198000000000000037,34.480928152540883502
0.199000000000000038,33.248199783424766451
0.200000000000000039,32.027330220014732731
0.201000000000000040,30.820061863090366217
0.202000000000000041,29.628093733786634800
0.203000000000000042,28.453041095417141548
0.204000000000000042,27.296402722757086678
0.205000000000000043,26.159535575849549360
0.206000000000000044,25.043636448402452288
0.207000000000000045,23.949730025381832377
0.208000000000000046,22.878662693863340394
0.209000000000000047,21.831101398899072308
0.210000000000000048,20.807536815611932468
0.211000000000000049,19.808290113874800653
0.212000000000000050,18.833522617205709082
0.213000000000000050,17.883247697963987832
0.214000000000000051,16.957344302219908627
0.215000000000000052,16.055571556083645390
0.216000000000000053,15.177583967697866996
0.217000000000000054,14.322946802962530199
0.218000000000000055,13.491151276322179697
0.219000000000000056,12.681629259012300537
0.220000000000000057,11.893767264834949060
0.221000000000000058,11.126919526975832753
0.222000000000000058,10.380420028018075840
0.223000000000000059,9.653593388852705459
0.224000000000000060,8.945764560509044117
0.225000000000000061,8.256267296079977669
0.226000000000000062,7.584451408061893218
0.227000000000000063,6.929688839826458668
0.228000000000000064,6.291378598915398968
0.229000000000000065,5.668950614764953322
0.230000000000000066,5.061868594719042491
0.231000000000000066,4.469631960175976637
0.232000000000000067,3.891776949836592614
0.233000000000000068,3.327876979666291479
0.234000000000000069,2.777542349721923376
0.235000000000000070,2.240419386771904886
0.236000000000000071,1.716189108976263311
0.237000000000000072,1.204565495081579840
0.238000000000000073,0.705293435889927878
0.239000000000000073,0.218146440412611303
0.240000000000000074,-0.257075836678608449
0.241000000000000075,-0.720550185756059003
0.242000000000000076,-1.172432496736578678
0.243000000000000077,-1.612860429196425915
0.244000000000000078,-2.041956055984169183
0.245000000000000079,-2.459828444082079901
0.246000000000000080,-2.866576142067390975
0.247000000000000081,-3.262289548810724860
0.248000000000000081,-3.647053142979936435
0.249000000000000082,-4.020947557471155065
0.250000000000000111,-4.384051487050133922
0.251000000000000112,-4.736443421249385999
0.252000000000000113,-5.078203197934921143
0.253000000000000114,-5.409413375933780799
0.254000000000000115,-5.730160427719465766
0.255000000000000115,-6.040535755396811979
0.256000000000000116,-6.340636535135759644
0.257000000000000117,-6.630566396793446060
0.258000000000000118,-6.910435946759667658
0.259000000000000119,-7.180363143087054034
0.260000000000000120,-7.440473532747236440
0.261000000000000121,-7.690900361411394215
0.262000000000000122,-7.931784566513103485
0.263000000000000123,-8.163274664533780367
0.264000000000000123,-8.385526543480121830
0.265000000000000124,-8.598703171417330537
0.266000000000000125,-8.802974231702789254
0.267000000000000126,-8.998515695248505253
0.268000000000000127,-9.185509339745351554
0.269000000000000128,-9.364142225321510082
0.270000000000000129,-9.534606135596719767
0.271000000000000130,-9.697096992545187533
0.272000000000000131,-9.851814253003617239
0.273000000000000131,-9.998960294068421462
0.274000000000000132,-10.138739794024631991
0.275000000000000133,-10.271359114847903982
0.276000000000000134,-10.397025691725289676
0.277000000000000135,-10.515947434456391463
0.278000000000000136,-10.628332145029540712
0.279000000000000137,-10.734386955120163165
0.280000000000000138,-10.834317786734890987
0.281000000000000139,-10.928328838727267680
0.282000000000000139,-11.016622101440740167
0.283000000000000140,-11.099396901293889783
0.284000000000000141,-11.176849476711639753
0.285000000000000142,-11.249172586425675746
0.286000000000000143,-11.316555150817015019
0.287000000000000144,-11.379181926653300749
0.288000000000000145,-11.437233215283370669
0.289000000000000146,-11.490884604089270482
0.290000000000000147,-11.540306740762748205
0.291000000000000147,-11.585665139765733755
0.292000000000000148,-11.627120020153451918
0.293000000000000149,-11.664826173781360552
0.294000000000000150,-11.698932862783097519
0.295000000000000151,-11.729583745094261715
0.296000000000000152,-11.756916826704019385
0.297000000000000153,-11.781064439243046138
0.298000000000000154,-11.802153241459507171
0.299000000000000155,-11.820304243094351904
0.300000000000000155,-11.835632849640656872
0.301000000000000156,-11.848248926458840202
0.302000000000000157,-11.858256880718240467
0.303000000000000158,-11.865755759644860845
0.304000000000000159,-11.870839363573981728
0.305000000000000160,-11.873596372333196314
0.306000000000000161,-11.874110483516005843
0.307000000000000162,-11.872460561246672484
0.308000000000000163,-11.868720794082843639
0.309000000000000163,-11.862960860753060999
0.310000000000000164,-11.855246102480338166
0.311000000000000165,-11.845637700699878536
0.312000000000000166,-11.834192859038648038
0.313000000000000167,-11.820964988485084035
0.314000000000000168,-11.806003894739466986
0.315000000000000169,-11.789355966798003905
0.316000000000000170,-11.771064365886457992
0.317000000000000171,-11.751169213921400569
0.318000000000000171,-11.729707780738959144
0.319000000000000172,-11.706714669391868000
0.320000000000000173,-11.682221998874833702
0.321000000000000174,-11.656259583696446214
0.322000000000000175,-11.628855109772054277
0.323000000000000176,-11.600034306166573828
0.324000000000000177,-11.569821112268455110
0.325000000000000178,-11.538237840026273062
0.326000000000000179,-11.505305330927800611
0.327000000000000179,-11.471043107446732279
0.328000000000000180,-11.435469518725842164
0.329000000000000181,-11.398601880306724610
0.330000000000000182,-11.360456607754345626
0.331000000000000183,-11.321049344061623998
0.332000000000000184,-11.280395080752857240
0.333000000000000185,-11.238508272636616780
0.334000000000000186,-11.195402946188201199
0.335000000000000187,-11.151092801568911028
0.336000000000000187,-11.105591308314446408
0.337000000000000188,-11.058911794747629642
0.338000000000000189,-11.011067531191667257
0.339000000000000190,-10.962071807079196262
0.340000000000000191,-10.911938002069051734
0.341000000000000192,-10.860679651298665860
0.342000000000000193,-10.808310504912878258
0.343000000000000194,-10.754844582022512256
0.344000000000000195,-10.700296219255916341
0.345000000000000195,-10.644680114076166433
0.346000000000000196,-10.588011363043717594
0.347000000000000197,-10.530305495210857458
0.348000000000000198,-10.471578500839310522
0.349000000000000199,-10.411846855636085252
0.350000000000000200,-10.351127540705864050
0.351000000000000201,-10.289438058419722921
0.352000000000000202,-10.226796444401202280
0.353000000000000203,-10.163221275830863988
0.354000000000000203,-10.098731676269618873
0.355000000000000204,-10.033347317200053794
0.356000000000000205,-9.967088416482752677
0.357000000000000206,-9.899975733922342869
0.358000000000000207,-9.832030564134445427
0.359000000000000208,-9.763274726901686407
0.360000000000000209,-9.693730555202652255
0.361000000000000210,-9.623420881093270651
0.362000000000000210,-9.552369019615726486
0.363000000000000211,-9.480598750904810856
0.364000000000000212,-9.408134300656643134
0.365000000000000213,-9.335000319119160395
0.366000000000000214,-9.261221858758393211
0.367000000000000215,-9.186824350748761248
0.368000000000000216,-9.111833580430031887
0.369000000000000217,-9.036275661867517073
0.370000000000000218,-8.960177011646567991
0.371000000000000218,-8.883564322026106908
0.372000000000000219,-8.806464533570528275
0.373000000000000220,-8.728904807373037755
0.374000000000000221,-8.650912496978076405
0.375000000000000222,-8.572515120104252873
0.376000000000000223,-8.493740330264156313
0.377000000000000224,-8.414615888371212549
0.378000000000000225,-8.335169634418765128
0.379000000000000226,-8.255429459310830609
0.380000000000000226,-8.175423276919133286
0.381000000000000227,-8.095178996435372198
0.382000000000000228,-8.014724495083324740
0.383000000000000229,-7.934087591250052363
0.384000000000000230,-7.853296018090998309
0.385000000000000231,-7.772377397659364640
0.386000000000000232,-7.691359215605492849
0.387000000000000233,-7.610268796488009357
0.388000000000000234,-7.529133279734244510
0.389000000000000234,-7.447979596283817116
0.390000000000000235,-7.366834445945102061
0.391000000000000236,-7.285724275491276103
0.392000000000000237,-7.204675257518646347
0.393000000000000238,-7.123713270087272065
0.394000000000000239,-7.042863877160250752
0.395000000000000240,-6.962152309855591525
0.396000000000000241,-6.881603448521419253
0.397000000000000242,-6.801241805642815663
0.398000000000000242,-6.721091509586122115
0.399000000000000243,-6.641176289184021364
0.400000000000000244,-6.561519459162582280
0.401000000000000245,-6.482143906409575607
0.402000000000000246,-6.403072077080997460
0.403000000000000247,-6.324325964541293033
0.404000000000000248,-6.245927098130961141
0.405000000000000249,-6.167896532753632144
0.406000000000000250,-6.090254839273209875
0.407000000000000250,-6.013022095710511827
0.408000000000000251,-5.936217879227347005
0.409000000000000252,-5.859861258885129764
0.410000000000000253,-5.783970789163829451
0.411000000000000254,-5.708564504226343317
0.412000000000000255,-5.633659912912380996
0.413000000000000256,-5.559273994445347533
0.414000000000000257,-5.485423194834827321
0.415000000000000258,-5.412123423956971990
0.416000000000000258,-5.339390053294297722
0.417000000000000259,-5.267237914316146075
0.418000000000000260,-5.195681297480648553
0.419000000000000261,-5.124733951838611468
0.420000000000000262,-5.054409085219711883
0.421000000000000263,-4.984719364981019751
0.422000000000000264,-4.915676919297765401
0.423000000000000265,-4.847293338976233379
0.424000000000000266,-4.779579679768692912
0.425000000000000266,-4.712546465170039056
0.426000000000000267,-4.646203689676185355
0.427000000000000268,-4.580560822484088135
0.428000000000000269,-4.515626811613552505
0.429000000000000270,-4.451410088431113188
0.430000000000000271,-4.387918572556374741
0.431000000000000272,-4.325159677131572344
0.432000000000000273,-4.263140314435232447
0.433000000000000274,-4.201866901821190936
0.434000000000000274,-4.141345367964381907
0.435000000000000275,-4.081581159395286207
0.436000000000000276,-4.022579247305190009
0.437000000000000277,-3.964344134604625758
0.438000000000000278,-3.906879863218011284
0.439000000000000279,-3.850190021597630796
0.440000000000000280,-3.794277752440564200
0.441000000000000281,-3.739145760592610834
0.442000000000000282,-3.684796321123666729
0.443000000000000282,-3.631231287559264498
0.444000000000000283,-3.578452100253676438
0.445000000000000284,-3.526459794890171029
0.446000000000000285,-3.475255011094433577
0.447000000000000286,-3.424838001147934019
0.448000000000000287,-3.375208638787868587
0.449000000000000288,-3.326366428081330984
0.450000000000000289,-3.278310512361358953
0.451000000000000290,-3.231039683213147384
0.452000000000000290,-3.184552389499114788
0.453000000000000291,-3.138846746411851019
0.454000000000000292,-3.093920544544514151
0.455000000000000293,-3.049771258968516641
0.456000000000000294,-3.006396058308927088
0.457000000000000295,-2.963791813808220432
0.458000000000000296,-2.921955108369586718
0.459000000000000297,-2.880882245571290134
0.460000000000000298,-2.840569258643981243
0.461000000000000298,-2.801011919403290751
0.462000000000000299,-2.762205747130363598
0.463000000000000300,-2.724146017393321628
0.464000000000000301,-2.686827770803119630
0.465000000000000302,-2.650245821697510884
0.466000000000000303,-2.614394766747179411
0.467000000000000304,-2.579268993478485150
0.468000000000000305,-2.544862688707622222
0.469000000000000306,-2.511169846881136980
0.470000000000000306,-2.478184278318349865
0.471000000000000307,-2.445899617351190436
0.472000000000000308,-2.414309330357572669
0.473000000000000309,-2.383406723684465156
0.474000000000000310,-2.353184951457249152
0.475000000000000311,-2.323637023272140389
0.476000000000000312,-2.294755811768820042
0.477000000000000313,-2.266534060080444668
0.478000000000000314,-2.238964389158732970
0.479000000000000314,-2.212039304971901377
0.480000000000000315,-2.185751205573388312
0.481000000000000316,-2.160092388039740907
0.482000000000000317,-2.135055055276000591
0.483000000000000318,-2.110631322687329892
0.484000000000000319,-2.086813224715664550
0.485000000000000320,-2.063592721240513406
0.486000000000000321,-2.040961703843048536
0.487000000000000322,-2.018912001932932743
0.488000000000000322,-1.997435388737384132
0.489000000000000323,-1.976523587152301475
0.490000000000000324,-1.956168275455195671
0.491000000000000325,-1.936361092880049428
0.492000000000000326,-1.917093645054160689
0.493000000000000327,-1.898357509297342149
0.494000000000000328,-1.880144239783834381
0.495000000000000329,-1.862445372567466562
0.496000000000000330,-1.845252430470727179
0.497000000000000330,-1.828556927838472346
0.498000000000000331,-1.812350375157119498
0.499000000000000332,-1.796624283540300127
0.500000000000000333,-1.781370169081979871
0.501000000000000334,-1.766579557078165497
0.502000000000000335,-1.752243986118421804
0.503000000000000336,-1.738355012048466985
0.504000000000000337,-1.724904211805164067
0.505000000000000338,-1.711883187125366579
0.506000000000000338,-1.699283568130062205
0.507000000000000339,-1.687097016785337633
0.508000000000000340,-1.675315230241766429
0.509000000000000341,-1.663929944053851084
0.510000000000000342,-1.652932935281169025
0.511000000000000343,-1.642316025472960295
0.512000000000000344,-1.632071083537903977
0.513000000000000345,-1.622190028500857917
0.514000000000000346,-1.612664832148414051
0.515000000000000346,-1.603487521565060359
0.516000000000000347,-1.594650181561842128
0.517000000000000348,-1.586144956999455458
0.518000000000000349,-1.577964055007576860
0.519000000000000350,-1.570099747102445154
0.520000000000000351,-1.562544371204590998
0.521000000000000352,-1.555290333558658755
0.522000000000000353,-1.548330110557273764
0.523000000000000353,-1.541656250470910150
0.524000000000000354,-1.535261375085742674
0.525000000000000355,-1.529138181251408879
0.526000000000000356,-1.523279442340662371
0.527000000000000357,-1.517678009622896784
0.528000000000000358,-1.512326813553435567
0.529000000000000359,-1.507218864980611972
0.530000000000000360,-1.502347256272503540
0.531000000000000361,-1.497705162365320586
0.532000000000000361,-1.493285841735310981
0.533000000000000362,-1.489082637296138101
0.534000000000000363,-1.485088977223592455
0.535000000000000364,-1.481298375709525716
0.536000000000000365,-1.477704433646889415
0.537000000000000366,-1.474300839247707717
0.538000000000000367,-1.471081368595796635
0.539000000000000368,-1.468039886136118799
0.540000000000000369,-1.465170345102441818
0.541000000000000369,-1.462466787885201125
0.542000000000000370,-1.459923346341226447
0.543000000000000371,-1.457534242047091144
0.544000000000000372,-1.455293786497817710
0.545000000000000373,-1.453196381252571445
0.546000000000000374,-1.451236518029045630
0.547000000000000375,-1.449408778748142002
0.548000000000000376,-1.447707835530601228
0.549000000000000377,-1.446128450647123920
0.550000000000000377,-1.444665476423561579
0.551000000000000378,-1.443313855102737575
0.552000000000000379,-1.442068618664365864
0.553000000000000380,-1.440924888604600440
0.554000000000000381,-1.439877875676624175
0.555000000000000382,-1.438922879593767634
0.556000000000000383,-1.438055288696499456
0.557000000000000384,-1.437270579584734254
0.558000000000000385,-1.436564316716757217
0.559000000000000385,-1.435932151976140769
0.560000000000000386,-1.435369824207899825
0.561000000000000387,-1.434873158725219700
0.562000000000000388,-1.434438066787954380
0.563000000000000389,-1.434060545054160141
0.564000000000000390,-1.433736675005811589
0.565000000000000391,-1.433462622349922500
0.566000000000000392,-1.433234636396168771
0.567000000000000393,-1.433049049412174369
0.568000000000000393,-1.432902275957494753
0.569000000000000394,-1.432790812197437536
0.570000000000000395,-1.432711235197698052
0.571000000000000396,-1.432660202200849664
0.572000000000000397,-1.432634449885704431
0.573000000000000398,-1.432630793610457864
0.574000000000000399,-1.432646126640613193
0.575000000000000400,-1.432677419362563098
0.576000000000000401,-1.432721718483747519
0.577000000000000401,-1.432776146220252400
0.578000000000000402,-1.432837899472696241
0.579000000000000403,-1.432904248991209162
0.580000000000000404,-1.432972538530354001
0.581000000000000405,-1.433040183994719996
0.582000000000000406,-1.433104672575964855
0.583000000000000407,-1.433163561882062398
0.584000000000000408,-1.433214479059425672
0.585000000000000409,-1.433255119908631858
0.586000000000000409,-1.433283247994420639
0.587000000000000410,-1.433296693750599982
0.588000000000000411,-1.433293353580501917
0.589000000000000412,-1.433271188953608943
0.590000000000000413,-1.433228225498922370
0.591000000000000414,-1.433162552095662123
0.592000000000000415,-1.433072319961863794
0.593000000000000416,-1.432955741741368305
0.594000000000000417,-1.432811090589774405
0.595000000000000417,-1.432636699259825397
0.596000000000000418,-1.432430959186701935
0.597000000000000419,-1.432192319573735384
0.598000000000000420,-1.431919286478930520
0.599000000000000421,-1.431610421902782537
0.600000000000000422,-1.431264342877776041
0.601000000000000423,-1.430879720559977697
0.602000000000000424,-1.430455279323108453
0.603000000000000425,-1.429989795855484136
0.604000000000000425,-1.429482098260135725
0.605000000000000426,-1.428931065158496327
0.606000000000000427,-1.428335624797995473
0.607000000000000428,-1.427694754163779001
0.608000000000000429,-1.427007478095027260
0.609000000000000430,-1.426272868405949357
0.610000000000000431,-1.425490043011938601
0.611000000000000432,-1.424658165060993742
