# graphene_HISTIDINEZWITTER
# h[nm],U(h)[kJ/mol]
0.200000000000000011,89.185879107453246206
0.201000000000000012,88.114053824050600383
0.202000000000000013,86.332486177807055583
0.203000000000000014,84.266056476816146414
0.204000000000000015,82.149322413651844954
0.205000000000000016,80.096940315295483970
0.206000000000000016,78.151514732058686263
0.207000000000000017,76.315358430171613691
0.208000000000000018,74.570934318019553189
0.209000000000000019,72.893463228823350164
0.210000000000000020,71.258217330152376690
0.211000000000000021,69.644301283461942376
0.212000000000000022,68.036192752293672470
0.213000000000000023,66.423924751999265936
0.214000000000000024,64.802509574616792065
0.215000000000000024,63.171000784369923053
0.216000000000000025,61.531445619367708844
0.217000000000000026,59.887879538567531768
0.218000000000000027,58.245445899381785182
0.219000000000000028,56.609678032767682510
0.220000000000000029,54.985951720087200556
0.221000000000000030,53.379098388977681111
0.222000000000000031,51.793159642705063561
0.223000000000000032,50.231259401626530803
0.224000000000000032,48.695569080700472853
0.225000000000000033,47.187342513845493386
0.226000000000000034,45.706999829481802067
0.227000000000000035,44.254242544287805572
0.228000000000000036,42.828185352781069639
0.229000000000000037,41.427493182806443883
0.230000000000000038,40.050514905181174186
0.231000000000000039,38.695407549504849953
0.232000000000000040,37.360246958740049195
0.233000000000000040,36.043122517247525138
0.234000000000000041,34.742214935674766707
0.235000000000000042,33.455857108057742266
0.236000000000000043,32.182578813505017479
0.237000000000000044,30.921136559711506209
0.238000000000000045,29.670530199439220098
0.239000000000000046,28.430008131879038302
0.240000000000000047,27.199062962197622539
0.241000000000000048,25.977419463857565063
0.242000000000000048,24.765016594281441087
0.243000000000000049,23.561985175702975681
0.244000000000000050,22.368622686340081884
0.245000000000000051,21.185366425605234753
0.246000000000000052,20.012766131244141832
0.247000000000000053,18.851456943785546372
0.248000000000000054,17.702133440102510775
0.249000000000000055,16.565525297061750365
0.250000000000000056,15.442375000596848977
0.251000000000000056,14.333417886372185279
0.252000000000000057,13.239364685934834398
0.253000000000000058,12.160886656645136128
0.254000000000000059,11.098603294020032095
0.255000000000000060,10.053072560374673117
0.256000000000000061,9.024783512546434849
0.257000000000000062,8.014151172653759758
0.258000000000000063,7.021513457853184370
0.259000000000000064,6.047129966491835873
0.260000000000000064,5.091182407538707544
0.261000000000000065,4.153776456423385888
0.262000000000000066,3.234944822212328486
0.263000000000000067,2.334651317325734610
0.264000000000000068,1.452795730758903003
0.265000000000000069,0.589219318156911087
0.266000000000000070,-0.256289263649882693
0.267000000000000071,-1.083987734562888106
0.268000000000000071,-1.894173822341522095
0.269000000000000072,-2.687178871321553419
0.270000000000000073,-3.463361536889677073
0.271000000000000074,-4.223101658113163737
0.272000000000000075,-4.966794385846917237
0.273000000000000076,-5.694844629424489213
0.274000000000000077,-6.407661871812938337
0.275000000000000078,-7.105655390954490613
0.276000000000000079,-7.789229913977203879
0.277000000000000079,-8.458781721051847668
0.278000000000000080,-9.114695206889720680
0.279000000000000081,-9.757339900195908911
0.280000000000000082,-10.387067934765269683
0.281000000000000083,-11.004211960285743999
0.282000000000000084,-11.609083476228104104
0.283000000000000085,-12.201971568388461975
0.284000000000000086,-12.783142024637381695
0.285000000000000087,-13.352836804141574589
0.286000000000000087,-13.911273832693051844
0.287000000000000088,-14.458647095730231769
0.288000000000000089,-14.995127000098751324
0.289000000000000090,-15.520860975511464375
0.290000000000000091,-16.035974286961398150
0.291000000000000092,-16.540571029965292382
0.292000000000000093,-17.034735281409037810
0.293000000000000094,-17.518532379884433681
0.294000000000000095,-17.992010310701243014
0.295000000000000095,-18.455201172191486592
0.296000000000000096,-18.908122701453756065
0.297000000000000097,-19.350779839286055051
0.298000000000000098,-19.783166315693982540
0.299000000000000099,-20.205266239014985530
0.300000000000000100,-20.617055673344658828
0.301000000000000101,-21.018504190573189305
0.302000000000000102,-21.409576384918640457
0.303000000000000103,-21.790233339372761634
0.304000000000000103,-22.160434034936891123
0.305000000000000104,-22.520136694919038689
0.306000000000000105,-22.869300057877740784
0.307000000000000106,-23.207884574031737657
0.308000000000000107,-23.535853521103188513
0.309000000000000108,-23.853174036625233612
0.310000000000000109,-24.159818064722010433
0.311000000000000110,-24.455763216259168047
0.312000000000000111,-24.740993542072111211
0.313000000000000111,-25.015500219703167062
0.314000000000000112,-25.279282154726196552
0.315000000000000113,-25.532346498307756377
0.316000000000000114,-25.774709083152497868
0.317000000000000115,-26.006394780410197143
0.318000000000000116,-26.227437780488223495
0.319000000000000117,-26.437881801017983463
0.320000000000000118,-26.637780225473669304
0.321000000000000119,-26.827196176139132433
0.322000000000000119,-27.006202525268282244
0.323000000000000120,-27.174881848390196382
0.324000000000000121,-27.333326323777235700
0.325000000000000122,-27.481637582123926933
0.326000000000000123,-27.619926510483423954
0.327000000000000124,-27.748313014477055560
0.328000000000000125,-27.866925742737532090
0.329000000000000126,-27.975901777467576892
0.330000000000000127,-28.075386294898812878
0.331000000000000127,-28.165532199321923201
0.332000000000000128,-28.246499734231264256
0.333000000000000129,-28.318456073988329535
0.334000000000000130,-28.381574899259071287
0.335000000000000131,-28.436035959325796085
0.336000000000000132,-28.482024624211209840
0.337000000000000133,-28.519731429388759381
0.338000000000000134,-28.549351615685441885
0.339000000000000135,-28.571084666814634545
0.340000000000000135,-28.585133846809743119
0.341000000000000136,-28.591705739461588109
0.342000000000000137,-28.591009791699327991
0.343000000000000138,-28.583257862692853735
0.344000000000000139,-28.568663780297718802
0.345000000000000140,-28.547442906311040645
0.346000000000000141,-28.519811711858331194
0.347000000000000142,-28.485987364089407237
0.348000000000000143,-28.446187325224411069
0.349000000000000143,-28.400628964860288761
0.350000000000000144,-28.349529186323525920
0.351000000000000145,-28.293104067736361884
0.352000000000000146,-28.231568518352283093
0.353000000000000147,-28.165135950610554971
0.354000000000000148,-28.094017968260907026
0.355000000000000149,-28.018424070816372762
0.356000000000000150,-27.938561374506178936
0.357000000000000151,-27.854634349820088346
0.358000000000000151,-27.766844575661206562
0.359000000000000152,-27.675390510056143256
0.360000000000000153,-27.580467277308532204
0.361000000000000154,-27.482266471424509291
0.362000000000000155,-27.380975975587187321
0.363000000000000156,-27.276779797409925976
0.364000000000000157,-27.169857919656283940
0.365000000000000158,-27.060386166077329051
0.366000000000000159,-26.948536081983689883
0.367000000000000159,-26.834474829141065300
0.368000000000000160,-26.718365094553131911
0.369000000000000161,-26.600365012674320297
0.370000000000000162,-26.480628100577497719
0.371000000000000163,-26.359303205587234942
0.372000000000000164,-26.236534464877543371
0.373000000000000165,-26.112461276524975062
0.374000000000000166,-25.987218281501743178
0.375000000000000167,-25.860935356090188009
0.376000000000000167,-25.733737614198542332
0.377000000000000168,-25.605745419059161350
0.378000000000000169,-25.477074403792443036
0.379000000000000170,-25.347835500324954694
0.380000000000000171,-25.218134976155432980
0.381000000000000172,-25.088074478470300477
0.382000000000000173,-24.957751085118545120
0.383000000000000174,-24.827257361965898497
0.384000000000000175,-24.696681426158697548
0.385000000000000175,-24.566107014839491995
0.386000000000000176,-24.435613558868801931
0.387000000000000177,-24.305276261120230430
0.388000000000000178,-24.175166178929849536
0.389000000000000179,-24.045350310294477225
0.390000000000000180,-23.915891683427737746
0.391000000000000181,-23.786849449297566395
0.392000000000000182,-23.658278976783186920
0.393000000000000183,-23.530231950104699479
0.394000000000000183,-23.402756468193178563
0.395000000000000184,-23.275897145684233180
0.396000000000000185,-23.149695215232569012
0.397000000000000186,-23.024188630860130900
0.398000000000000187,-22.899412172064824489
0.399000000000000188,-22.775397548431293160
0.400000000000000189,-22.652173504499394596
0.401000000000000190,-22.529765924659944432
0.402000000000000191,-22.408197937861213944
0.403000000000000191,-22.287490021922515382
0.404000000000000192,-22.167660107264769209
0.405000000000000193,-22.048723679880406934
0.406000000000000194,-21.930693883377266218
0.407000000000000195,-21.813581619943164469
0.408000000000000196,-21.697395650089553953
0.409000000000000197,-21.582142691043561200
0.410000000000000198,-21.467827513668872541
0.411000000000000199,-21.354453037806017335
0.412000000000000199,-21.242020425932832239
0.413000000000000200,-21.130529175055436042
0.414000000000000201,-21.019977206749160814
0.415000000000000202,-20.910360955277802475
0.416000000000000203,-20.801675453727948906
0.417000000000000204,-20.693914418103140918
0.418000000000000205,-20.587070329330138918
0.419000000000000206,-20.481134513137195796
0.420000000000000207,-20.376097217770542613
0.421000000000000207,-20.271947689522487934
0.422000000000000208,-20.168674246049949517
0.423000000000000209,-20.066264347468795393
0.424000000000000210,-19.964704665214274115
0.425000000000000211,-19.863981148663135912
0.426000000000000212,-19.764079089518116206
0.427000000000000213,-19.664983183959435564
0.428000000000000214,-19.566677592572755628
0.429000000000000214,-19.469145998066476722
0.430000000000000215,-19.372371660795163706
0.431000000000000216,-19.276337472109300819
0.432000000000000217,-19.181026005554365099
0.433000000000000218,-19.086419565945391241
0.434000000000000219,-18.992500236345655651
0.435000000000000220,-18.899249922980693839
0.436000000000000221,-18.806650398120574152
0.437000000000000222,-18.714683340965912350
0.438000000000000222,-18.623330376574379841
0.439000000000000223,-18.532573112866408849
0.440000000000000224,-18.442393175749888456
0.441000000000000225,-18.352772242404849834
0.442000000000000226,-18.263692072770769670
0.443000000000000227,-18.175134539279000023
0.444000000000000228,-18.087081654874673120
0.445000000000000229,-17.999515599372266195
0.446000000000000230,-17.912418744189771758
0.447000000000000230,-17.825773675506933813
0.448000000000000231,-17.739563215893102921
0.449000000000000232,-17.653770444450174182
0.450000000000000233,-17.568378715516772104
0.451000000000000234,-17.483371675979004323
0.452000000000000235,-17.398733281233660364
0.453000000000000236,-17.314447809848918070
0.454000000000000237,-17.230499876967932948
0.455000000000000238,-17.146874446499715816
0.456000000000000238,-17.063556842141789360
0.457000000000000239,-16.980532757278218980
0.458000000000000240,-16.897788263796513775
0.459000000000000241,-16.815309819865685625
0.460000000000000242,-16.733084276717935523
0.461000000000000243,-16.651098884474887285
0.462000000000000244,-16.569341297059434481
0.463000000000000245,-16.487799576232571752
0.464000000000000246,-16.406462194794944054
0.465000000000000246,-16.325318038990928926
0.466000000000000247,-16.244356410153098835
0.467000000000000248,-16.163567025623496676
0.468000000000000249,-16.082940018987791575
0.469000000000000250,-16.002465939657064098
0.470000000000000251,-15.922135751831405059
0.471000000000000252,-15.841940832878439238
0.472000000000000253,-15.761872971159267109
0.473000000000000254,-15.681924363332949923
0.474000000000000254,-15.602087611170338377
0.475000000000000255,-15.522355717906597405
0.476000000000000256,-15.442722084161385254
0.477000000000000257,-15.363180503454367809
0.478000000000000258,-15.283725157343019063
0.479000000000000259,-15.204350610208916095
0.480000000000000260,-15.125051803717521892
0.481000000000000261,-15.045824050975909358
0.482000000000000262,-14.966663030411888613
0.483000000000000262,-14.887564779397200354
0.484000000000000263,-14.808525687636436174
0.485000000000000264,-14.729542490342888428
0.486000000000000265,-14.650612261221329646
0.487000000000000266,-14.571732405277174394
0.488000000000000267,-14.492900651470639772
0.489000000000000268,-14.414115045233774737
0.490000000000000269,-14.335373940867345510
0.491000000000000270,-14.256675993834136307
0.492000000000000270,-14.178020152964094791
0.493000000000000271,-14.099405652586455062
0.494000000000000272,-14.020832004603041909
0.495000000000000273,-13.942298990516297508
0.496000000000000274,-13.863806653425097437
0.497000000000000275,-13.785355290000618211
0.498000000000000276,-13.706945442453923434
0.499000000000000277,-13.628577890506486270
0.500000000000000222,-13.550253643374020385
0.501000000000000334,-13.471973931773709054
0.502000000000000224,-13.393740199964247140
0.503000000000000336,-13.315554097827341451
0.504000000000000226,-13.237417472999485568
0.505000000000000338,-13.159332363061285065
0.506000000000000227,-13.081300987792337409
0.507000000000000339,-13.003325741498036550
0.508000000000000229,-12.925409185415176694
0.509000000000000341,-12.847554040202009418
0.510000000000000231,-12.769763178518882540
0.511000000000000343,-12.692039617703967380
0.512000000000000233,-12.614386512549637942
0.513000000000000345,-12.536807148183196858
0.514000000000000234,-12.459304933056865039
0.515000000000000346,-12.381883392049784831
0.516000000000000236,-12.304546159686413631
0.517000000000000348,-12.227296973473592345
0.518000000000000238,-12.150139667359646012
0.519000000000000350,-12.073078165317518540
0.520000000000000240,-11.996116475054538597
0.521000000000000352,-11.919258681850461556
0.522000000000000242,-11.842508942525626026
0.523000000000000353,-11.765871479540511046
0.524000000000000243,-11.689350575228049323
0.525000000000000355,-11.612950566159442545
0.526000000000000245,-11.536675837644562392
0.527000000000000357,-11.460530818367001160
0.528000000000000247,-11.384519975154749005
0.529000000000000359,-11.308647807886007541
0.530000000000000249,-11.232918844530782820
0.531000000000000361,-11.157337636327522290
0.532000000000000250,-11.081908753094992903
0.533000000000000362,-11.006636778678508648
0.534000000000000252,-10.931526306530210846
0.535000000000000364,-10.856581935422472185
0.536000000000000254,-10.781808265293806315
0.537000000000000366,-10.707209893225916986
0.538000000000000256,-10.632791409551391126
0.539000000000000368,-10.558557394090183124
0.540000000000000258,-10.484512412514352064
0.541000000000000369,-10.410661012838907880
0.542000000000000259,-10.337007722038158875
0.543000000000000371,-10.263557042785283357
0.544000000000000261,-10.190313450314128829
0.545000000000000373,-10.117281389401192371
0.546000000000000263,-10.044465271466458844
0.547000000000000375,-9.971869471790760997
0.548000000000000265,-9.899498326848725327
0.549000000000000377,-9.827356131754436674
0.550000000000000266,-9.755447137818844539
0.551000000000000378,-9.683775550216337180
0.552000000000000268,-9.612345525758929199
0.553000000000000380,-9.541161170775804834
0.554000000000000270,-9.470226539096508134
0.555000000000000382,-9.399545630135337504
0.556000000000000272,-9.329122387075461376
0.557000000000000384,-9.258960695150015852
0.558000000000000274,-9.189064380018892919
0.559000000000000385,-9.119437206238318439
0.560000000000000275,-9.050082875821953365
0.561000000000000387,-8.981005026890750642
0.562000000000000277,-8.912207232409953050
0.563000000000000389,-8.843692999010894340
0.564000000000000279,-8.775465765895702930
0.565000000000000391,-8.707528903822666422
0.566000000000000281,-8.639885714170393527
0.567000000000000393,-8.572539428078510326
0.568000000000000282,-8.505493205663153589
0.569000000000000394,-8.438750135304811550
0.570000000000000284,-8.372313233007055544
0.571000000000000396,-8.306185441823590310
0.572000000000000286,-8.240369631352239210
0.573000000000000398,-8.174868597293325934
0.574000000000000288,-8.109685061071079559
0.575000000000000400,-8.044821669515719975
0.576000000000000290,-7.980280994604659561
0.577000000000000401,-7.916065533260683296
0.578000000000000291,-7.852177707205565405
0.579000000000000403,-7.788619862866994481
0.580000000000000293,-7.725394271337401975
0.581000000000000405,-7.662503128382452289
0.582000000000000295,-7.599948554498053177
0.583000000000000407,-7.537732595013579839
0.584000000000000297,-7.475857220240153644
0.585000000000000409,-7.414324325661921122
0.586000000000000298,-7.353135732169117311
0.587000000000000410,-7.292293186330857324
0.588000000000000300,-7.231798360706621409
0.589000000000000412,-7.171652854194380033
0.590000000000000302,-7.111858192414321600
0.591000000000000414,-7.052415828126375352
0.592000000000000304,-6.993327141680351744
0.593000000000000416,-6.934593441496981647
0.594000000000000306,-6.876215964578878292
0.595000000000000417,-6.818195877049656239
0.596000000000000307,-6.760534274720231274
0.597000000000000419,-6.703232183680754019
0.598000000000000309,-6.646290560917137213
0.599000000000000421,-6.589710294950701375
0.600000000000000311,-6.533492206500042698
0.601000000000000423,-6.477637049163577743
0.602000000000000313,-6.422145510122073020
0.603000000000000425,-6.367018210859497707
0.604000000000000314,-6.312255707901751833
0.605000000000000426,-6.257858493571525571
0.606000000000000316,-6.203826996758931678
0.607000000000000428,-6.150161583706284851
0.608000000000000318,-6.096862558806631860
0.609000000000000430,-6.043930165414529654
0.610000000000000320,-5.991364586668694869
0.611000000000000432,-5.939165946325091205
0.612000000000000322,-5.887334309600081639
0.613000000000000433,-5.835869684022396697
0.614000000000000323,-5.784772020293390327
0.615000000000000435,-5.734041213154585037
0.616000000000000325,-5.683677102261905034
0.617000000000000437,-5.633679473065679844
0.618000000000000327,-5.584048057695889966
0.619000000000000439,-5.534782535851718421
0.620000000000000329,-5.485882535695007611
0.621000000000000441,-5.437347634746704017
0.622000000000000330,-5.389177360785877724
0.623000000000000442,-5.341371192750496988
0.624000000000000332,-5.293928561639608787
0.625000000000000444,-5.246848851416100246
0.626000000000000334,-5.200131399909735386
0.627000000000000446,-5.153775499719718489
0.628000000000000336,-5.107780399116470527
0.629000000000000448,-5.062145302941954306
0.630000000000000338,-5.016869373508278329
0.631000000000000449,-4.971951731493859938
0.632000000000000339,-4.927391456837016293
0.633000000000000451,-4.883187589626293956
0.634000000000000341,-4.839339130987353244
0.635000000000000453,-4.795845043965853094
0.636000000000000343,-4.752704254406105555
0.637000000000000455,-4.709915651825025584
0.638000000000000345,-4.667478090281218073
0.639000000000000457,-4.625390389238588362
0.640000000000000346,-4.583651334424578394
0.641000000000000458,-4.542259678682277979
0.642000000000000348,-4.501214142816587938
0.643000000000000460,-4.460513416433743217
0.644000000000000350,-4.420156158774366517
0.645000000000000462,-4.380140999539392510
0.646000000000000352,-4.340466539709064264
0.647000000000000464,-4.301131352354347293
0.648000000000000353,-4.262133983441056984
0.649000000000000465,-4.223472952625948906
0.650000000000000355,-4.185146754045194761
0.651000000000000467,-4.147153857094506790
0.652000000000000357,-4.109492707201241046
0.653000000000000469,-4.072161726587943953
0.654000000000000359,-4.035159315027540217
0.655000000000000471,-3.998483850589721555
0.656000000000000361,-3.962133690378751627
0.657000000000000473,-3.926107171262214646
