# graphene_BSAI4
# h[nm],U(h)[kJ/mol]
0.149999999999999994,84.683302271759231417
0.150999999999999995,82.580394251427932772
0.151999999999999996,80.228204517754832636
0.152999999999999997,77.848019085910294734
0.153999999999999998,75.515714398435051180
0.154999999999999999,73.243853573179507066
0.156000000000000000,71.023216451929528148
0.157000000000000001,68.841655384492810299
0.158000000000000002,66.690988806830446833
0.159000000000000002,64.568131745241316821
0.160000000000000003,62.473885748767386872
0.161000000000000004,60.411148685475176023
0.162000000000000005,58.383345968343249410
0.163000000000000006,56.393360025277239345
0.164000000000000007,54.442970605573883347
0.165000000000000008,52.532704723873180797
0.166000000000000009,50.661963339625799563
0.167000000000000010,48.829301011131498456
0.168000000000000010,47.032760804817343114
0.169000000000000011,45.270196558115110008
0.170000000000000012,43.539541647667611812
0.171000000000000013,41.839005022900380482
0.172000000000000014,40.167190888236703472
0.173000000000000015,38.523148598873753201
0.174000000000000016,36.906365074004398252
0.175000000000000017,35.316714427575334412
0.176000000000000018,33.754379586760705934
0.177000000000000018,32.219759264211816685
0.178000000000000019,30.713371436694433925
0.179000000000000020,29.235761947297834951
0.180000000000000021,27.787424325344648679
0.181000000000000022,26.368734618293025562
0.182000000000000023,24.979903069778679026
0.183000000000000024,23.620942905431363101
0.184000000000000025,22.291655304175655772
0.185000000000000026,20.991628808421165076
0.186000000000000026,19.720250915895043420
0.187000000000000027,18.476729345288113393
0.188000000000000028,17.260120422651372252
0.189000000000000029,16.069362143936650966
0.190000000000000030,14.903309685107378968
0.191000000000000031,13.760771415505640647
0.192000000000000032,12.640543790417623882
0.193000000000000033,11.541443829675769095
0.194000000000000034,10.462338211614140349
0.195000000000000034,9.402168312193303734
0.196000000000000035,8.359970788728857016
0.197000000000000036,7.334893541277304863
0.198000000000000037,6.326207080229388602
0.199000000000000038,5.333311486180004835
0.200000000000000039,4.355739269477122200
0.201000000000000040,3.393154524911841552
0.202000000000000041,2.445348835406397026
0.203000000000000042,1.512234411250584110
0.204000000000000042,0.593834962485681128
0.205000000000000043,-0.309725204596853931
0.206000000000000044,-1.198233396463555422
0.207000000000000045,-2.071401607611345952
0.208000000000000046,-2.928880061516006883
0.209000000000000047,-3.770270860206422547
0.210000000000000048,-4.595141431601314608
0.211000000000000049,-5.403037510729712167
0.212000000000000050,-6.193495437251645974
0.213000000000000050,-6.966053596132615766
0.214000000000000051,-7.720262870040178527
0.215000000000000052,-8.455696010401542395
0.216000000000000053,-9.171955868691664904
0.217000000000000054,-9.868682460194694528
0.218000000000000055,-10.545558859130901297
0.219000000000000056,-11.202315946717410711
0.220000000000000057,-11.838736052583755054
0.221000000000000058,-12.454655545198434652
0.222000000000000058,-13.049966438854724515
0.223000000000000059,-13.624617093597114703
0.224000000000000060,-14.178612090565513526
0.225000000000000061,-14.712011368907724318
0.226000000000000062,-15.224928711979137219
0.227000000000000063,-15.717529670319141388
0.228000000000000064,-16.190029007154993934
0.229000000000000065,-16.642687749211763304
0.230000000000000066,-17.075809921644637512
0.231000000000000066,-17.489739041191629809
0.232000000000000067,-17.884854436366261154
0.233000000000000068,-18.261567457855214514
0.234000000000000069,-18.620317636408440620
0.235000000000000070,-18.961568839543510023
0.236000000000000071,-19.285805472444799591
0.237000000000000072,-19.593528762616575278
0.238000000000000073,-19.885253162221303569
0.239000000000000073,-20.161502896662451434
0.240000000000000074,-20.422808682901180788
0.241000000000000075,-20.669704636260632924
0.242000000000000076,-20.902725380093510665
0.243000000000000077,-21.122403368682391545
0.244000000000000078,-21.329266430110983777
0.245000000000000079,-21.523835532588083908
0.246000000000000080,-21.706622774816398902
0.247000000000000081,-21.878129598464745698
0.248000000000000081,-22.038845218608251741
0.249000000000000082,-22.189245266129255185
0.250000000000000111,-22.329790634503162039
0.251000000000000112,-22.460926522104418979
0.252000000000000113,-22.583081660140326363
0.253000000000000114,-22.696667715526565701
0.254000000000000115,-22.802078857442502624
0.255000000000000115,-22.899691475918380945
0.256000000000000116,-22.989864040594348182
0.257000000000000117,-23.072937087729265215
0.258000000000000118,-23.149233323607241175
0.259000000000000119,-23.219057832674302233
0.260000000000000120,-23.282698379018466284
0.261000000000000121,-23.340425790168303877
0.262000000000000122,-23.392494412613725530
0.263000000000000123,-23.439142628934593660
0.264000000000000123,-23.480593426946082758
0.265000000000000124,-23.517055011823106980
0.266000000000000125,-23.548721452741283144
0.267000000000000126,-23.575773356158130412
0.268000000000000127,-23.598378558450850306
0.269000000000000128,-23.616692831216273163
0.270000000000000129,-23.630860593121926883
0.271000000000000130,-23.641015622767589832
0.272000000000000131,-23.647281767571591615
0.273000000000000131,-23.649773644231188996
0.274000000000000132,-23.648597326819590592
0.275000000000000133,-23.643851019071806974
0.276000000000000134,-23.635625707874677204
0.277000000000000135,-23.624005795413484776
0.278000000000000136,-23.609069707837083030
0.279000000000000137,-23.590890478685306419
0.280000000000000138,-23.569536305676237475
0.281000000000000139,-23.545071079777759593
0.282000000000000139,-23.517554885787191665
0.283000000000000140,-23.487044473916057541
0.284000000000000141,-23.453593702124745590
0.285000000000000142,-23.417253949174863692
0.286000000000000143,-23.378074498566856931
0.287000000000000144,-23.336102893707245443
0.288000000000000145,-23.291385264806343969
0.289000000000000146,-23.243966628142768371
0.290000000000000147,-23.193891158448529666
0.291000000000000147,-23.141202435267921089
0.292000000000000148,-23.085943664227055905
0.293000000000000149,-23.028157874218941004
0.294000000000000150,-22.967888091563203545
0.295000000000000151,-22.905177492241875825
0.296000000000000152,-22.840069533341747388
0.297000000000000153,-22.772608064854232168
0.298000000000000154,-22.702837422992974581
0.299000000000000155,-22.630802506191336931
0.300000000000000155,-22.556548834935671977
0.301000000000000156,-22.480122596577352567
0.302000000000000157,-22.401570676247878566
0.303000000000000158,-22.320940674977634899
0.304000000000000159,-22.238280916090452877
0.305000000000000160,-22.153640440914024623
0.306000000000000161,-22.067068994811421589
0.307000000000000162,-21.978617004500929255
0.308000000000000163,-21.888335547591736940
0.309000000000000163,-21.796276315221703612
0.310000000000000164,-21.702491568641097075
0.311000000000000165,-21.607034090542494909
0.312000000000000166,-21.509957131894054783
0.313000000000000167,-21.411314354988967068
0.314000000000000168,-21.311159773380815352
0.315000000000000169,-21.209547689331028408
0.316000000000000170,-21.106532629352635411
0.317000000000000171,-21.002169278392269547
0.318000000000000171,-20.896512413152031229
0.319000000000000172,-20.789616835013362106
0.320000000000000173,-20.681537302986406246
0.321000000000000174,-20.572328467071667291
0.322000000000000175,-20.462044802384991016
0.323000000000000176,-20.350740544363066675
0.324000000000000177,-20.238469625333600277
0.325000000000000178,-20.125285612703770255
0.326000000000000179,-20.011241648990697684
0.327000000000000179,-19.896390393889866743
0.328000000000000180,-19.780783968551048702
0.329000000000000181,-19.664473902206619726
0.330000000000000182,-19.547511081273349021
0.331000000000000183,-19.429945701027662608
0.332000000000000184,-19.311827219933384470
0.333000000000000185,-19.193204316682447086
0.334000000000000186,-19.074124849991534347
0.335000000000000187,-18.954635821181078370
0.336000000000000187,-18.834783339548803127
0.337000000000000188,-18.714612590535612213
0.338000000000000189,-18.594167806669908316
0.339000000000000190,-18.473492241264700908
0.340000000000000191,-18.352628144831601986
0.341000000000000192,-18.231616744167261857
0.342000000000000193,-18.110498224058666494
0.343000000000000194,-17.989311711547500749
0.344000000000000195,-17.868095262686445324
0.345000000000000195,-17.746885851715674676
0.346000000000000196,-17.625719362582202621
0.347000000000000197,-17.504630582721336651
0.348000000000000198,-17.383653199015810742
0.349000000000000199,-17.262819795845491200
0.350000000000000200,-17.142161855138567716
0.351000000000000201,-17.021709758333372520
0.352000000000000202,-16.901492790158904711
0.353000000000000203,-16.781539144141696340
0.354000000000000203,-16.661875929746209124
0.355000000000000204,-16.542529181056245591
0.356000000000000205,-16.423523866905437529
0.357000000000000206,-16.304883902365695292
0.358000000000000207,-16.186632161503499816
0.359000000000000208,-16.068790491315599667
0.360000000000000209,-15.951379726757091149
0.361000000000000210,-15.834419706776639458
0.362000000000000210,-15.717929291275899217
0.363000000000000211,-15.601926378911935345
0.364000000000000212,-15.486427925664187910
0.365000000000000213,-15.371449964089530127
0.366000000000000214,-15.257007623191716661
0.367000000000000215,-15.143115148833979688
0.368000000000000216,-15.029785924626215987
0.369000000000000217,-14.917032493220904854
0.370000000000000218,-14.804866577954470586
0.371000000000000218,-14.693299104773700492
0.372000000000000219,-14.582340224389406913
0.373000000000000220,-14.471999334602452691
0.374000000000000221,-14.362285102749646981
0.375000000000000222,-14.253205488220109132
0.376000000000000223,-14.144767764994943704
0.377000000000000224,-14.036978544166084149
0.378000000000000225,-13.929843796392432864
0.379000000000000226,-13.823368874254040151
0.380000000000000226,-13.717558534467766407
0.381000000000000227,-13.612416959929774407
0.382000000000000228,-13.507947781553180988
0.383000000000000229,-13.404154099871007588
0.384000000000000230,-13.301038506376830384
0.385000000000000231,-13.198603104578177536
0.386000000000000232,-13.096849530738968070
0.387000000000000233,-12.995778974290100649
0.388000000000000234,-12.895392197888636332
0.389000000000000234,-12.795689557108342882
0.390000000000000235,-12.696671019745670250
0.391000000000000236,-12.598336184727457976
0.392000000000000237,-12.500684300607783683
0.393000000000000238,-12.403714283643472172
0.394000000000000239,-12.307424735438663888
0.395000000000000240,-12.211813960150857739
0.396000000000000241,-12.116879981251750920
0.397000000000000242,-12.022620557837651489
0.398000000000000242,-11.929033200485489985
0.399000000000000243,-11.836115186651493758
0.400000000000000244,-11.743863575610644645
0.401000000000000245,-11.652275222936230747
0.402000000000000246,-11.561346794519582915
0.403000000000000247,-11.471074780130948056
0.404000000000000248,-11.381455506523490584
0.405000000000000249,-11.292485150083004797
0.406000000000000250,-11.204159749026654680
0.407000000000000250,-11.116475215154851597
0.408000000000000251,-11.029427345160845775
0.409000000000000252,-10.943011831503302034
0.410000000000000253,-10.857224272847545876
0.411000000000000254,-10.772060184081729162
0.412000000000000255,-10.687515005914530519
0.413000000000000256,-10.603584114061533228
0.414000000000000257,-10.520262828027469482
0.415000000000000258,-10.437546419492292671
0.416000000000000258,-10.355430120308881214
0.417000000000000259,-10.273909130120706834
0.418000000000000260,-10.192978623607899635
0.419000000000000261,-10.112633757370332432
0.420000000000000262,-10.032869676456533270
0.421000000000000263,-9.953681520547394967
0.422000000000000264,-9.875064429803597221
0.423000000000000265,-9.797013550385907266
0.424000000000000266,-9.719524039657574832
0.425000000000000266,-9.642591071077898590
0.426000000000000267,-9.566209838796213560
0.427000000000000268,-9.490375561955538330
0.428000000000000269,-9.415083488714989457
0.429000000000000270,-9.340328900000168133
0.430000000000000271,-9.266107112990511041
0.431000000000000272,-9.192413484352737640
0.432000000000000273,-9.119243413229193962
0.433000000000000274,-9.046592343990058183
0.434000000000000274,-8.974455768758028640
0.435000000000000275,-8.902829229714203763
0.436000000000000276,-8.831708321193627143
0.437000000000000277,-8.761088691578780896
0.438000000000000278,-8.690966044999409945
0.439000000000000279,-8.621336142846622863
0.440000000000000280,-8.552194805109241571
0.441000000000000281,-8.483537911540182108
0.442000000000000282,-8.415361402660531454
0.443000000000000282,-8.347661280608589252
0.444000000000000283,-8.280433609841356457
0.445000000000000284,-8.213674517695482180
0.446000000000000285,-8.147380194814513032
0.447000000000000286,-8.081546895449427836
0.448000000000000287,-8.016170937638749550
0.449000000000000288,-7.951248703274896634
0.450000000000000289,-7.886776638062815259
0.451000000000000290,-7.822751251376995008
0.452000000000000290,-7.759169116022770041
0.453000000000000291,-7.696026867907515445
0.454000000000000292,-7.633321205627312978
0.455000000000000293,-7.571048889974361096
0.456000000000000294,-7.509206743370357984
0.457000000000000295,-7.447791649230753208
0.458000000000000296,-7.386800551264757431
0.459000000000000297,-7.326230452715725150
0.460000000000000298,-7.266078415546379787
0.461000000000000298,-7.206341559573187894
0.462000000000000299,-7.147017061554093331
0.463000000000000300,-7.088102154233493657
0.464000000000000301,-7.029594125348396005
0.465000000000000302,-6.971490316599401993
0.466000000000000303,-6.913788122590020180
0.467000000000000304,-6.856484989737698932
0.468000000000000305,-6.799578415159880151
0.469000000000000306,-6.743065945538060824
0.470000000000000306,-6.686945175962963894
0.471000000000000307,-6.631213748763447491
0.472000000000000308,-6.575869352322087025
0.473000000000000309,-6.520909719879767863
0.474000000000000310,-6.466332628331881160
0.475000000000000311,-6.412135897018330866
0.476000000000000312,-6.358317386509729552
0.477000000000000313,-6.304874997391596736
0.478000000000000314,-6.251806669048790788
0.479000000000000314,-6.199110378451915260
0.480000000000000315,-6.146784138947454679
0.481000000000000316,-6.094825999053373522
0.482000000000000317,-6.043234041261661638
0.483000000000000318,-5.992006380849351999
0.484000000000000319,-5.941141164699329735
0.485000000000000320,-5.890636570132311789
0.486000000000000321,-5.840490803751087867
0.487000000000000322,-5.790702100298231514
0.488000000000000322,-5.741268721528221874
0.489000000000000323,-5.692188955095089042
0.490000000000000324,-5.643461113456319289
0.491000000000000325,-5.595083532793938552
0.492000000000000326,-5.547054571953445645
0.493000000000000327,-5.499372611401382116
0.494000000000000328,-5.452036052202039684
0.495000000000000329,-5.405043315013996263
0.496000000000000330,-5.358392839106850047
0.497000000000000330,-5.312083081398728091
0.498000000000000331,-5.266112515514847381
0.499000000000000332,-5.220479630867600029
0.500000000000000333,-5.175182931758342875
0.501000000000000334,-5.130220936501207696
0.502000000000000335,-5.085592176569117662
0.503000000000000336,-5.041295195762234727
0.504000000000000337,-4.997328549398842412
0.505000000000000338,-4.953690803528880693
0.506000000000000338,-4.910380534170124989
0.507000000000000339,-4.867396326567018150
0.508000000000000340,-4.824736774472169643
0.509000000000000341,-4.782400479450505948
0.510000000000000342,-4.740386050205930957
0.511000000000000343,-4.698692101930452836
0.512000000000000344,-4.657317255675637924
0.513000000000000345,-4.616260137746246883
0.514000000000000346,-4.575519379115898566
0.515000000000000346,-4.535093614864537770
0.516000000000000347,-4.494981483637507935
0.517000000000000348,-4.455181627126078681
0.518000000000000349,-4.415692689569009843
0.519000000000000350,-4.376513317275105841
0.520000000000000351,-4.337642158166302941
0.521000000000000352,-4.299077861341120688
0.522000000000000353,-4.260819076658137305
0.523000000000000353,-4.222864454339118723
0.524000000000000354,-4.185212644591633335
0.525000000000000355,-4.147862297250632935
0.526000000000000356,-4.110812061438805287
0.527000000000000357,-4.074060585245303123
0.528000000000000358,-4.037606515422447195
0.529000000000000359,-4.001448497100140500
0.530000000000000360,-3.965585173517550910
0.531000000000000361,-3.930015185771735808
0.532000000000000361,-3.894737172582802831
0.533000000000000362,-3.859749770075264763
0.534000000000000363,-3.825051611575213339
0.535000000000000364,-3.790641327422866080
0.536000000000000365,-3.756517544800208608
0.537000000000000366,-3.722678887573273698
0.538000000000000367,-3.689123976148677375
0.539000000000000368,-3.655851427344113169
0.540000000000000369,-3.622859854272281410
0.541000000000000369,-3.590147866238029284
0.542000000000000370,-3.557714068648218930
0.543000000000000371,-3.525557062933954988
0.544000000000000372,-3.493675446484871827
0.545000000000000373,-3.462067812595031491
0.546000000000000374,-3.430732750420080635
0.547000000000000375,-3.399668844945325841
0.548000000000000376,-3.368874676964369375
0.549000000000000377,-3.338348823067921245
0.550000000000000377,-3.308089855642408317
0.551000000000000378,-3.278096342878130454
0.552000000000000379,-3.248366848786511607
0.553000000000000380,-3.218899933226161636
0.554000000000000381,-3.189694151937397582
0.555000000000000382,-3.160748056584921528
0.556000000000000383,-3.132060194808260256
0.557000000000000384,-3.103629110279735315
0.558000000000000385,-3.075453342769582044
0.559000000000000385,-3.047531428217941318
0.560000000000000386,-3.019861898813394063
0.561000000000000387,-2.992443283077776961
0.562000000000000388,-2.965274105956955175
0.563000000000000389,-2.938352888917272310
0.564000000000000390,-2.911678150047402269
0.565000000000000391,-2.885248404165325464
0.566000000000000392,-2.859062162930154916
0.567000000000000393,-2.833117934958568007
0.568000000000000393,-2.807414225945541908
0.569000000000000394,-2.781949538789191045
0.570000000000000395,-2.756722373719438846
0.571000000000000396,-2.731731228430259506
0.572000000000000397,-2.706974598215318384
0.573000000000000398,-2.682450976106693474
0.574000000000000399,-2.658158853016558965
0.575000000000000400,-2.634096717881509786
0.576000000000000401,-2.610263057809388165
0.577000000000000401,-2.586656358228398123
0.578000000000000402,-2.563275103038264113
0.579000000000000403,-2.540117774763281044
0.580000000000000404,-2.517182854707062489
0.581000000000000405,-2.494468823108793920
0.582000000000000406,-2.471974159300805773
0.583000000000000407,-2.449697341867306477
0.584000000000000408,-2.427636848804119563
0.585000000000000409,-2.405791157679224135
0.586000000000000409,-2.384158745793990786
0.587000000000000410,-2.362738090344924657
0.588000000000000411,-2.341527668585778432
0.589000000000000412,-2.320525957989914012
0.590000000000000413,-2.299731436412738805
0.591000000000000414,-2.279142582254112259
0.592000000000000415,-2.258757874620605399
0.593000000000000416,-2.238575793487439736
0.594000000000000417,-2.218594819860048695
0.595000000000000417,-2.198813435935128346
0.596000000000000418,-2.179230125261012230
0.597000000000000419,-2.159843372897387592
0.598000000000000420,-2.140651665574108797
0.599000000000000421,-2.121653491849134099
0.600000000000000422,-2.102847342265403707
0.601000000000000423,-2.084231709506645824
0.602000000000000424,-2.065805088551950330
0.603000000000000425,-2.047565976829097245
0.604000000000000425,-2.029512874366521835
0.605000000000000426,-2.011644283943850642
0.606000000000000427,-1.993958711240971571
0.607000000000000428,-1.976454664985484611
0.608000000000000429,-1.959130657098610673
