# graphene_BSAIV3
# h[nm],U(h)[kJ/mol]
0.149999999999999994,77.923679882962005649
0.150999999999999995,75.916033347536625797
0.151999999999999996,73.573478789454753723
0.152999999999999997,71.214213841656814452
0.153999999999999998,68.936499707535560333
0.154999999999999999,66.745639134335320364
0.156000000000000000,64.617679283735412810
0.157000000000000001,62.527805947673741116
0.158000000000000002,60.460178795030074639
0.159000000000000002,58.408901102728975729
0.160000000000000003,56.375472128263233174
0.161000000000000004,54.365466831056963315
0.162000000000000005,52.385684347467609712
0.163000000000000006,50.442183344773816600
0.164000000000000007,48.539207800832805617
0.165000000000000008,46.678828576971000075
0.166000000000000009,44.861077254451416252
0.167000000000000010,43.084364322589010499
0.168000000000000010,41.346016247701527391
0.169000000000000011,39.642814485093040844
0.170000000000000012,37.971463733416229047
0.171000000000000013,36.328952365520876810
0.172000000000000014,34.712794082958680519
0.173000000000000015,33.121157239788487914
0.174000000000000016,31.552898509233529012
0.175000000000000017,30.007522343915052687
0.176000000000000018,28.485088608674736577
0.177000000000000018,26.986089196251963784
0.178000000000000019,25.511311433785614611
0.179000000000000020,24.061702439637109308
0.180000000000000021,22.638244843155199248
0.181000000000000022,21.241850787845958592
0.182000000000000023,19.873278104240153397
0.183000000000000024,18.533070056032858730
0.184000000000000025,17.221518149058510971
0.185000000000000026,15.938646115135153281
0.186000000000000026,14.684212280459288280
0.187000000000000027,13.457727025594360626
0.188000000000000028,12.258481861949789504
0.189000000000000029,11.085586711884408473
0.190000000000000030,9.938012217332840237
0.191000000000000031,8.814634255728217127
0.192000000000000032,7.714278262767678029
0.193000000000000033,6.635761410070867505
0.194000000000000034,5.577931132153156391
0.195000000000000034,4.539698919721796955
0.196000000000000035,3.520068680460216370
0.197000000000000036,2.518159305300432305
0.198000000000000037,1.533221363385828484
0.199000000000000038,0.564648081700275251
0.200000000000000039,-0.388019052527351471
0.201000000000000040,-1.325089593460613724
0.202000000000000041,-2.246727776403500076
0.203000000000000042,-3.152959873936727497
0.204000000000000042,-4.043684622288011177
0.205000000000000043,-4.918686073166897543
0.206000000000000044,-5.777648248240475404
0.207000000000000045,-6.620171011085997925
0.208000000000000046,-7.445786620497839792
0.209000000000000047,-8.253976485660498241
0.210000000000000048,-9.044187704698487096
0.211000000000000049,-9.815849030790250396
0.212000000000000050,-10.568385972216100654
0.213000000000000050,-11.301234792686821962
0.214000000000000051,-12.013855234789163617
0.215000000000000052,-12.705741841460557850
0.216000000000000053,-13.376433797464056141
0.217000000000000054,-14.025523254532435757
0.218000000000000055,-14.652662140062602703
0.219000000000000056,-15.257567480014463612
0.220000000000000057,-15.840025292191418416
0.221000000000000058,-16.399893126629589091
0.222000000000000058,-16.937101345769143279
0.223000000000000059,-17.451653248818566055
0.224000000000000060,-17.943624152692471796
0.225000000000000061,-18.413159546545152523
0.226000000000000062,-18.860472438676126217
0.227000000000000063,-19.285840013878988941
0.228000000000000064,-19.689599716543558117
0.229000000000000065,-20.072144870386591009
0.230000000000000066,-20.433919939920986764
0.231000000000000066,-20.775415531998877583
0.232000000000000067,-21.097163228256832213
0.233000000000000068,-21.399730331303903341
0.234000000000000069,-21.683714599239120702
0.235000000000000070,-21.949739034749860878
0.236000000000000071,-22.198446786780344553
0.237000000000000072,-22.430496214701115321
0.238000000000000073,-22.646556157156492617
0.239000000000000073,-22.847301440399007788
0.240000000000000074,-23.033408654002307969
0.241000000000000075,-23.205552215414833483
0.242000000000000076,-23.364400738908692290
0.243000000000000077,-23.510613719104561881
0.244000000000000078,-23.644838534418251896
0.245000000000000079,-23.767707771472586842
0.246000000000000080,-23.879836867736219830
0.247000000000000081,-23.981822066370948932
0.248000000000000081,-24.074238674465167520
0.249000000000000082,-24.157639613477631002
0.250000000000000111,-24.232554248782435025
0.251000000000000112,-24.299487483660339393
0.252000000000000113,-24.358919101893505399
0.253000000000000114,-24.411303342253440007
0.254000000000000115,-24.457068687599040402
0.255000000000000115,-24.496617850985256126
0.256000000000000116,-24.530327941098054367
0.257000000000000117,-24.558550789445376950
0.258000000000000118,-24.581613422020730297
0.259000000000000119,-24.599818658590173470
0.260000000000000120,-24.613445823310648564
0.261000000000000121,-24.622751551044956386
0.262000000000000122,-24.627970674477815294
0.263000000000000123,-24.629317177937867456
0.264000000000000123,-24.626985204677719565
0.265000000000000124,-24.621150105241330408
0.266000000000000125,-24.611969515444332757
0.267000000000000126,-24.599584453394371053
0.268000000000000127,-24.584120425877646454
0.269000000000000128,-24.565688535323616293
0.270000000000000129,-24.544386579427005302
0.271000000000000130,-24.520300136347252362
0.272000000000000131,-24.493503629216064610
0.273000000000000131,-24.464061364459684711
0.274000000000000132,-24.432028539180187465
0.275000000000000133,-24.397452213538461052
0.276000000000000134,-24.360372244737323655
0.277000000000000135,-24.320822179816442343
0.278000000000000136,-24.278830105041407705
0.279000000000000137,-24.234419450195680668
0.280000000000000138,-24.187609746569076918
0.281000000000000139,-24.138417337878440350
0.282000000000000139,-24.086856043758007928
0.283000000000000140,-24.032937775819231518
0.284000000000000141,-23.976673106603961116
0.285000000000000142,-23.918071792043047452
0.286000000000000143,-23.857143248286082127
0.287000000000000144,-23.793896983988695126
0.288000000000000145,-23.728342989335061475
0.289000000000000146,-23.660492083233936711
0.290000000000000147,-23.590356220262702180
0.291000000000000147,-23.517948759043370899
0.292000000000000148,-23.443284693822548093
0.293000000000000149,-23.366380851093680349
0.294000000000000150,-23.287256053147242341
0.295000000000000151,-23.205931250464818305
0.296000000000000152,-23.122429624887082866
0.297000000000000153,-23.036776665486293325
0.298000000000000154,-22.949000219061304051
0.299000000000000155,-22.859130517150070716
0.300000000000000155,-22.767200181421287652
0.301000000000000156,-22.673244209265210003
0.302000000000000157,-22.577299941355143176
0.303000000000000158,-22.479407012895638474
0.304000000000000159,-22.379607290213765936
0.305000000000000160,-22.277944794284906038
0.306000000000000161,-22.174465612717305874
0.307000000000000162,-22.069217801649106292
0.308000000000000163,-21.962251278939433519
0.309000000000000163,-21.853617709962055216
0.310000000000000164,-21.743370387236033991
0.311000000000000165,-21.631564105054032154
0.312000000000000166,-21.518255030195110322
0.313000000000000167,-21.403500569736465309
0.314000000000000168,-21.287359236906549853
0.315000000000000169,-21.169890515852024748
0.316000000000000170,-21.051154726122756955
0.317000000000000171,-20.931212887612453244
0.318000000000000171,-20.810126586627980316
0.319000000000000172,-20.687957843699162908
0.320000000000000173,-20.564768983680487224
0.321000000000000174,-20.440622508639599175
0.322000000000000175,-20.315580973973005996
0.323000000000000176,-20.189706868137452744
0.324000000000000177,-20.063062496336527829
0.325000000000000178,-19.935709868455372629
0.326000000000000179,-19.807710591493048469
0.327000000000000179,-19.679125766700405364
0.328000000000000180,-19.550015891593275796
0.329000000000000181,-19.420440766974774505
0.330000000000000182,-19.290459409066659902
0.331000000000000183,-19.160129966819297920
0.332000000000000184,-19.029509644440675942
0.333000000000000185,-18.898654629158563978
0.334000000000000186,-18.767620024206145501
0.335000000000000187,-18.636459786998766930
0.336000000000000187,-18.505226672450135084
0.337000000000000188,-18.373972181357419942
0.338000000000000189,-18.242746513769272809
0.339000000000000190,-18.111598527235635459
0.340000000000000191,-17.980575699825607217
0.341000000000000192,-17.849724097788623567
0.342000000000000193,-17.719088347723751298
0.343000000000000194,-17.588711613114348609
0.344000000000000195,-17.458635575077352087
0.345000000000000195,-17.328900417171315240
0.346000000000000196,-17.199544814102011969
0.347000000000000197,-17.070605924161050382
0.348000000000000198,-16.942119385230018480
0.349000000000000199,-16.814119314180921094
0.350000000000000200,-16.686638309502733080
0.351000000000000201,-16.559707456983424834
0.352000000000000202,-16.433356338277597786
0.353000000000000203,-16.307613042190560293
0.354000000000000203,-16.182504178511745607
0.355000000000000204,-16.058054894232121512
0.356000000000000205,-15.934288891983186431
0.357000000000000206,-15.811228450538113321
0.358000000000000207,-15.688894447218810768
0.359000000000000208,-15.567306382056685266
0.360000000000000209,-15.446482403558709606
0.361000000000000210,-15.326439335934690433
0.362000000000000210,-15.207192707645964092
0.363000000000000211,-15.088756781140551411
0.364000000000000212,-14.971144583644422354
0.365000000000000213,-14.854367938883203948
0.366000000000000214,-14.738437499614011728
0.367000000000000215,-14.623362780851456577
0.368000000000000216,-14.509152193677584464
0.369000000000000217,-14.395813079529791167
0.370000000000000218,-14.283351744866374489
0.371000000000000218,-14.171773496113919677
0.372000000000000219,-14.061082674805863491
0.373000000000000220,-13.951282692826421084
0.374000000000000221,-13.842376067678838325
0.375000000000000222,-13.734364457701545348
0.376000000000000223,-13.627248697160647239
0.377000000000000224,-13.521028831151491900
0.378000000000000225,-13.415704150246568815
0.379000000000000226,-13.311273224831273509
0.380000000000000226,-13.207733939073330376
0.381000000000000227,-13.105083524475464429
0.382000000000000228,-13.003318592965275258
0.383000000000000229,-12.902435169479611332
0.384000000000000230,-12.802428724004659699
0.385000000000000231,-12.703294203036485044
0.386000000000000232,-12.605026060430031265
0.387000000000000233,-12.507618287607915164
0.388000000000000234,-12.411064443103411392
0.389000000000000234,-12.315357681415237678
0.390000000000000235,-12.220490781154037307
0.391000000000000236,-12.126456172463946359
0.392000000000000237,-12.033245963704413128
0.393000000000000238,-11.940851967380602616
0.394000000000000239,-11.849265725312355002
0.395000000000000240,-11.758478533034551816
0.396000000000000241,-11.668481463423182376
0.397000000000000242,-11.579265389543802911
0.398000000000000242,-11.490821006720750574
0.399000000000000243,-11.403138853827133659
0.400000000000000244,-11.316209333797313974
0.401000000000000245,-11.230022733365185417
0.402000000000000246,-11.144569242032792644
0.403000000000000247,-11.059838970275132297
0.404000000000000248,-10.975821966988437595
0.405000000000000249,-10.892508236190057147
0.406000000000000250,-10.809887752979248532
0.407000000000000250,-10.727950478769070486
0.408000000000000251,-10.646686375800429758
0.409000000000000252,-10.566085420950246387
0.410000000000000253,-10.486137618846074204
0.411000000000000254,-10.406833014300584495
0.412000000000000255,-10.328161704079521499
0.413000000000000256,-10.250113848017456064
0.414000000000000257,-10.172679679495994165
0.415000000000000258,-10.095849515299516241
0.416000000000000258,-10.019613764863873229
0.417000000000000259,-9.943962938933662343
0.418000000000000260,-9.868887657644041411
0.419000000000000261,-9.794378658043033425
0.420000000000000262,-9.720426801070647826
0.421000000000000263,-9.647023078011091712
0.422000000000000264,-9.574158616434266023
0.423000000000000265,-9.501824685643075696
0.424000000000000266,-9.430012701642819906
0.425000000000000266,-9.358714231648971094
0.426000000000000267,-9.287920998149466811
0.427000000000000268,-9.217624882537730713
0.428000000000000269,-9.147817928332319326
0.429000000000000270,-9.078492343999016612
0.430000000000000271,-9.009640505391015353
0.431000000000000272,-8.941254957822621918
0.432000000000000273,-8.873328417791698897
0.433000000000000274,-8.805853774365861142
0.434000000000000274,-8.738824090247117482
0.435000000000000275,-8.672232602529510004
0.436000000000000276,-8.606072723163963545
0.437000000000000277,-8.540338039144154791
0.438000000000000278,-8.475022312427249460
0.439000000000000279,-8.410119479602723658
0.440000000000000280,-8.345623651322290115
0.441000000000000281,-8.281529111503751039
0.442000000000000282,-8.217830316321164119
0.443000000000000282,-8.154521892993336962
0.444000000000000283,-8.091598638382562214
0.445000000000000284,-8.029055517414926513
0.446000000000000285,-7.966887661333309723
0.447000000000000286,-7.905090365794050555
0.448000000000000287,-7.843659088817441116
0.449000000000000288,-7.782589448602506010
0.450000000000000289,-7.721877221215654785
0.451000000000000290,-7.661518338162823127
0.452000000000000290,-7.601508883854249277
0.453000000000000291,-7.541845092970710596
0.454000000000000292,-7.482523347739830299
0.455000000000000293,-7.423540175130606933
0.456000000000000294,-7.364892243974152208
0.457000000000000295,-7.306576362018248005
0.458000000000000296,-7.248589472922985166
0.459000000000000297,-7.190928653204653465
0.460000000000000298,-7.133591109134454378
0.461000000000000298,-7.076574173598631390
0.462000000000000299,-7.019875302926157801
0.463000000000000300,-6.963492073689836914
0.464000000000000301,-6.907422179486559344
0.465000000000000302,-6.851663427702050058
0.466000000000000303,-6.796213736265222849
0.467000000000000304,-6.741071130397047639
0.468000000000000305,-6.686233739358586448
0.469000000000000306,-6.631699793202562532
0.470000000000000306,-6.577467619532723297
0.471000000000000307,-6.523535640274784164
0.472000000000000308,-6.469902368462946640
0.473000000000000309,-6.416566405045240451
0.474000000000000310,-6.363526435711229112
0.475000000000000311,-6.310781227745049904
0.476000000000000312,-6.258329626906890653
0.477000000000000313,-6.206170554345428414
0.478000000000000314,-6.154303003543997619
0.479000000000000314,-6.102726037302781847
0.480000000000000315,-6.051438784759247014
0.481000000000000316,-6.000440438448952918
0.482000000000000317,-5.949730251408558601
0.483000000000000318,-5.899307534322858260
0.484000000000000319,-5.849171652717354064
0.485000000000000320,-5.799322024198012571
0.486000000000000321,-5.749758115739345143
0.487000000000000322,-5.700479441022156202
0.488000000000000322,-5.651485557821954941
0.489000000000000323,-5.602776065449104337
0.490000000000000324,-5.554350602241442836
0.491000000000000325,-5.506208843110224294
0.492000000000000326,-5.458350497139894841
0.493000000000000327,-5.410775305242408351
0.494000000000000328,-5.363483037866362046
0.495000000000000329,-5.316473492761444319
0.496000000000000330,-5.269746492798347504
0.497000000000000330,-5.223301883844427174
0.498000000000000331,-5.177139532695141710
0.499000000000000332,-5.131259325061371612
0.500000000000000333,-5.085661163612529734
0.501000000000000334,-5.040344966075386068
0.502000000000000335,-4.995310663388417893
0.503000000000000336,-4.950558197911524516
0.504000000000000337,-4.906087521690724707
0.505000000000000338,-4.861898594777582794
0.506000000000000338,-4.817991383602966415
0.507000000000000339,-4.774365859404644752
0.508000000000000340,-4.731021996708338229
0.509000000000000341,-4.687959771861665459
0.510000000000000342,-4.645179161620415442
0.511000000000000343,-4.602680141786577472
0.512000000000000344,-4.560462685897503476
0.513000000000000345,-4.518526763965557080
0.514000000000000346,-4.476872341267549515
0.515000000000000346,-4.435499377183292680
0.516000000000000347,-4.394407824082451341
0.517000000000000348,-4.353597626259113618
0.518000000000000349,-4.313068718913060096
0.519000000000000350,-4.272821027177203135
0.520000000000000351,-4.232854465190200699
0.521000000000000352,-4.193168935213520854
0.522000000000000353,-4.153764326792090955
0.523000000000000353,-4.114640515957673550
0.524000000000000354,-4.075797364474201601
0.525000000000000355,-4.037234719124077387
0.526000000000000356,-3.998952411034681464
0.527000000000000357,-3.960950255044217272
0.528000000000000358,-3.923228049105888626
0.529000000000000359,-3.885785573729722664
0.530000000000000360,-3.848622591460999498
0.531000000000000361,-3.811738846394509217
0.532000000000000361,-3.775134063723694311
0.533000000000000362,-3.738807949323843083
0.534000000000000363,-3.702760189368442756
0.535000000000000364,-3.666990449977812538
0.536000000000000365,-3.631498376899172431
0.537000000000000366,-3.596283595217262707
0.538000000000000367,-3.561345709094660528
0.539000000000000368,-3.526684301540994770
0.540000000000000369,-3.492298934210098516
0.541000000000000369,-3.458189147224414395
0.542000000000000370,-3.424354459025712227
0.543000000000000371,-3.390794366251325354
0.544000000000000372,-3.357508343635154269
0.545000000000000373,-3.324495843932562256
0.546000000000000374,-3.291756297868407621
0.547000000000000375,-3.259289114107423391
0.548000000000000376,-3.227093679246224589
0.549000000000000377,-3.195169357826113110
0.550000000000000377,-3.163515492365946979
0.551000000000000378,-3.132131403414405213
0.552000000000000379,-3.101016389620851577
0.553000000000000380,-3.070169727824120898
0.554000000000000381,-3.039590673158512946
0.555000000000000382,-3.009278459176354836
0.556000000000000383,-2.979232297986357025
0.557000000000000384,-2.949451380407240642
0.558000000000000385,-2.919934876135854562
0.559000000000000385,-2.890681933929244440
0.560000000000000386,-2.861691681799984011
0.561000000000000387,-2.832963227224214009
0.562000000000000388,-2.804495657361753214
0.563000000000000389,-2.776288039287703846
0.564000000000000390,-2.748339420234998887
0.565000000000000391,-2.720648827847307327
0.566000000000000392,-2.693215270441781772
0.567000000000000393,-2.666037737281089726
0.568000000000000393,-2.639115198854212530
0.569000000000000394,-2.612446607165519019
0.570000000000000395,-2.586030896031622284
0.571000000000000396,-2.559866981385493290
0.572000000000000397,-2.533953761587436571
0.573000000000000398,-2.508290117742390191
0.574000000000000399,-2.482874914023182722
0.575000000000000400,-2.457706997999234755
0.576000000000000401,-2.432785200970352779
0.577000000000000401,-2.408108338305178897
0.578000000000000402,-2.383675209783883364
0.579000000000000403,-2.359484599944726035
0.580000000000000404,-2.335535278434138107
0.581000000000000405,-2.311826000359927136
0.582000000000000406,-2.288355506647248738
0.583000000000000407,-2.265122524397039427
0.584000000000000408,-2.242125767246553991
0.585000000000000409,-2.219363935731691662
0.586000000000000409,-2.196835717650794884
0.587000000000000410,-2.174539788429652898
0.588000000000000411,-2.152474811487375739
0.589000000000000412,-2.130639438602895730
0.590000000000000413,-2.109032310281804268
0.591000000000000414,-2.087652056123280087
0.592000000000000415,-2.066497295186856320
0.593000000000000416,-2.045566636358767454
0.594000000000000417,-2.024858678717658123
0.595000000000000417,-2.004372011899462791
0.596000000000000418,-1.984105216461145016
0.597000000000000419,-1.964056864243226341
0.598000000000000420,-1.944225518730774427
0.599000000000000421,-1.924609735412760259
0.600000000000000422,-1.905208062139537972
0.601000000000000423,-1.886019039478322057
0.602000000000000424,-1.867041201066445666
0.603000000000000425,-1.848273073962294122
0.604000000000000425,-1.829713178993712219
0.605000000000000426,-1.811360031103778301
0.606000000000000427,-1.793212139693804774
0.607000000000000428,-1.775268008963377442
0.608000000000000429,-1.757526138247420544
