# graphene_GLUP-AC
# h[nm],U(h)[kJ/mol]
0.149999999999999994,123.494973466288271879
0.150999999999999995,119.893073690462074410
0.151999999999999996,116.881556049308457546
0.152999999999999997,114.036495816318080188
0.153999999999999998,111.194338490369020178
0.154999999999999999,108.318931283479059857
0.156000000000000000,105.427252284707577701
0.157000000000000001,102.550724356293954997
0.158000000000000002,99.717323005981029382
0.159000000000000002,96.945215148319917375
0.160000000000000003,94.242287658786551674
0.161000000000000004,91.608258670042886251
0.162000000000000005,89.037537361813662073
0.163000000000000006,86.521902220270433759
0.164000000000000007,84.052602462966618191
0.165000000000000008,81.621786626815733712
0.166000000000000009,79.223315450390785486
0.167000000000000010,76.853081701334843956
0.168000000000000010,74.508975227365041860
0.169000000000000011,72.190620982907631742
0.170000000000000012,69.898995573833133221
0.171000000000000013,67.636002399801370188
0.172000000000000014,65.404061329880022413
0.173000000000000015,63.205748199346679428
0.174000000000000016,61.043503009855307084
0.175000000000000017,58.919413491257465409
0.176000000000000018,56.835072170409588921
0.177000000000000018,54.791499650952161460
0.178000000000000019,52.789123772173596194
0.179000000000000020,50.827803068432046985
0.180000000000000021,48.906882962980681384
0.181000000000000022,47.025273968636163602
0.182000000000000023,45.181542494663275988
0.183000000000000024,43.374006421644644149
0.184000000000000025,41.600829223149915492
0.185000000000000026,39.860107962427377970
0.186000000000000026,38.149951897634707620
0.187000000000000027,36.468549648442746047
0.188000000000000028,34.814223893506081708
0.189000000000000029,33.185473383155986937
0.190000000000000030,31.581002677100467935
0.191000000000000031,29.999740472192776508
0.192000000000000032,28.440847693245775218
0.193000000000000033,26.903716704288001438
0.194000000000000034,25.387963081871387061
0.195000000000000034,23.893411397681784791
0.196000000000000035,22.420076404145913074
0.197000000000000036,20.968140920781316083
0.198000000000000037,19.537931594881179365
0.199000000000000038,18.129893569418889854
0.200000000000000039,16.744564943106269084
0.201000000000000040,15.382551759555543214
0.202000000000000041,14.044504119865148795
0.203000000000000042,12.731093879506385491
0.204000000000000042,11.442994268670080515
0.205000000000000043,10.180861666741211735
0.206000000000000044,8.945319666961035310
0.207000000000000045,7.736945486645342207
0.208000000000000046,6.556258711097385117
0.209000000000000047,5.403712304799121569
0.210000000000000048,4.279685780567564990
0.211000000000000049,3.184480384975644007
0.212000000000000050,2.118316135239749265
0.213000000000000050,1.081330527752919934
0.214000000000000051,0.073578730294748415
0.215000000000000052,-0.904964932446721826
0.216000000000000053,-1.854404388099212708
0.217000000000000054,-2.774918302578901486
0.218000000000000055,-3.666755815861512779
0.219000000000000056,-4.530231689502301151
0.220000000000000057,-5.365721015266268878
0.221000000000000058,-6.173653620696152089
0.222000000000000058,-6.954508293448509626
0.223000000000000059,-7.708806932138136503
0.224000000000000060,-8.437108717569406835
0.225000000000000061,-9.140004384839610196
0.226000000000000062,-9.818110664061741488
0.227000000000000063,-10.472064945509993450
0.228000000000000064,-11.102520213931663662
0.229000000000000065,-11.710140286655397190
0.230000000000000066,-12.295595380978834754
0.231000000000000066,-12.859558028147958453
0.232000000000000067,-13.402699344022096284
0.233000000000000068,-13.925685660224939255
0.234000000000000069,-14.429175514165184069
0.235000000000000070,-14.913816991720096894
0.236000000000000071,-15.380245412550305417
0.237000000000000072,-15.829081344896371419
0.238000000000000073,-16.260928934229195164
0.239000000000000073,-16.676374528225725413
0.240000000000000074,-17.075985579158192706
0.241000000000000075,-17.460309803854357824
0.242000000000000076,-17.829874580854074395
0.243000000000000077,-18.185186564199412373
0.244000000000000078,-18.526731493399214656
0.245000000000000079,-18.854974179459610184
0.246000000000000080,-19.170358647425754128
0.247000000000000081,-19.473308416600076498
0.248000000000000081,-19.764226900451102864
0.249000000000000082,-20.043497909176004157
0.250000000000000111,-20.311486238901157009
0.251000000000000112,-20.568538332573364613
0.252000000000000113,-20.814982998691867522
0.253000000000000114,-21.051132175135105484
0.254000000000000115,-21.277281726438523890
0.255000000000000115,-21.493712263959626085
0.256000000000000116,-21.700689979421106557
0.257000000000000117,-21.898467483338706074
0.258000000000000118,-22.087284640812566039
0.259000000000000119,-22.267369398085325116
0.260000000000000120,-22.438938594141848881
0.261000000000000121,-22.602198752441957197
0.262000000000000122,-22.757346848638835723
0.263000000000000123,-22.904571050839631852
0.264000000000000123,-23.044051429613013227
0.265000000000000124,-23.175960635540423738
0.266000000000000125,-23.300464542646746935
0.267000000000000126,-23.417722856531462128
0.268000000000000127,-23.527889686458156149
0.269000000000000128,-23.631114081047762454
0.270000000000000129,-23.727540527564414674
0.271000000000000130,-23.817309415083265378
0.272000000000000131,-23.900557462090361582
0.273000000000000131,-23.977418109288564096
0.274000000000000132,-24.048021878573070609
0.275000000000000133,-24.112496699298279879
0.276000000000000134,-24.170968203087294768
0.277000000000000135,-24.223559988537900267
0.278000000000000136,-24.270393857258902415
0.279000000000000137,-24.311590022728168492
0.280000000000000138,-24.347267293502795837
0.281000000000000139,-24.377543232333483303
0.282000000000000139,-24.402534292742071642
0.283000000000000140,-24.422355934614856210
0.284000000000000141,-24.437122720346195592
0.285000000000000142,-24.446948393039640735
0.286000000000000143,-24.451945938237482636
0.287000000000000144,-24.452227630606433451
0.288000000000000145,-24.447905066958956155
0.289000000000000146,-24.439089186935156306
0.290000000000000147,-24.425890282614073357
0.291000000000000147,-24.408417998262194715
0.292000000000000148,-24.386781321366129305
0.293000000000000149,-24.361088566032321978
0.294000000000000150,-24.331447349773476674
0.295000000000000151,-24.297964564637592133
0.296000000000000152,-24.260746343571888417
0.297000000000000153,-24.219898022851776176
0.298000000000000154,-24.175524101343665251
0.299000000000000155,-24.127728197310737812
0.300000000000000155,-24.076613003413040559
0.301000000000000156,-24.022280240497131842
0.302000000000000157,-23.964830610717079651
0.303000000000000158,-23.904363750476857575
0.304000000000000159,-23.840978183635392895
0.305000000000000160,-23.774771275368621559
0.306000000000000161,-23.705839187038915128
0.307000000000000162,-23.634276832380695765
0.308000000000000163,-23.560177835271446156
0.309000000000000163,-23.483634489321200789
0.310000000000000164,-23.404737719478937663
0.311000000000000165,-23.323577045822379006
0.312000000000000166,-23.240240549668520487
0.313000000000000167,-23.154814842114397777
0.314000000000000168,-23.067385035092755174
0.315000000000000169,-22.978034715004064026
0.316000000000000170,-22.886845918965452285
0.317000000000000171,-22.793899113697666081
0.318000000000000171,-22.699273177054070771
0.319000000000000172,-22.603045382180091849
0.320000000000000173,-22.505291384277416711
0.321000000000000174,-22.406085209934740732
0.322000000000000175,-22.305499248976211391
0.323000000000000176,-22.203604248768691320
0.324000000000000177,-22.100469310920924926
0.325000000000000178,-21.996161890300051311
0.326000000000000179,-21.890747796285509708
0.327000000000000179,-21.784291196174613958
0.328000000000000180,-21.676854620650196637
0.329000000000000181,-21.568498971217884730
0.330000000000000182,-21.459283529516980593
0.331000000000000183,-21.349265968408630556
0.332000000000000184,-21.238502364742437578
0.333000000000000185,-21.127047213703153972
0.334000000000000186,-21.014953444638742042
0.335000000000000187,-20.902272438271399579
0.336000000000000187,-20.789054045194639286
0.337000000000000188,-20.675346605560200430
0.338000000000000189,-20.561196969860805694
0.339000000000000190,-20.446650520716296739
0.340000000000000191,-20.331751195573012581
0.341000000000000192,-20.216541510229106393
0.342000000000000193,-20.101062583100244296
0.343000000000000194,-19.985354160144023439
0.344000000000000195,-19.869454640363152009
0.345000000000000195,-19.753401101811611795
0.346000000000000196,-19.637229328030056053
0.347000000000000197,-19.520973834840692263
0.348000000000000198,-19.404667897434340063
0.349000000000000199,-19.288343577686131169
0.350000000000000200,-19.172031751639128316
0.351000000000000201,-19.055762137098462006
0.352000000000000202,-18.939563321281649877
0.353000000000000203,-18.823462788474017771
0.354000000000000203,-18.707486947640997954
0.355000000000000204,-18.591661159952217020
0.356000000000000205,-18.476009766175142346
0.357000000000000206,-18.360556113899118458
0.358000000000000207,-18.245322584552944534
0.359000000000000208,-18.130330620182423473
0.360000000000000209,-18.015600749956576010
0.361000000000000210,-17.901152616373781967
0.362000000000000210,-17.787005001141544369
0.363000000000000211,-17.673175850706130063
0.364000000000000212,-17.559682301410241223
0.365000000000000213,-17.446540704259270171
0.366000000000000214,-17.333766649278764760
0.367000000000000215,-17.221374989447362225
0.368000000000000216,-17.109379864191943454
0.369000000000000217,-16.997794722432757908
0.370000000000000218,-16.886632345168749225
0.371000000000000218,-16.775904867594185532
0.372000000000000219,-16.665623800739702176
0.373000000000000220,-16.555800052632157815
0.374000000000000221,-16.446443948968905602
0.375000000000000222,-16.337565253303445445
0.376000000000000223,-16.229173186740641910
0.377000000000000224,-16.121276447140679977
0.378000000000000225,-16.013883227832046430
0.379000000000000226,-15.907001235834632880
0.380000000000000226,-15.800637709595264369
0.381000000000000227,-15.694799436238213275
0.382000000000000228,-15.589492768334661577
0.383000000000000229,-15.484723640195332095
0.384000000000000230,-15.380497583691033370
0.385000000000000231,-15.276819743607125801
0.386000000000000232,-15.173694892537517021
0.387000000000000233,-15.071127445325014804
0.388000000000000234,-14.969121473054746829
0.389000000000000234,-14.867680716608330016
0.390000000000000235,-14.766808599786035217
0.391000000000000236,-14.666508242005289020
0.392000000000000237,-14.566782470583451214
0.393000000000000238,-14.467633832613525868
0.394000000000000239,-14.369064606441204646
0.395000000000000240,-14.271076812752202301
0.396000000000000241,-14.173672225278703962
0.397000000000000242,-14.076852381133866388
0.398000000000000242,-13.980618590783560506
0.399000000000000243,-13.884971947664306313
0.400000000000000244,-13.789913337456601639
0.401000000000000245,-13.695443447022810801
0.402000000000000246,-13.601562773018613939
0.403000000000000247,-13.508271630187135059
0.404000000000000248,-13.415570159344763823
0.405000000000000249,-13.323458335067632774
0.406000000000000250,-13.231935973087541214
0.407000000000000250,-13.141002737406159540
0.408000000000000251,-13.050658147136095621
0.409000000000000252,-12.960901583077506061
0.410000000000000253,-12.871732294038448430
0.411000000000000254,-12.783149402907469039
0.412000000000000255,-12.695151912486405621
0.413000000000000256,-12.607738711091514006
0.414000000000000257,-12.520908577930615735
0.415000000000000258,-12.434660188264100356
0.416000000000000258,-12.348992118357154268
0.417000000000000259,-12.263902850230646635
0.418000000000000260,-12.179390776217839942
0.419000000000000261,-12.095454203333856569
0.420000000000000262,-12.012091357464850461
0.421000000000000263,-11.929300387383497295
0.422000000000000264,-11.847079368597182025
0.423000000000000265,-11.765426307035351527
0.424000000000000266,-11.684339142582121696
0.425000000000000266,-11.603815752460002741
0.426000000000000267,-11.523853954470649086
0.427000000000000268,-11.444451510098193836
0.428000000000000269,-11.365606127480608833
0.429000000000000270,-11.287315464254396247
0.430000000000000271,-11.209577130277677881
0.431000000000000272,-11.132388690236656004
0.432000000000000273,-11.055747666140216978
0.433000000000000274,-10.979651539707347752
0.434000000000000274,-10.904097754651711938
0.435000000000000275,-10.829083718867831720
0.436000000000000276,-10.754606806522996720
0.437000000000000277,-10.680664360058813145
0.438000000000000278,-10.607253692106441534
0.439000000000000279,-10.534372087319109568
0.440000000000000280,-10.462016804125536140
0.441000000000000281,-10.390185076407735920
0.442000000000000282,-10.318874115106524414
0.443000000000000282,-10.248081109757873008
0.444000000000000283,-10.177803229963279463
0.445000000000000284,-10.108037626797013786
0.446000000000000285,-10.038781434153067451
0.447000000000000286,-9.970031770034681884
0.448000000000000287,-9.901785737788788566
0.449000000000000288,-9.834040427288165631
0.450000000000000289,-9.766792916063455010
0.451000000000000290,-9.700040270387473740
0.452000000000000290,-9.633779546313984810
0.453000000000000291,-9.568007790673025426
0.454000000000000292,-9.502722042024783988
0.455000000000000293,-9.437919331573988657
0.456000000000000294,-9.373596684046599847
0.457000000000000295,-9.309751118530630976
0.458000000000000296,-9.246379649282655322
0.459000000000000297,-9.183479286501754046
0.460000000000000298,-9.121047037072283814
0.461000000000000298,-9.059079905277005906
0.462000000000000299,-8.997574893481976588
0.463000000000000300,-8.936529002794410204
0.464000000000000301,-8.875939233694905894
0.465000000000000302,-8.815802586645201444
0.466000000000000303,-8.756116062672486322
0.467000000000000304,-8.696876663931508489
0.468000000000000305,-8.638081394245451961
0.469000000000000306,-8.579727259626476865
0.470000000000000306,-8.521811268777046422
0.471000000000000307,-8.464330433572671453
0.472000000000000308,-8.407281769527184423
0.473000000000000309,-8.350662296241100790
0.474000000000000310,-8.294469037833980707
0.475000000000000311,-8.238699023361387930
0.476000000000000312,-8.183349287217307477
0.477000000000000313,-8.128416869522400390
0.478000000000000314,-8.073898816498930486
0.479000000000000314,-8.019792180832865824
0.480000000000000315,-7.966094022023620269
0.481000000000000316,-7.912801406722091535
0.482000000000000317,-7.859911409057390941
0.483000000000000318,-7.807421110952719623
0.484000000000000319,-7.755327602430876155
0.485000000000000320,-7.703627981909798805
0.486000000000000321,-7.652319356488490598
0.487000000000000322,-7.601398842223753505
0.488000000000000322,-7.550863564397987560
0.489000000000000323,-7.500710657778498103
0.490000000000000324,-7.450937266868537634
0.491000000000000325,-7.401540546150407351
0.492000000000000326,-7.352517660320847526
0.493000000000000327,-7.303865784519056881
0.494000000000000328,-7.255582104547499966
0.495000000000000329,-7.207663817085800062
0.496000000000000330,-7.160108129897873042
0.497000000000000330,-7.112912262032581978
0.498000000000000331,-7.066073444018004857
0.499000000000000332,-7.019588918049618265
0.500000000000000333,-6.973455938172459234
0.501000000000000334,-6.927671770457493494
0.502000000000000335,-6.882233693172291389
0.503000000000000336,-6.837138996946258374
0.504000000000000337,-6.792384984930403213
0.505000000000000338,-6.747968972951909450
0.506000000000000338,-6.703888289663542999
0.507000000000000339,-6.660140276688086836
0.508000000000000340,-6.616722288757796555
0.509000000000000341,-6.573631693849163682
0.510000000000000342,-6.530865873312860614
0.511000000000000343,-6.488422221999168293
0.512000000000000344,-6.446298148378811099
0.513000000000000345,-6.404491074659389938
0.514000000000000346,-6.362998436897472132
0.515000000000000346,-6.321817685106372764
0.516000000000000347,-6.280946283359718052
0.517000000000000348,-6.240381709890937323
0.518000000000000349,-6.200121457188592089
0.519000000000000350,-6.160163032087782042
0.520000000000000351,-6.120503955857564904
0.521000000000000352,-6.081141764284515361
0.522000000000000353,-6.042074007752454179
0.523000000000000353,-6.003298251318371470
0.524000000000000354,-5.964812074784730633
0.525000000000000355,-5.926613072768005530
0.526000000000000356,-5.888698854763673829
0.527000000000000357,-5.851067045207651418
0.528000000000000358,-5.813715283534173217
0.529000000000000359,-5.776641224230271376
0.530000000000000360,-5.739842536886782476
0.531000000000000361,-5.703316906246046258
0.532000000000000361,-5.667062032246228398
0.533000000000000362,-5.631075630062398751
0.534000000000000363,-5.595355430144381081
0.535000000000000364,-5.559899178251392016
0.536000000000000365,-5.524704635483549175
0.537000000000000366,-5.489769578310297327
0.538000000000000367,-5.455091798595711694
0.539000000000000368,-5.420669103620889828
0.540000000000000369,-5.386499316103257939
0.541000000000000369,-5.352580274213037725
0.542000000000000370,-5.318909831586768000
0.543000000000000371,-5.285485857338000137
0.544000000000000372,-5.252306236065185985
0.545000000000000373,-5.219368867856818639
0.546000000000000374,-5.186671668293818982
0.547000000000000375,-5.154212568449245246
0.548000000000000376,-5.121989514885410877
0.549000000000000377,-5.090000469648362724
0.550000000000000377,-5.058243410259799511
0.551000000000000378,-5.026716329706503394
0.552000000000000379,-4.995417236427283747
0.553000000000000380,-4.964344154297505085
0.554000000000000381,-4.933495122611185835
0.555000000000000382,-4.902868196060829575
0.556000000000000383,-4.872461444714839551
0.557000000000000384,-4.842272953992787343
0.558000000000000385,-4.812300824638360730
0.559000000000000385,-4.782543172690199462
0.560000000000000386,-4.752998129450542564
0.561000000000000387,-4.723663841451819501
0.562000000000000388,-4.694538470421158571
0.563000000000000389,-4.665620193242885350
0.564000000000000390,-4.636907201919048482
0.565000000000000391,-4.608397703528029687
0.566000000000000392,-4.580089920181224628
0.567000000000000393,-4.551982088977932328
0.568000000000000393,-4.524072461958374980
0.569000000000000394,-4.496359306054979577
0.570000000000000395,-4.468840903041960466
0.571000000000000396,-4.441515549483145975
0.572000000000000397,-4.414381556678231178
0.573000000000000398,-4.387437250607381323
0.574000000000000399,-4.360680971874302259
0.575000000000000400,-4.334111075647743228
0.576000000000000401,-4.307725931601551927
0.577000000000000401,-4.281523923853286284
0.578000000000000402,-4.255503450901386486
0.579000000000000403,-4.229662925561003206
0.580000000000000404,-4.204000774898506876
0.581000000000000405,-4.178515440164693118
0.582000000000000406,-4.153205376726732290
0.583000000000000407,-4.128069053998915550
0.584000000000000408,-4.103104955372240070
0.585000000000000409,-4.078311578142821858
0.586000000000000409,-4.053687433439233878
0.587000000000000410,-4.029231046148781914
0.588000000000000411,-4.004940954842734158
0.589000000000000412,-3.980815711700587123
0.590000000000000413,-3.956853882433342129
0.591000000000000414,-3.933054046205896270
0.592000000000000415,-3.909414795558531441
0.593000000000000416,-3.885934736327547601
0.594000000000000417,-3.862612487565085129
0.595000000000000417,-3.839446681458201116
0.596000000000000418,-3.816435963247104546
0.597000000000000419,-3.793578991142808832
0.598000000000000420,-3.770874436243965899
0.599000000000000421,-3.748320982453160699
0.600000000000000422,-3.725917326392507611
0.601000000000000423,-3.703662177318718385
0.602000000000000424,-3.681554257037567002
0.603000000000000425,-3.659592299817867822
0.604000000000000425,-3.637775052304933698
0.605000000000000426,-3.616101273433565133
0.606000000000000427,-3.594569734340651301
0.607000000000000428,-3.573179218277267033
0.608000000000000429,-3.551928520520514887
