# graphene_PYRIMIDINE-AC
# h[nm],U(h)[kJ/mol]
0.149999999999999994,95.372622213560021009
0.150999999999999995,92.168508481767503326
0.151999999999999996,89.908768573192716644
0.152999999999999997,87.888762069892450768
0.153999999999999998,85.839773212407791902
0.154999999999999999,83.703735503812723096
0.156000000000000000,81.508915015082791911
0.157000000000000001,79.306093762984886553
0.158000000000000002,77.139648328233732855
0.159000000000000002,75.037680482477185251
0.160000000000000003,73.011680780436236660
0.161000000000000004,71.060231800764739774
0.162000000000000005,69.173763813940297496
0.163000000000000006,67.338890669243681941
0.164000000000000007,65.541733148448571455
0.165000000000000008,63.770117549890471764
0.166000000000000009,62.014774322529454764
0.167000000000000010,60.269755729870006178
0.168000000000000010,58.532306547488460069
0.169000000000000011,56.802397066172623852
0.170000000000000012,55.082086650179235221
0.171000000000000013,53.374842048241397663
0.172000000000000014,51.684894446466238094
0.173000000000000015,50.016685885950202817
0.174000000000000016,48.374429899534241883
0.175000000000000017,46.761792600113778917
0.176000000000000018,45.181687958365202462
0.177000000000000018,43.636173434309696972
0.178000000000000019,42.126428293707547823
0.179000000000000020,40.652795798360912727
0.180000000000000021,39.214871136390321738
0.181000000000000022,37.811618763740987958
0.182000000000000023,36.441505238875606665
0.183000000000000024,35.102636270894144843
0.184000000000000025,33.792889307981894831
0.185000000000000026,32.510035402379699576
0.186000000000000026,31.251846205102566500
0.187000000000000027,30.016183725221033285
0.188000000000000028,28.801071927561746833
0.189000000000000029,27.604750355904986492
0.190000000000000030,26.425710787337976626
0.191000000000000031,25.262718486107466731
0.192000000000000032,24.114819973507877648
0.193000000000000033,22.981339404765350309
0.194000000000000034,21.861865682463310634
0.195000000000000034,20.756232372695162525
0.196000000000000035,19.664492354121314577
0.197000000000000036,18.586888946014838098
0.198000000000000037,17.523825049219251326
0.199000000000000038,16.475831609546908396
0.200000000000000039,15.443536488630803305
0.201000000000000040,14.427634611513472152
0.202000000000000041,13.428860059522586212
0.203000000000000042,12.447960595241843507
0.204000000000000042,11.485674945858580287
0.205000000000000043,10.542713032709452037
0.206000000000000044,9.619739218251755375
0.207000000000000045,8.717358546019418952
0.208000000000000046,7.836105872909776338
0.209000000000000047,6.976437734597789486
0.210000000000000048,6.138726742019654736
0.211000000000000049,5.323258277677888728
0.212000000000000050,4.530229242989884497
0.213000000000000050,3.759748600122901685
0.214000000000000051,3.011839451942180279
0.215000000000000052,2.286442410226977362
0.216000000000000053,1.583420013728445763
0.217000000000000054,0.902561972679577273
0.218000000000000055,0.243591033922083866
0.219000000000000056,-0.393830720043322813
0.220000000000000057,-1.010095304829353280
0.221000000000000058,-1.605642147375976991
0.222000000000000058,-2.180951405434371715
0.223000000000000059,-2.736537401078666498
0.224000000000000060,-3.272942257953725509
0.225000000000000061,-3.790729815144926906
0.226000000000000062,-4.290479875099205920
0.227000000000000063,-4.772782829015209671
0.228000000000000064,-5.238234690581805353
0.229000000000000065,-5.687432557872329930
0.230000000000000066,-6.120970513552637549
0.231000000000000066,-6.539435965276155116
0.232000000000000067,-6.943406421134477924
0.233000000000000068,-7.333446689219611514
0.234000000000000069,-7.710106485633183127
0.235000000000000070,-8.073918431547999930
0.236000000000000071,-8.425396417084634493
0.237000000000000072,-8.765034307711518480
0.238000000000000073,-9.093304967511693704
0.239000000000000073,-9.410659572891137969
0.240000000000000074,-9.717527190048262042
0.241000000000000075,-10.014314589697059787
0.242000000000000076,-10.301406273067325259
0.243000000000000077,-10.579164684026508780
0.244000000000000078,-10.847930583218808209
0.245000000000000079,-11.108023561344925412
0.246000000000000080,-11.359742670063351255
0.247000000000000081,-11.603367150441265210
0.248000000000000081,-11.839157240382693459
0.249000000000000082,-12.067355043985067198
0.250000000000000111,-12.288185447297141906
0.251000000000000112,-12.501857066449177935
0.252000000000000113,-12.708563215585709116
0.253000000000000114,-12.908482883434302835
0.254000000000000115,-13.101781708685706462
0.255000000000000115,-13.288612945627415129
0.256000000000000116,-13.469118412664011331
0.257000000000000117,-13.643429417466444775
0.258000000000000118,-13.811667653518224341
0.259000000000000119,-13.973946063769361103
0.260000000000000120,-14.130369667969251424
0.261000000000000121,-14.281036351028442155
0.262000000000000122,-14.426037610461047933
0.263000000000000123,-14.565459261585413486
0.264000000000000123,-14.699382099716014949
0.265000000000000124,-14.827882519067298261
0.266000000000000125,-14.951033088514984470
0.267000000000000126,-15.068903084726628094
0.268000000000000127,-15.181558983485302861
0.269000000000000128,-15.289064910292264443
0.270000000000000129,-15.391483051551045236
0.271000000000000130,-15.488874027810926037
0.272000000000000131,-15.581297230685288824
0.273000000000000131,-15.668811125165163389
0.274000000000000132,-15.751473519122583866
0.275000000000000133,-15.829341801846947391
0.276000000000000134,-15.902473153482398871
0.277000000000000135,-15.970924727239443897
0.278000000000000136,-16.034753806241305085
0.279000000000000137,-16.094017936838497462
0.280000000000000138,-16.148775040184968788
0.281000000000000139,-16.199083503819267094
0.282000000000000139,-16.245002254935123176
0.283000000000000140,-16.286590816960757166
0.284000000000000141,-16.323909350995116085
0.285000000000000142,-16.357018683575045515
0.286000000000000143,-16.385980322170127010
0.287000000000000144,-16.410856459722801048
0.288000000000000145,-16.431709969472827026
0.289000000000000146,-16.448604391224815657
0.290000000000000147,-16.461603910140091500
0.291000000000000147,-16.470773329056406453
0.292000000000000148,-16.476178035264474886
0.293000000000000149,-16.477883962596951761
0.294000000000000150,-16.475957549615717568
0.295000000000000151,-16.470465694615572971
0.296000000000000152,-16.461475708098287640
0.297000000000000153,-16.449055263309862340
0.298000000000000154,-16.433272345375740997
0.299000000000000155,-16.414195199514427514
0.300000000000000155,-16.391892278758341206
0.301000000000000156,-16.366432191563102805
0.302000000000000157,-16.337883649641504746
0.303000000000000158,-16.306315416316888189
0.304000000000000159,-16.271796255652464680
0.305000000000000160,-16.234394882577113606
0.306000000000000161,-16.194179914196226377
0.307000000000000162,-16.151219822445899155
0.308000000000000163,-16.105582888221739779
0.309000000000000163,-16.057337157088802826
0.310000000000000164,-16.006550396656972879
0.311000000000000165,-15.953290055685574345
0.312000000000000166,-15.897623224963533417
0.313000000000000167,-15.839616599994803536
0.314000000000000168,-15.779336445504801745
0.315000000000000169,-15.716848561770722981
0.316000000000000170,-15.652218252768074436
0.317000000000000171,-15.585510296115549167
0.318000000000000171,-15.516788914792652321
0.319000000000000172,-15.446117750597057494
0.320000000000000173,-15.373559839303036156
0.321000000000000174,-15.299177587477117868
0.322000000000000175,-15.223032750903323418
0.323000000000000176,-15.145186414567007205
0.324000000000000177,-15.065698974143993283
0.325000000000000178,-14.984630118939691101
0.326000000000000179,-14.902038816222070494
0.327000000000000179,-14.817983296891267031
0.328000000000000180,-14.732521042428553315
0.329000000000000181,-14.645708773067863007
0.330000000000000182,-14.557602437132947770
0.331000000000000183,-14.468257201484798102
0.332000000000000184,-14.377727443024472365
0.333000000000000185,-14.286066741198073515
0.334000000000000186,-14.193327871452073197
0.335000000000000187,-14.099562799588550632
0.336000000000000187,-14.004822676972086271
0.337000000000000188,-13.909157836541217179
0.338000000000000189,-13.812617789580011518
0.339000000000000190,-13.715251223206546882
0.340000000000000191,-13.617105998537283540
0.341000000000000192,-13.518229149488508511
0.342000000000000193,-13.418666882177351596
0.343000000000000194,-13.318464574887482144
0.344000000000000195,-13.217666778565781982
0.345000000000000195,-13.116317217818735941
0.346000000000000196,-13.014458792378572838
0.347000000000000197,-12.912133579011159767
0.348000000000000198,-12.809382833839388027
0.349000000000000199,-12.706246995056959648
0.350000000000000200,-12.602765686009732349
0.351000000000000201,-12.498977718622374056
0.352000000000000202,-12.394921097150207956
0.353000000000000203,-12.290633022237043903
0.354000000000000203,-12.186149895261101150
0.355000000000000204,-12.081507322952313999
0.356000000000000205,-11.976740122265500332
0.357000000000000206,-11.871882325494802046
0.358000000000000207,-11.766967185615675007
0.359000000000000208,-11.662027181841905232
0.360000000000000209,-11.557094025385648450
0.361000000000000210,-11.452198665409454748
0.362000000000000210,-11.347371295159863536
0.363000000000000211,-11.242641358272843277
0.364000000000000212,-11.138037555242030763
0.365000000000000213,-11.033587850041097767
0.366000000000000214,-10.929319476892251473
0.367000000000000215,-10.825258947173329815
0.368000000000000216,-10.721432056456219328
0.369000000000000217,-10.617863891669887977
0.370000000000000218,-10.514578838381600789
0.371000000000000218,-10.411600588190141892
0.372000000000000219,-10.308952146225234259
0.373000000000000220,-10.206655838747561660
0.374000000000000221,-10.104733320844063726
0.375000000000000222,-10.003205584213198165
0.376000000000000223,-9.902092965035398819
0.377000000000000224,-9.801415151923706048
0.378000000000000225,-9.701191193949963321
0.379000000000000226,-9.601439508742002360
0.380000000000000226,-9.502177890647395486
0.381000000000000227,-9.403423518959286298
0.382000000000000228,-9.305192966200152682
0.383000000000000229,-9.207502206459279748
0.384000000000000230,-9.110366623779620809
0.385000000000000231,-9.013801020590271662
0.386000000000000232,-8.917819626180227388
0.387000000000000233,-8.822436105209622070
0.388000000000000234,-8.727663566254380001
0.389000000000000234,-8.633514570380501851
0.390000000000000235,-8.540001139743953473
0.391000000000000236,-8.447134766212482049
0.392000000000000237,-8.354926420005384102
0.393000000000000238,-8.263386558347630029
0.394000000000000239,-8.172525134134412284
0.395000000000000240,-8.082351604602546757
0.396000000000000241,-7.992874940005009421
0.397000000000000242,-7.904103632284899206
0.398000000000000242,-7.816045703745333917
0.399000000000000243,-7.728708715711627875
0.400000000000000244,-7.642099777182155940
0.401000000000000245,-7.556225553464637201
0.402000000000000246,-7.471092274794143506
0.403000000000000247,-7.386705744929544792
0.404000000000000248,-7.303071349725056116
0.405000000000000249,-7.220194065673576134
0.406000000000000250,-7.138078468418493472
0.407000000000000250,-7.056728741230905655
0.408000000000000251,-6.976148683448975873
0.409000000000000252,-6.896341718876482396
0.410000000000000253,-6.817310904137455552
0.411000000000000254,-6.739058936984037018
0.412000000000000255,-6.661588164554612668
0.413000000000000256,-6.584900591579537554
0.414000000000000257,-6.508997888531531828
0.415000000000000258,-6.433881399718314853
0.416000000000000258,-6.359552151314718849
0.417000000000000259,-6.286010859331855549
0.418000000000000260,-6.213257937520957341
0.419000000000000261,-6.141293505209408643
0.420000000000000262,-6.070117395066860766
0.421000000000000263,-5.999729160799176952
0.422000000000000264,-5.930128084768100827
0.423000000000000265,-5.861313185534618775
0.424000000000000266,-5.793283225324216801
0.425000000000000266,-5.726036717412018362
0.426000000000000267,-5.659571933426148505
0.427000000000000268,-5.593886910567638537
0.428000000000000269,-5.528979458745260089
0.429000000000000270,-5.464847167623831936
0.430000000000000271,-5.401487413584542097
0.431000000000000272,-5.338897366595970695
0.432000000000000273,-5.277073996994584348
0.433000000000000274,-5.216014082173543898
0.434000000000000274,-5.155714213178680616
0.435000000000000275,-5.096170801210763379
0.436000000000000276,-5.037380084033068250
0.437000000000000277,-4.979338132283386287
0.438000000000000278,-4.922040855689806094
0.439000000000000279,-4.865484009189565029
0.440000000000000280,-4.809663198950313578
0.441000000000000281,-4.754573888293342598
0.442000000000000282,-4.700211403518337328
0.443000000000000282,-4.646570939629192765
0.444000000000000283,-4.593647565960694124
0.445000000000000284,-4.541436231705797688
0.446000000000000285,-4.489931771343253608
0.447000000000000286,-4.439128909965701197
0.448000000000000287,-4.389022268507916991
0.449000000000000288,-4.339606368875524645
0.450000000000000289,-4.290875638974062767
0.451000000000000290,-4.242824417638650480
0.452000000000000290,-4.195446959464495862
0.453000000000000291,-4.148737439538413341
0.454000000000000292,-4.102689958071803034
0.455000000000000293,-4.057298544935362905
0.456000000000000294,-4.012557164096024032
0.457000000000000295,-3.968459717956570820
0.458000000000000296,-3.925000051598477313
0.459000000000000297,-3.882171956928517798
0.460000000000000298,-3.839969176729788103
0.461000000000000298,-3.798385408617780623
0.462000000000000299,-3.757414308902232047
0.463000000000000300,-3.717049496355431693
0.464000000000000301,-3.677284555887833761
0.465000000000000302,-3.638113042131743580
0.466000000000000303,-3.599528482933915363
0.467000000000000304,-3.561524382757929708
0.468000000000000305,-3.524094225997312257
0.469000000000000306,-3.487231480200241318
0.470000000000000306,-3.450929599206882248
0.471000000000000307,-3.415182026200256793
0.472000000000000308,-3.379982196671742489
0.473000000000000309,-3.345323541302145820
0.474000000000000310,-3.311199488759457576
0.475000000000000311,-3.277603468414310051
0.476000000000000312,-3.244528912974325330
0.477000000000000313,-3.211969261038299273
0.478000000000000314,-3.179917959571463282
0.479000000000000314,-3.148368466302944313
0.480000000000000315,-3.117314252046470724
0.481000000000000316,-3.086748802945624703
0.482000000000000317,-3.056665622644662683
0.483000000000000318,-3.027058234386180935
0.484000000000000319,-2.997920183036726804
0.485000000000000320,-2.969245037041633228
0.486000000000000321,-2.941026390310164551
0.487000000000000322,-2.913257864032247291
0.488000000000000322,-2.885933108427921834
0.489000000000000323,-2.859045804430792703
0.490000000000000324,-2.832589665306589399
0.491000000000000325,-2.806558438208120343
0.492000000000000326,-2.780945905667736362
0.493000000000000327,-2.755745887028585805
0.494000000000000328,-2.730952239815796823
0.495000000000000329,-2.706558861048816045
0.496000000000000330,-2.682559688496058747
0.497000000000000330,-2.658948701873096176
0.498000000000000331,-2.635719923985503144
0.499000000000000332,-2.612867421817610225
0.500000000000000333,-2.590385307568258799
0.501000000000000334,-2.568267739634755298
0.502000000000000335,-2.546508923546155767
0.503000000000000336,-2.525103112847055797
0.504000000000000337,-2.504044609932971621
0.505000000000000338,-2.483327766838469230
0.506000000000000338,-2.462946985979163728
0.507000000000000339,-2.442896720848637848
0.508000000000000340,-2.423171476671447166
0.509000000000000341,-2.403765811013247156
0.510000000000000342,-2.384674334349113689
0.511000000000000343,-2.365891710591138342
0.512000000000000344,-2.347412657576315009
0.513000000000000345,-2.329231947515784107
0.514000000000000346,-2.311344407406441981
0.515000000000000346,-2.293744919405913851
0.516000000000000347,-2.276428421171876160
0.517000000000000348,-2.259389906166796802
0.518000000000000349,-2.242624423928906374
0.519000000000000350,-2.226127080310498663
0.520000000000000351,-2.209893037684443229
0.521000000000000352,-2.193917515119821804
0.522000000000000353,-2.178195788527635735
0.523000000000000353,-2.162723190777446458
0.524000000000000354,-2.147495111785894473
0.525000000000000355,-2.132506998577882840
0.526000000000000356,-2.117754355321353366
0.527000000000000357,-2.103232743336469479
0.528000000000000358,-2.088937781080015377
0.529000000000000359,-2.074865144105863646
0.530000000000000360,-2.061010565002260542
0.531000000000000361,-2.047369833306773579
0.532000000000000361,-2.033938795399594657
0.533000000000000362,-2.020713354376029169
0.534000000000000363,-2.007689469898862988
0.535000000000000364,-1.994863158031333628
0.536000000000000365,-1.982230491051454990
0.537000000000000366,-1.969787597248350064
0.538000000000000367,-1.957530660701285896
0.539000000000000368,-1.945455921042119174
0.540000000000000369,-1.933559673201724394
0.541000000000000369,-1.921838267141142920
0.542000000000000370,-1.910288107568010263
0.543000000000000371,-1.898905653638883084
0.544000000000000372,-1.887687418648118509
0.545000000000000373,-1.876629969703823564
0.546000000000000374,-1.865729927391485798
0.547000000000000375,-1.854983965425835546
0.548000000000000376,-1.844388810291507586
0.549000000000000377,-1.833941240873000922
0.550000000000000377,-1.823638088074464036
0.551000000000000378,-1.813476234429860057
0.552000000000000379,-1.803452613703933283
0.553000000000000380,-1.793564210484538846
0.554000000000000381,-1.783808059766731402
0.555000000000000382,-1.774181246529153766
0.556000000000000383,-1.764680905303082969
0.557000000000000384,-1.755304219734654669
0.558000000000000385,-1.746048422140630718
0.559000000000000385,-1.736910793058172642
0.560000000000000386,-1.727888660788947206
0.561000000000000387,-1.718979400938059898
0.562000000000000388,-1.710180435948107647
0.563000000000000389,-1.701489234628760672
0.564000000000000390,-1.692903311682228962
0.565000000000000391,-1.684420227224958877
0.566000000000000392,-1.676037586305896498
0.567000000000000393,-1.667753038421656786
0.568000000000000393,-1.659564277028893198
0.569000000000000394,-1.651469039054212384
0.570000000000000395,-1.643465104401911514
0.571000000000000396,-1.635550295459812231
0.572000000000000397,-1.627722476603532531
0.573000000000000398,-1.619979553699386177
0.574000000000000399,-1.612319473606257159
0.575000000000000400,-1.604740223676636601
0.576000000000000401,-1.597239831257101894
0.577000000000000401,-1.589816363188489623
0.578000000000000402,-1.582467925305958367
0.579000000000000403,-1.575192661939174510
0.580000000000000404,-1.567988755412865753
0.581000000000000405,-1.560854425547907764
0.582000000000000406,-1.553787929163166215
0.583000000000000407,-1.546787559578285842
0.584000000000000408,-1.539851646117606387
0.585000000000000409,-1.532978553615382378
0.586000000000000409,-1.526166681922490387
0.587000000000000410,-1.519414465414780313
0.588000000000000411,-1.512720372503218114
0.589000000000000412,-1.506082905146004292
0.590000000000000413,-1.499500598362772052
0.591000000000000414,-1.492972019751040325
0.592000000000000415,-1.486495769005045098
0.593000000000000416,-1.480070477437060550
0.594000000000000417,-1.473694807501356285
0.595000000000000417,-1.467367452320908816
0.596000000000000418,-1.461087135216939448
0.597000000000000419,-1.454852609241448658
0.598000000000000420,-1.448662656712790042
0.599000000000000421,-1.442516088754417058
0.600000000000000422,-1.436411744836876947
0.601000000000000423,-1.430348492323149312
0.602000000000000424,-1.424325226017399748
0.603000000000000425,-1.418340867717244658
0.604000000000000425,-1.412394365769581217
0.605000000000000426,-1.406484694630058652
0.606000000000000427,-1.400610854426285190
0.607000000000000428,-1.394771870524750712
0.608000000000000429,-1.388966793101658270
0.609000000000000430,-1.383194696717545469
0.610000000000000431,-1.377454679895926182
