# graphene_13THIAZOLE-AC
# h[nm],U(h)[kJ/mol]
0.149999999999999994,100.386631052798165342
0.150999999999999995,97.005565239981436321
0.151999999999999996,94.629035872355728998
0.152999999999999997,92.509521366337452264
0.153999999999999998,90.363259174019503916
0.154999999999999999,88.129417121471675500
0.156000000000000000,85.837806401834541248
0.157000000000000001,83.541379553770184430
0.158000000000000002,81.285917298168158140
0.159000000000000002,79.099896227625066558
0.160000000000000003,76.994365973221476906
0.161000000000000004,74.966999927751956534
0.162000000000000005,73.007170680719269740
0.163000000000000006,71.100517175370939071
0.164000000000000007,69.232402285017315080
0.165000000000000008,67.390163777250634780
0.166000000000000009,65.564306575014683176
0.167000000000000010,63.748878089725600660
0.168000000000000010,61.941279488300395428
0.169000000000000011,60.141735987535639651
0.170000000000000012,58.352603428963355725
0.171000000000000013,56.577640325110948538
0.172000000000000014,54.821331331175883861
0.173000000000000015,53.088312639569608109
0.174000000000000016,51.382922730699306157
0.175000000000000017,49.708882614935603783
0.176000000000000018,48.069096978841876933
0.177000000000000018,46.465560149577228799
0.178000000000000019,44.899347215277224166
0.179000000000000020,43.370669848031482729
0.180000000000000021,41.878977433338988590
0.181000000000000022,40.423086282409585124
0.182000000000000023,39.001322442900281828
0.183000000000000024,37.611666538371970603
0.184000000000000025,36.251891893234315489
0.185000000000000026,34.919689773888492823
0.186000000000000026,33.612777808341505192
0.187000000000000027,32.328989499569232180
0.188000000000000028,31.066344222994729307
0.189000000000000029,29.823098220038076533
0.190000000000000030,28.597777906079905108
0.191000000000000031,27.389197347370366487
0.192000000000000032,26.196462074089744476
0.193000000000000033,25.018961530928908843
0.194000000000000034,23.856352463470976488
0.195000000000000034,22.708535434692844746
0.196000000000000035,21.575626492110519195
0.197000000000000036,20.457925788159776914
0.198000000000000037,19.355884714987180217
0.199000000000000038,18.270072866006479728
0.200000000000000039,17.201145892427444295
0.201000000000000040,16.149815092143587236
0.202000000000000041,15.116819356695780030
0.203000000000000042,14.102899913033692059
0.204000000000000042,13.108778132189357279
0.205000000000000043,12.135136537086854247
0.206000000000000044,11.182603025839586763
0.207000000000000045,10.251738233619459351
0.208000000000000046,9.343025883626054906
0.209000000000000047,8.456865923671930574
0.210000000000000048,7.593570207138293782
0.211000000000000049,6.753360453243805850
0.212000000000000050,5.936368209478676938
0.213000000000000050,5.142636536601244757
0.214000000000000051,4.372123141850742911
0.215000000000000052,3.624704697279105492
0.216000000000000053,2.900182095825088346
0.217000000000000054,2.198286416629827489
0.218000000000000055,1.518685392004996970
0.219000000000000056,0.860990190480042550
0.220000000000000057,0.224762352703143542
0.221000000000000058,-0.390479260950967300
0.222000000000000058,-0.985251630892527763
0.223000000000000059,-1.560100946557001489
0.224000000000000060,-2.115596263134688737
0.225000000000000061,-2.652323510235479631
0.226000000000000062,-3.170879900252059347
0.227000000000000063,-3.671868770175213292
0.228000000000000064,-4.155894878268866499
0.229000000000000065,-4.623560166288562812
0.230000000000000066,-5.075459988749324580
0.231000000000000066,-5.512179803029702896
0.232000000000000067,-5.934292307728239457
0.233000000000000068,-6.342355011555214972
0.234000000000000069,-6.736908211026213955
0.235000000000000070,-7.118473352206704519
0.236000000000000071,-7.487551749620498853
0.237000000000000072,-7.844623634069298745
0.238000000000000073,-8.190147500406173009
0.239000000000000073,-8.524559726163912998
0.240000000000000074,-8.848274432269775502
0.241000000000000075,-9.161683557792645871
0.242000000000000076,-9.465157121694655729
0.243000000000000077,-9.759043645827585323
0.244000000000000078,-10.043670714864202154
0.245000000000000079,-10.319345650434135209
0.246000000000000080,-10.586356278396509722
0.247000000000000081,-10.844971769889749424
0.248000000000000081,-11.095443538517660187
0.249000000000000082,-11.338006177733889857
0.250000000000000111,-11.572878424152056809
0.251000000000000112,-11.800264134116128290
0.252000000000000113,-12.020353262404382733
0.253000000000000114,-12.233322833394854712
0.254000000000000115,-12.439337896389195848
0.255000000000000115,-12.638552458064296502
0.256000000000000116,-12.831110386198634643
0.257000000000000117,-13.017146279900089212
0.258000000000000118,-13.196786302544122549
0.259000000000000119,-13.370148974519935337
0.260000000000000120,-13.537345923678438808
0.261000000000000121,-13.698482592083530918
0.262000000000000122,-13.853658898293549129
0.263000000000000123,-14.002969854944570471
0.264000000000000123,-14.146506141879957141
0.265000000000000124,-14.284354635473386352
0.266000000000000125,-14.416598895133356351
0.267000000000000126,-14.543319608259093201
0.268000000000000127,-14.664594995148259926
0.269000000000000128,-14.780501175538494962
0.270000000000000129,-14.891112498604575975
0.271000000000000130,-14.996501838334747703
0.272000000000000131,-15.096740856277261145
0.273000000000000131,-15.191900233686604693
0.274000000000000132,-15.282049875111601622
0.275000000000000133,-15.367259085458011114
0.276000000000000134,-15.447596722529990387
0.277000000000000135,-15.523131327010457170
0.278000000000000136,-15.593931231783329849
0.279000000000000137,-15.660064652432641452
0.280000000000000138,-15.721599760677079871
0.281000000000000139,-15.778604742416098006
0.282000000000000139,-15.831147841975752755
0.283000000000000140,-15.879297394052585446
0.284000000000000141,-15.923121844760919075
0.285000000000000142,-15.962689763096369333
0.286000000000000143,-15.998069844035862630
0.287000000000000144,-16.029330904402929292
0.288000000000000145,-16.056541872538236504
0.289000000000000146,-16.079771772728200574
0.290000000000000147,-16.099089705261238947
0.291000000000000147,-16.114564822900689478
0.292000000000000148,-16.126266304487486991
0.293000000000000149,-16.134263326312520803
0.294000000000000150,-16.138625031830709844
0.295000000000000151,-16.139420500224225918
0.296000000000000152,-16.136718714262265451
0.297000000000000153,-16.130588527848992442
0.298000000000000154,-16.121098633599196148
0.299000000000000155,-16.108317530733717859
0.300000000000000155,-16.092313493542615532
0.301000000000000156,-16.073154540624013720
0.302000000000000157,-16.050908405070245522
0.303000000000000158,-16.025642505739632782
0.304000000000000159,-15.997423919723038566
0.305000000000000160,-15.966319356086994929
0.306000000000000161,-15.932395130952381024
0.307000000000000162,-15.895717143946090033
0.308000000000000163,-15.856350856045031250
0.309000000000000163,-15.814361268815796180
0.310000000000000164,-15.769812905039490403
0.311000000000000165,-15.722769790699420156
0.312000000000000166,-15.673295438299600590
0.313000000000000167,-15.621452831473510159
0.314000000000000168,-15.567304410836124262
0.315000000000000169,-15.510912061026687070
0.316000000000000170,-15.452337098885923439
0.317000000000000171,-15.391640262708108366
0.318000000000000171,-15.328881702506725659
0.319000000000000172,-15.264120971231218249
0.320000000000000173,-15.197417016872202922
0.321000000000000174,-15.128828175392541766
0.322000000000000175,-15.058412164423012669
0.323000000000000176,-14.986226077662447409
0.324000000000000177,-14.912326379924238040
0.325000000000000178,-14.836768902772959677
0.326000000000000179,-14.759608840697953980
0.327000000000000179,-14.680900747772586357
0.328000000000000180,-14.600698534751291646
0.329000000000000181,-14.519055466559461109
0.330000000000000182,-14.436024160133763772
0.331000000000000183,-14.351656582574261023
0.332000000000000184,-14.266004049572108769
0.333000000000000185,-14.179117224080133752
0.334000000000000186,-14.091046115196354194
0.335000000000000187,-14.001840077233486781
0.336000000000000187,-13.911547808950405880
0.337000000000000188,-13.820217352924050402
0.338000000000000189,-13.727896095043249147
0.339000000000000190,-13.634630764108115031
0.340000000000000191,-13.540467431521056696
0.341000000000000192,-13.445451511058092109
0.342000000000000193,-13.349627758710550296
0.343000000000000194,-13.253040272589933224
0.344000000000000195,-13.155732492889848473
0.345000000000000195,-13.057747201901204193
0.346000000000000196,-12.959126524077797527
0.347000000000000197,-12.859911926151250228
0.348000000000000198,-12.760144217295323443
0.349000000000000199,-12.659863549340599320
0.350000000000000200,-12.559109417041891987
0.351000000000000201,-12.457920658401160807
0.352000000000000202,-12.356335455049757499
0.353000000000000203,-12.254391332694430261
0.354000000000000203,-12.152125161631863293
0.355000000000000204,-12.049573157337112761
0.356000000000000205,-11.946770881131646647
0.357000000000000206,-11.843753240936910842
0.358000000000000207,-11.740554492119317231
0.359000000000000208,-11.637208238433053964
0.360000000000000209,-11.533747433066766419
0.361000000000000210,-11.430204379800272818
0.362000000000000210,-11.326610734277389625
0.363000000000000211,-11.222997505400728713
0.364000000000000212,-11.119395056854228798
0.365000000000000213,-11.015833108758794623
0.366000000000000214,-10.912340739466317885
0.367000000000000215,-10.808946387496865427
0.368000000000000216,-10.705677853623724261
0.369000000000000217,-10.602562303110286024
0.370000000000000218,-10.499626268102792537
0.371000000000000218,-10.396895650182221615
0.372000000000000219,-10.294395723078322291
0.373000000000000220,-10.192151135548504826
0.374000000000000221,-10.090185914423676294
0.375000000000000222,-9.988523467822737700
0.376000000000000223,-9.887186588537199228
0.377000000000000224,-9.786197457586725434
0.378000000000000225,-9.685577647946107760
0.379000000000000226,-9.585348128443758497
0.380000000000000226,-9.485529267831466882
0.381000000000000227,-9.386140839024516680
0.382000000000000228,-9.287202023511280657
0.383000000000000229,-9.188731415930668334
0.384000000000000230,-9.090747028815581388
0.385000000000000231,-8.993266297500339235
0.386000000000000232,-8.896306085189397805
0.387000000000000233,-8.799882688184615276
0.388000000000000234,-8.704011841267906391
0.389000000000000234,-8.608708723235960036
0.390000000000000235,-8.513987962583154712
0.391000000000000236,-8.419863643329009051
0.392000000000000237,-8.326349310985708740
0.393000000000000238,-8.233457978661650856
0.394000000000000239,-8.141202133296143728
0.395000000000000240,-8.049593742020697107
0.396000000000000241,-7.958644258641956348
0.397000000000000242,-7.868364630241105218
0.398000000000000242,-7.778765303884688009
0.399000000000000243,-7.689856233441477507
0.400000000000000244,-7.601646886499855427
0.401000000000000245,-7.514146251380475761
0.402000000000000246,-7.427362844238396988
0.403000000000000247,-7.341304716249117845
0.404000000000000248,-7.255979460872954867
0.405000000000000249,-7.171394221191940588
0.406000000000000250,-7.087555697313594472
0.407000000000000250,-7.004470153835844926
0.408000000000000251,-6.922143427367343449
0.409000000000000252,-6.840580934097600263
0.410000000000000253,-6.759787677411118523
0.411000000000000254,-6.679768255540063038
0.412000000000000255,-6.600526869249796036
0.413000000000000256,-6.522067329551828330
0.414000000000000257,-6.444393065438646317
0.415000000000000258,-6.367507131635194106
0.416000000000000258,-6.291412216361576881
0.417000000000000259,-6.216110649101862506
0.418000000000000260,-6.141604408373888546
0.419000000000000261,-6.067895129494983664
0.420000000000000262,-5.994984112338807236
0.421000000000000263,-5.922872329078492371
0.422000000000000264,-5.851560431911364546
0.423000000000000265,-5.781048760760707061
0.424000000000000266,-5.711337350950261182
0.425000000000000266,-5.642425940846947263
0.426000000000000267,-5.574313979467803826
0.427000000000000268,-5.507000634047026111
0.428000000000000269,-5.440484797559206775
0.429000000000000270,-5.374765096195014635
0.430000000000000271,-5.309839896785641500
0.431000000000000272,-5.245707314172542546
0.432000000000000273,-5.182365218519100480
0.433000000000000274,-5.119811242560982301
0.434000000000000274,-5.058042788792057820
0.435000000000000275,-4.997057036582994272
0.436000000000000276,-4.936850949229707908
0.437000000000000277,-4.877421280928874836
0.438000000000000278,-4.818764583678123437
0.439000000000000279,-4.760877214098401033
0.440000000000000280,-4.703755340176231314
0.441000000000000281,-4.647394947923748632
0.442000000000000282,-4.591791847954519667
0.443000000000000282,-4.536941681973173601
0.444000000000000283,-4.482839929177174554
0.445000000000000284,-4.429481912569073643
0.446000000000000285,-4.376862805177623272
0.447000000000000286,-4.324977636186571495
0.448000000000000287,-4.273821296969606109
0.449000000000000288,-4.223388547030512363
0.450000000000000289,-4.173674019847302574
0.451000000000000290,-4.124672228619511216
0.452000000000000290,-4.076377571917753961
0.453000000000000291,-4.028784339234817935
0.454000000000000292,-3.981886716437698315
0.455000000000000293,-3.935678791119981756
0.456000000000000294,-3.890154557854214712
0.457000000000000295,-3.845307923343839640
0.458000000000000296,-3.801132711474507708
0.459000000000000297,-3.757622668264576582
0.460000000000000298,-3.714771466714691606
0.461000000000000298,-3.672572711556486347
0.462000000000000299,-3.631019943900472668
0.463000000000000300,-3.590106645783231354
0.464000000000000301,-3.549826244614190607
0.465000000000000302,-3.510172117522275759
0.466000000000000303,-3.471137595602750814
0.467000000000000304,-3.432715968064703471
0.468000000000000305,-3.394900486279722962
0.469000000000000306,-3.357684367732185482
0.470000000000000306,-3.321060799871928371
0.471000000000000307,-3.285022943869776668
0.472000000000000308,-3.249563938276822661
0.473000000000000309,-3.214676902588059271
0.474000000000000310,-3.180354940711279887
0.475000000000000311,-3.146591144342006707
0.476000000000000312,-3.113378596245464536
0.477000000000000313,-3.080710373446347461
0.478000000000000314,-3.048579550327501941
0.479000000000000314,-3.016979201638465558
0.480000000000000315,-2.985902405414857075
0.481000000000000316,-2.955342245809757351
0.482000000000000317,-2.925291815838102494
0.483000000000000318,-2.895744220035239902
0.484000000000000319,-2.866692577030760969
0.485000000000000320,-2.838130022038824585
0.486000000000000321,-2.810049709266090545
0.487000000000000322,-2.782444814238492103
0.488000000000000322,-2.755308536048052481
0.489000000000000323,-2.728634099521014544
0.490000000000000324,-2.702414757308471138
0.491000000000000325,-2.676643791900816360
0.492000000000000326,-2.651314517567191498
0.493000000000000327,-2.626420282221324065
0.494000000000000328,-2.601954469214937227
0.495000000000000329,-2.577910499060073413
0.496000000000000330,-2.554281831081613774
0.497000000000000330,-2.531061965001281777
0.498000000000000331,-2.508244442454433454
0.499000000000000332,-2.485822848440948807
0.500000000000000333,-2.463790812711501577
0.501000000000000334,-2.442142011090520093
0.502000000000000335,-2.420870166737119966
0.503000000000000336,-2.399969051345336002
0.504000000000000337,-2.379432486284894122
0.505000000000000338,-2.359254343683844901
0.506000000000000338,-2.339428547454322160
0.507000000000000339,-2.319949074262686928
0.508000000000000340,-2.300809954445337979
0.509000000000000341,-2.282005272871448831
0.510000000000000342,-2.263529169753850212
0.511000000000000343,-2.245375841409306794
0.512000000000000344,-2.227539540969434739
0.513000000000000345,-2.210014579043437788
0.514000000000000346,-2.192795324333915996
0.515000000000000346,-2.175876204206882214
0.516000000000000347,-2.159251705217193340
0.517000000000000348,-2.142916373590618484
0.518000000000000349,-2.126864815663561448
0.519000000000000350,-2.111091698281728046
0.520000000000000351,-2.095591749158775663
0.521000000000000352,-2.080359757196083237
0.522000000000000353,-2.065390572764738142
0.523000000000000353,-2.050679107950808877
0.524000000000000354,-2.036220336765020456
0.525000000000000355,-2.022009295317816147
0.526000000000000356,-2.008041081960885155
0.527000000000000357,-1.994310857396193182
0.528000000000000358,-1.980813844753467334
0.529000000000000359,-1.967545329637177431
0.530000000000000360,-1.954500660143959845
0.531000000000000361,-1.941675246851456205
0.532000000000000361,-1.929064562779483794
0.533000000000000362,-1.916664143324504410
0.534000000000000363,-1.904469586168265227
0.535000000000000364,-1.892476551161504261
0.536000000000000365,-1.880680760183630840
0.537000000000000366,-1.869077996979201739
0.538000000000000367,-1.857664106972042317
0.539000000000000368,-1.846434997057891936
0.540000000000000369,-1.835386635376277109
0.541000000000000369,-1.824515051062530535
0.542000000000000370,-1.813816333980646123
0.543000000000000371,-1.803286634437750724
0.544000000000000372,-1.792922162880978387
0.545000000000000373,-1.782719189577425922
0.546000000000000374,-1.772674044277924965
0.547000000000000375,-1.762783115865326211
0.548000000000000376,-1.753042851988006579
0.549000000000000377,-1.743449758679215922
0.550000000000000377,-1.734000399962935646
0.551000000000000378,-1.724691397446920238
0.552000000000000379,-1.715519429903480830
0.553000000000000380,-1.706481232838680473
0.554000000000000381,-1.697573598050474475
0.555000000000000382,-1.688793373176437740
0.556000000000000383,-1.680137461231559826
0.557000000000000384,-1.671602820136753875
0.558000000000000385,-1.663186462238523067
0.559000000000000385,-1.654885453820379437
0.560000000000000386,-1.646696914606450957
0.561000000000000387,-1.638618017257853055
0.562000000000000388,-1.630645986862221175
0.563000000000000389,-1.622778100416941482
0.564000000000000390,-1.615011686306479621
0.565000000000000391,-1.607344123774292921
0.566000000000000392,-1.599772842389723504
0.567000000000000393,-1.592295321510310835
0.568000000000000393,-1.584909089739908294
0.569000000000000394,-1.577611724383015002
0.570000000000000395,-1.570400850895700362
0.571000000000000396,-1.563274142333468397
0.572000000000000397,-1.556229318796468863
0.573000000000000398,-1.549264146872339598
0.574000000000000399,-1.542376439077076000
0.575000000000000400,-1.535564053294206532
0.576000000000000401,-1.528824892212618192
0.577000000000000401,-1.522156902763329267
0.578000000000000402,-1.515558075555500928
0.579000000000000403,-1.509026444311959647
0.580000000000000404,-1.502560085304545101
0.581000000000000405,-1.496157116789503583
0.582000000000000406,-1.489815698443210268
0.583000000000000407,-1.483534030798458137
0.584000000000000408,-1.477310354681561355
0.585000000000000409,-1.471142950650478509
0.586000000000000409,-1.465030138434211704
0.587000000000000410,-1.458970276373664721
0.588000000000000411,-1.452961760864178498
0.589000000000000412,-1.447003025799939113
0.590000000000000413,-1.441092542020441902
0.591000000000000414,-1.435228816759196668
0.592000000000000415,-1.429410393094852072
0.593000000000000416,-1.423635849404893072
0.594000000000000417,-1.417903798822078398
0.595000000000000417,-1.412212888693783919
0.596000000000000418,-1.406561800044356492
0.597000000000000419,-1.400949247040678136
0.598000000000000420,-1.395373976461007803
0.599000000000000421,-1.389834767167279939
0.600000000000000422,-1.384330429580947541
0.601000000000000423,-1.378859805162503838
0.602000000000000424,-1.373421765894768054
0.603000000000000425,-1.368015213770074956
0.604000000000000425,-1.362639080281423443
0.605000000000000426,-1.357292325917695663
0.606000000000000427,-1.351973939663068114
0.607000000000000428,-1.346682938500593618
0.608000000000000429,-1.341418366920193117
0.609000000000000430,-1.336179296430935137
0.610000000000000431,-1.330964825077862734
