# graphene_BROMANE-AC
# h[nm],U(h)[kJ/mol]
0.149999999999999994,93.637893284538620264
0.150999999999999995,92.054291615139931082
0.151999999999999996,90.179937422996715668
0.152999999999999997,88.208723762337399421
0.153999999999999998,86.253574047825878779
0.154999999999999999,84.367507081617986842
0.156000000000000000,82.564545000935822827
0.157000000000000001,80.836847986344508854
0.158000000000000002,79.167115437119079502
0.159000000000000002,77.536593720310250433
0.160000000000000003,75.929556385318932143
0.161000000000000004,74.335231485754889036
0.162000000000000005,72.748056290019036396
0.163000000000000006,71.166965193149891888
0.164000000000000007,69.594228708034648889
0.165000000000000008,68.034192671530377083
0.166000000000000009,66.492130180598010725
0.167000000000000010,64.973316387793502713
0.168000000000000010,63.482364854240415752
0.169000000000000011,62.022818196301976457
0.170000000000000012,60.596959356359278104
0.171000000000000013,59.205797546014125032
0.172000000000000014,57.849180191593937650
0.173000000000000015,56.525985466575470184
0.174000000000000016,55.234356544898659536
0.175000000000000017,53.971946657768491207
0.176000000000000018,52.736152121473047316
0.177000000000000018,51.524317948048725668
0.178000000000000019,50.333907034319139484
0.179000000000000020,49.162629078076136580
0.180000000000000021,48.008529288820980696
0.181000000000000022,46.870039742102534319
0.182000000000000023,45.745998023680058964
0.183000000000000024,44.635638797519412435
0.184000000000000025,43.538564285794137732
0.185000000000000026,42.454699532776054127
0.186000000000000026,41.384237880931209475
0.187000000000000027,40.327581436675920656
0.188000000000000028,39.285280541549525424
0.189000000000000029,38.257975466352853289
0.190000000000000030,37.246342765696326182
0.191000000000000031,36.251048006170975668
0.192000000000000032,35.272705936911172842
0.193000000000000033,34.311848619555902928
0.194000000000000034,33.368901580007161556
0.195000000000000034,32.444167685207204954
0.196000000000000035,31.537818178399696478
0.197000000000000036,30.649890117231272768
0.198000000000000037,29.780289340275043486
0.199000000000000038,28.928798028198269066
0.200000000000000039,28.095085915002936616
0.201000000000000040,27.278724232255722626
0.202000000000000041,26.479201525574648457
0.203000000000000042,25.695940559500836997
0.204000000000000042,24.928315617037799967
0.205000000000000043,24.175669597531644683
0.206000000000000044,23.437330416238985720
0.207000000000000045,22.712626306970840062
0.208000000000000046,22.000899722619752907
0.209000000000000047,21.301519615008054132
0.210000000000000048,20.613891953870499663
0.211000000000000049,19.937468414034331232
0.212000000000000050,19.271753219590429751
0.213000000000000050,18.616308184062290820
0.214000000000000051,17.970756026565442909
0.215000000000000052,17.334782076229892311
0.216000000000000053,16.708134501402760463
0.217000000000000054,16.090623217132336009
0.218000000000000055,15.482117634986257926
0.219000000000000056,14.882543424223438677
0.220000000000000057,14.291878453555057149
0.221000000000000058,13.710148079003804611
0.222000000000000058,13.137419936449948210
0.223000000000000059,12.573798388042586538
0.224000000000000060,12.019418760377833522
0.225000000000000061,11.474441499767170427
0.226000000000000062,10.939046356527914128
0.227000000000000063,10.413426696445657882
0.228000000000000064,9.897784023742591586
0.229000000000000065,9.392322786327461870
0.230000000000000066,8.897245521044066408
0.231000000000000066,8.412748384256435230
0.232000000000000067,7.939017101553895728
0.233000000000000068,7.476223359723471518
0.234000000000000069,7.024521654485958777
0.235000000000000070,6.584046598857170807
0.236000000000000071,6.154910689386037248
0.237000000000000072,5.737202520921178106
0.238000000000000073,5.330985434938737555
0.239000000000000073,4.936296581782087856
0.240000000000000074,4.553146373362695343
0.241000000000000075,4.181518299893244972
0.242000000000000076,3.821369081999505202
0.243000000000000077,3.472629128018988265
0.244000000000000078,3.135203265372002335
0.245000000000000079,2.808971714514167495
0.246000000000000080,2.493791274081634590
0.247000000000000081,2.189496686353895605
0.248000000000000081,1.895902153024196624
0.249000000000000082,1.612802972423798220
0.250000000000000111,1.339977270739823201
0.251000000000000112,1.077187801347721186
0.252000000000000113,0.824183788101379378
0.253000000000000114,0.580702790248234235
0.254000000000000115,0.346472568522853075
0.255000000000000115,0.121212933892161881
0.256000000000000116,-0.095362437652852086
0.257000000000000117,-0.303544238963039226
0.258000000000000118,-0.503625827098919454
0.259000000000000119,-0.695901591244662554
0.260000000000000120,-0.880665402485364845
0.261000000000000121,-1.058209153121624890
0.262000000000000122,-1.228821391646229610
0.263000000000000123,-1.392786058057402299
0.264000000000000123,-1.550381322837120157
0.265000000000000124,-1.701878531682908147
0.266000000000000125,-1.847541256949102095
0.267000000000000126,-1.987624455727460271
0.268000000000000127,-2.122373733576559118
0.269000000000000128,-2.252024712090809899
0.270000000000000129,-2.376802497780988066
0.271000000000000130,-2.496921249113899677
0.272000000000000131,-2.612583838024968852
0.273000000000000131,-2.723981601769105865
0.274000000000000132,-2.831294180606942934
0.275000000000000133,-2.934689436529960727
0.276000000000000134,-3.034323448003591217
0.277000000000000135,-3.130340575546429527
0.278000000000000136,-3.222873592861239977
0.279000000000000137,-3.312043878183170698
0.280000000000000138,-3.397961660508105552
0.281000000000000139,-3.480726315403829485
0.282000000000000139,-3.560426705183952656
0.283000000000000140,-3.637141558334484159
0.284000000000000141,-3.710939883221514801
0.285000000000000142,-3.781881411271236892
0.286000000000000143,-3.850017064996751337
0.287000000000000144,-3.915389446445934230
0.288000000000000145,-3.978033341858620897
0.289000000000000146,-4.037976238544695562
0.290000000000000147,-4.095238850226905925
0.291000000000000147,-4.149835647328350419
0.292000000000000148,-4.201775388924569477
0.293000000000000149,-4.251061653320041600
0.294000000000000150,-4.297693364448132769
0.295000000000000151,-4.341665311530094939
0.296000000000000152,-4.382968659660758881
0.297000000000000153,-4.421591449215690695
0.298000000000000154,-4.457519082194961513
0.299000000000000155,-4.490734793831945737
0.300000000000000155,-4.521220108000695959
0.301000000000000156,-4.548955275151941535
0.302000000000000157,-4.573919691695307321
0.303000000000000158,-4.596092299923046909
0.304000000000000159,-4.615451967739248040
0.305000000000000160,-4.631977847616387756
0.306000000000000161,-4.645649714350004622
0.307000000000000162,-4.656448281320663796
0.308000000000000163,-4.664355495101007776
0.309000000000000163,-4.669354808364950316
0.310000000000000164,-4.671431431165457226
0.311000000000000165,-4.670572560747476842
0.312000000000000166,-4.666767590154071499
0.313000000000000167,-4.660008295966032499
0.314000000000000168,-4.650289005589408831
0.315000000000000169,-4.637606744571481698
0.316000000000000170,-4.621961364483955670
0.317000000000000171,-4.603355651963184414
0.318000000000000171,-4.581795419541221825
0.319000000000000172,-4.557289578939064612
0.320000000000000173,-4.529850197524691424
0.321000000000000174,-4.499492538663914409
0.322000000000000175,-4.466235086712272206
0.323000000000000176,-4.430099557411070421
0.324000000000000177,-4.391110894461080605
0.325000000000000178,-4.349297253053213907
0.326000000000000179,-4.304689971137857896
0.327000000000000179,-4.257323529212467150
0.328000000000000180,-4.207235499402221635
0.329000000000000181,-4.154466484600829901
0.330000000000000182,-4.099060048427154435
0.331000000000000183,-4.041062636740967662
0.332000000000000184,-3.980523491445167927
0.333000000000000185,-3.917494557284925349
0.334000000000000186,-3.852030382335117853
0.335000000000000187,-3.784188012847074845
0.336000000000000187,-3.714026883104134757
0.337000000000000188,-3.641608700912633445
0.338000000000000189,-3.566997329331773159
0.339000000000000190,-3.490258665221392054
0.340000000000000191,-3.411460515161986784
0.341000000000000192,-3.330672469276546366
0.342000000000000193,-3.247965773458029837
0.343000000000000194,-3.163413200481434373
0.344000000000000195,-3.077088920453520782
0.345000000000000195,-2.989068371028476445
0.346000000000000196,-2.899428127792367249
0.347000000000000197,-2.808245775194635918
0.348000000000000198,-2.715599778380614282
0.349000000000000199,-2.621569356254766170
0.350000000000000200,-2.526234356081345389
0.351000000000000201,-2.429675129905783937
0.352000000000000202,-2.331972413058255533
0.353000000000000203,-2.233207204978922000
0.354000000000000203,-2.133460652583441863
0.355000000000000204,-2.032813936367033669
0.356000000000000205,-1.931348159425831934
0.357000000000000206,-1.829144239555373419
0.358000000000000207,-1.726282804567888629
0.359000000000000208,-1.622844090952937579
0.360000000000000209,-1.518907845989085237
0.361000000000000210,-1.414553233398708754
0.362000000000000210,-1.309858742622788119
0.363000000000000211,-1.204902101778351220
0.364000000000000212,-1.099760194347682019
0.365000000000000213,-0.994508979635443269
0.366000000000000214,-0.889223417017989903
0.367000000000000215,-0.783977393997566718
0.368000000000000216,-0.678843658063570721
0.369000000000000217,-0.573893752352952147
0.370000000000000218,-0.469197955092607810
0.371000000000000218,-0.364825222797778737
0.372000000000000219,-0.260843137192648178
0.373000000000000220,-0.157317855811634072
0.374000000000000221,-0.054314066233300172
0.375000000000000222,0.048105056107794475
0.376000000000000223,0.149877886591427895
0.377000000000000224,0.250944386629765426
0.378000000000000225,0.351246135503293311
0.379000000000000226,0.450726358889049272
0.380000000000000226,0.549329954159306966
0.381000000000000227,0.647003512532293157
0.382000000000000228,0.743695338159312547
0.383000000000000229,0.839355464235203685
0.384000000000000230,0.933935666221352156
0.385000000000000231,1.027389472271941884
0.386000000000000232,1.119672170955914536
0.387000000000000233,1.210740816368024442
0.388000000000000234,1.300554230723321991
0.389000000000000234,1.389073004529816302
0.390000000000000235,1.476259494434572161
0.391000000000000236,1.562077818838246701
0.392000000000000237,1.646493851373235007
0.393000000000000238,1.729475212339841805
0.394000000000000239,1.810991258194576847
0.395000000000000240,1.891013069183746564
0.396000000000000241,1.969513435214586439
0.397000000000000242,2.046466840055157554
0.398000000000000242,2.121849443952842140
0.399000000000000243,2.195639064760014580
0.400000000000000244,2.267815157654077041
0.401000000000000245,2.338358793537048452
0.402000000000000246,2.407252636198742746
0.403000000000000247,2.474480918325447920
0.404000000000000248,2.540029416434216092
0.405000000000000249,2.603885424811095639
0.406000000000000250,2.666037728529539574
0.407000000000000250,2.726476575623259180
0.408000000000000251,2.785193648485785989
0.409000000000000252,2.842182034566779869
0.410000000000000253,2.897436196433203381
0.411000000000000254,2.950951941261158673
0.412000000000000255,3.002726389822189645
0.413000000000000256,3.052757945025592612
0.414000000000000257,3.101046260076243843
0.415000000000000258,3.147592206305136919
0.416000000000000258,3.192397840727891012
0.417000000000000259,3.235466373384160654
0.418000000000000260,3.276802134508895570
0.419000000000000261,3.316410541584295490
0.420000000000000262,3.354298066319133742
0.421000000000000263,3.390472201600216007
0.422000000000000264,3.424941428458608161
0.423000000000000265,3.457715183091427669
0.424000000000000266,3.488803823977784102
0.425000000000000266,3.518218599125896962
0.426000000000000267,3.545971613486189167
0.427000000000000268,3.572075796563574102
0.428000000000000269,3.596544870260201865
0.429000000000000270,3.619393316978233521
0.430000000000000271,3.640636348010508616
0.431000000000000272,3.660289872245240161
0.432000000000000273,3.678370465209315654
0.433000000000000274,3.694895338473133339
0.434000000000000274,3.709882309438408576
0.435000000000000275,3.723349771528866370
0.436000000000000276,3.735316664802299957
0.437000000000000277,3.745802447001064017
0.438000000000000278,3.754827065056721036
0.439000000000000279,3.762410927063233768
0.440000000000000280,3.768574874731821289
0.441000000000000281,3.773340156339462848
0.442000000000000282,3.776728400181635692
0.443000000000000282,3.778761588539067962
0.444000000000000283,3.779462032166821306
0.445000000000000284,3.778852345313291838
0.446000000000000285,3.776955421275549618
0.447000000000000286,3.773794408496423447
0.448000000000000287,3.769392687207999693
0.449000000000000288,3.763773846625123376
0.450000000000000289,3.756961662691765014
0.451000000000000290,3.748980076382266269
0.452000000000000290,3.739853172558729177
0.453000000000000291,3.729605159385037005
0.454000000000000292,3.718260348297374840
0.455000000000000293,3.705843134530363070
0.456000000000000294,3.692377978197375121
0.457000000000000295,3.677889385922977539
0.458000000000000296,3.662401893024834543
0.459000000000000297,3.645940046242004851
0.460000000000000298,3.628528387005874212
0.461000000000000298,3.610191435249728187
0.462000000000000299,3.590953673752287578
0.463000000000000300,3.570839533010332190
0.464000000000000301,3.549873376634987032
0.465000000000000302,3.528079487265999070
0.466000000000000303,3.505482052997899167
0.467000000000000304,3.482105154311785356
0.468000000000000305,3.457972751505928866
0.469000000000000306,3.433108672618433221
0.470000000000000306,3.407536601834718848
0.471000000000000307,3.381280068372439551
0.472000000000000308,3.354362435836308443
0.473000000000000309,3.326806892035017338
0.474000000000000310,3.298636439252384811
0.475000000000000311,3.269873884964553667
0.476000000000000312,3.240541832995204707
0.477000000000000313,3.210662675100294905
0.478000000000000314,3.180258582974049730
0.479000000000000314,3.149351500667639137
0.480000000000000315,3.117963137412014696
0.481000000000000316,3.086114960836274790
0.482000000000000317,3.053828190572929202
0.483000000000000318,3.021123792241342088
0.484000000000000319,2.988022471800701574
0.485000000000000320,2.954544670263749229
0.486000000000000321,2.920710558762633191
0.487000000000000322,2.886540033958143958
0.488000000000000322,2.852052713783673088
0.489000000000000323,2.817267933515313239
0.490000000000000324,2.782204742159433586
0.491000000000000325,2.746881899149240525
0.492000000000000326,2.711317871341807795
0.493000000000000327,2.675530830307184971
0.494000000000000328,2.639538649901159939
0.495000000000000329,2.603358904113501016
0.496000000000000330,2.567008865183366684
0.497000000000000330,2.530505501973859595
0.498000000000000331,2.493865478597631746
0.499000000000000332,2.457105153285707111
0.500000000000000333,2.420240577491578726
0.501000000000000334,2.383287495222957020
0.502000000000000335,2.346261342593495502
0.503000000000000336,2.309177247587035797
0.504000000000000337,2.272050030026927736
0.505000000000000338,2.234894201743192976
0.506000000000000338,2.197723966930355211
0.507000000000000339,2.160553222688896824
0.508000000000000340,2.123395559743430638
0.509000000000000341,2.086264263330817492
0.510000000000000342,2.049172314251514582
0.511000000000000343,2.012132390077663757
0.512000000000000344,1.975156866511465825
0.513000000000000345,1.938257818887598294
0.514000000000000346,1.901447023813464199
0.515000000000000346,1.864735960941295456
0.516000000000000347,1.828135814866186148
0.517000000000000348,1.791657477144283250
0.518000000000000349,1.755311548425476875
0.519000000000000350,1.719108340695153059
0.520000000000000351,1.683057879619491048
0.521000000000000352,1.647169906989184529
0.522000000000000353,1.611453883256371400
0.523000000000000353,1.575918990159769217
0.524000000000000354,1.540574133433218140
0.525000000000000355,1.505427945592739292
0.526000000000000356,1.470488788797634117
0.527000000000000357,1.435764757780995993
0.528000000000000358,1.401263682845278913
0.529000000000000359,1.366993132918718157
0.530000000000000360,1.332960418668359681
0.531000000000000361,1.299172595665740060
0.532000000000000361,1.265636467601256365
0.533000000000000362,1.232358589543454563
0.534000000000000363,1.199345271239543376
0.535000000000000364,1.166602580453540705
0.536000000000000365,1.134136346338599832
0.537000000000000366,1.101952162840168503
0.538000000000000367,1.070055392126695093
0.539000000000000368,1.038451168044768336
0.540000000000000369,1.007144399595621298
0.541000000000000369,0.976139774430069829
0.542000000000000370,0.945441762359038762
0.543000000000000371,0.915054618876921189
0.544000000000000372,0.884982388695122246
0.545000000000000373,0.855228909283247019
0.546000000000000374,0.825797814415431097
0.547000000000000375,0.796692537719474125
0.548000000000000376,0.767916316226464279
0.549000000000000377,0.739472193918722098
0.550000000000000377,0.711363025273903604
0.551000000000000378,0.683591478803270092
0.552000000000000379,0.656160040582168258
0.553000000000000380,0.629071017770814533
0.554000000000000381,0.602326542123632680
0.555000000000000382,0.575928573485398498
0.556000000000000383,0.549878903272547293
0.557000000000000384,0.524179157938088336
0.558000000000000385,0.498830802418604169
0.559000000000000385,0.473835143561898320
0.560000000000000386,0.449193333533960459
0.561000000000000387,0.424906373203890908
0.562000000000000388,0.400975115505599888
0.563000000000000389,0.377400268775048120
0.564000000000000390,0.354182400061986813
0.565000000000000391,0.331321938415055528
0.566000000000000392,0.308819178139298711
0.567000000000000393,0.286674282025137228
0.568000000000000393,0.264887284547892010
0.569000000000000394,0.243458095037019845
0.570000000000000395,0.222386500814311050
0.571000000000000396,0.201672170300254805
0.572000000000000397,0.181314656087911974
0.573000000000000398,0.161313397983652573
0.574000000000000399,0.141667726014151146
0.575000000000000400,0.122376863399073610
0.576000000000000401,0.103439929488965937
0.577000000000000401,0.084855942667849529
0.578000000000000402,0.066623823220093858
0.579000000000000403,0.048742396161189500
0.580000000000000404,0.031210394032038395
0.581000000000000405,0.014026459656457307
0.582000000000000406,-0.002810851138403197
0.583000000000000407,-0.019303066838973072
0.584000000000000408,-0.035451797599736344
0.585000000000000409,-0.051258732635435775
0.586000000000000409,-0.066725637651213379
0.587000000000000410,-0.081854352310767500
0.588000000000000411,-0.096646787742652743
0.589000000000000412,-0.111104924084821949
0.590000000000000413,-0.125230808067412547
0.591000000000000414,-0.139026550633841950
0.592000000000000415,-0.152494324600209230
0.593000000000000416,-0.165636362352960503
0.594000000000000417,-0.178454953584809867
0.595000000000000417,-0.190952443068810568
0.596000000000000418,-0.203131228470542602
0.597000000000000419,-0.214993758198260776
0.598000000000000420,-0.226542529290931688
0.599000000000000421,-0.237780085343972047
0.600000000000000422,-0.248709014472583062
0.601000000000000423,-0.259331947312452182
0.602000000000000424,-0.269651555057680792
0.603000000000000425,-0.279670547535734726
0.604000000000000425,-0.289391671319145671
0.605000000000000426,-0.298817707873799077
0.606000000000000427,-0.307951471743544869
0.607000000000000428,-0.316795808770840959
0.608000000000000429,-0.325353594353245235
0.609000000000000430,-0.333627731735362587
0.610000000000000431,-0.341621150336094526
0.611000000000000432,-0.349336804110780552
0.612000000000000433,-0.356777669947982046
0.613000000000000433,-0.363946746100612117
0.614000000000000434,-0.370847050651031129
0.615000000000000435,-0.377481620009820940
0.616000000000000436,-0.383853507447907361
0.617000000000000437,-0.389965781661660515
0.618000000000000438,-0.395821525370636196
