# hydroxyapatite-001-ph14_PROPANE-AC
# h[nm],U(h)[kJ/mol]
0.149999999999999994,116.903494840578630942
0.150999999999999995,114.684975341548351935
0.151999999999999996,112.755143584067440088
0.152999999999999997,110.899507990982598926
0.153999999999999998,109.046735527742470140
0.154999999999999999,107.188179513900806228
0.156000000000000000,105.336522615149306148
0.157000000000000001,103.506648854297139906
0.158000000000000002,101.708485512303880682
0.159000000000000002,99.945772336055682672
0.160000000000000003,98.217347014830693297
0.161000000000000004,96.519138371223135664
0.162000000000000005,94.846003309544997251
0.163000000000000006,93.193075568934204966
0.164000000000000007,91.556573869997237125
0.165000000000000008,89.934147108597045417
0.166000000000000009,88.324879850154317751
0.167000000000000010,86.729082581045844336
0.168000000000000010,85.147971895130652342
0.169000000000000011,83.583319669443980615
0.170000000000000012,82.037124556485494509
0.171000000000000013,80.511337175771842567
0.172000000000000014,79.007653378082167706
0.173000000000000015,77.527377828095126233
0.174000000000000016,76.071352268879351755
0.175000000000000017,74.639938344941597848
0.176000000000000018,73.233042909441564916
0.177000000000000018,71.850173558737338908
0.178000000000000019,70.490513091091060005
0.179000000000000020,69.153003185023848687
0.180000000000000021,67.836429475478183804
0.181000000000000022,66.539502122266199535
0.182000000000000023,65.260927753785352934
0.183000000000000024,63.999470236261458922
0.184000000000000025,62.753999021235543410
0.185000000000000026,61.523524852707566879
0.186000000000000026,60.307223384006576339
0.187000000000000027,59.104447790308157096
0.188000000000000028,57.914731799802439127
0.189000000000000029,56.737784740973857822
0.190000000000000030,55.573480250398475278
0.191000000000000031,54.421840237043696220
0.192000000000000032,53.283015583407973281
0.193000000000000033,52.157264904656969406
0.194000000000000034,51.044932503470576535
0.195000000000000034,49.946426465708768205
0.196000000000000035,48.862197651612170546
0.197000000000000036,47.792720157228110622
0.198000000000000037,46.738473656547384394
0.199000000000000038,45.699927889721180918
0.200000000000000039,44.677529438243915649
0.201000000000000040,43.671690824370209327
0.202000000000000041,42.682781888558075423
0.203000000000000042,41.711123334015908881
0.204000000000000042,40.756982279667852254
0.205000000000000043,39.820569630011000584
0.206000000000000044,38.902039050293566902
0.207000000000000045,38.001487326105760189
0.208000000000000046,37.118955885846808940
0.209000000000000047,36.254433270774782727
0.210000000000000048,35.407858348803678439
0.211000000000000049,34.579124083431842962
0.212000000000000050,33.768081686910321082
0.213000000000000050,32.974545005944840170
0.214000000000000051,32.198295007995540118
0.215000000000000052,31.439084255907157939
0.216000000000000053,30.696641277627442435
0.217000000000000054,29.970674755748397899
0.218000000000000055,29.260877478248509931
0.219000000000000056,28.566930006938253683
0.220000000000000057,27.888504033606714927
0.221000000000000058,27.225265405704607957
0.222000000000000058,26.576876813583332648
0.223000000000000059,25.943000139908683366
0.224000000000000060,25.323298478959252122
0.225000000000000061,24.717437839217833329
0.226000000000000062,24.125088547088061830
0.227000000000000063,23.545926372849994124
0.228000000000000064,22.979633402238789586
0.229000000000000065,22.425898678420388421
0.230000000000000066,21.884418639776335169
0.231000000000000066,21.354897378912699679
0.232000000000000067,20.837046747791045931
0.233000000000000068,20.330586332941713579
0.234000000000000069,19.835243323455767239
0.235000000000000070,19.350752292944044086
0.236000000000000071,18.876854914971552546
0.237000000000000072,18.413299629686786574
0.238000000000000073,17.959841277521668701
0.239000000000000073,17.516240713985204991
0.240000000000000074,17.082264417746827689
0.241000000000000075,16.657684102438452101
0.242000000000000076,16.242276340917392474
0.243000000000000077,15.835822209145035799
0.244000000000000078,15.438106955362073336
0.245000000000000079,15.048919698887166518
0.246000000000000080,14.668053161639269533
0.247000000000000081,14.295303434383313856
0.248000000000000081,13.930469778726934038
0.249000000000000082,13.573354465046994832
0.250000000000000111,13.223762645795108739
0.251000000000000112,12.881502263015709886
0.252000000000000113,12.546383988399753662
0.253000000000000114,12.218221193787448087
0.254000000000000115,11.896829949712454777
0.255000000000000115,11.582029049342997595
0.256000000000000116,11.273640055012155159
0.257000000000000117,10.971487364432112699
0.258000000000000118,10.675398293648902026
0.259000000000000119,10.385203173805400922
0.260000000000000120,10.100735458835163882
0.261000000000000121,9.821831841301781552
0.262000000000000122,9.548332373719329524
0.263000000000000123,9.280080592836323916
0.264000000000000123,9.016923644530093540
0.265000000000000124,8.758712407138311562
0.266000000000000125,8.505301611243433868
0.267000000000000126,8.256549954121528145
0.268000000000000127,8.012320207264730598
0.269000000000000128,7.772479315584917003
0.270000000000000129,7.536898487101273858
0.271000000000000130,7.305453272104697859
0.272000000000000131,7.078023630975995850
0.273000000000000131,6.854493990010270821
0.274000000000000132,6.634753284766638615
0.275000000000000133,6.418694990618439178
0.276000000000000134,6.206217140324815418
0.277000000000000135,5.997222328579145056
0.278000000000000136,5.791617703612347512
0.279000000000000137,5.589314946040732757
0.280000000000000138,5.390230235248241186
0.281000000000000139,5.194284203681233336
0.282000000000000139,5.001401879512156867
0.283000000000000140,4.811512618195287416
0.284000000000000141,4.624550023494928830
0.285000000000000142,4.440451858613675640
0.286000000000000143,4.259159948086550962
0.287000000000000144,4.080620071136690896
0.288000000000000145,3.904781847209433998
0.289000000000000146,3.731598614416624660
0.290000000000000147,3.561027301629804409
0.291000000000000147,3.393028294962806335
0.292000000000000148,3.227565299379548946
0.293000000000000149,3.064605196153923128
0.294000000000000150,2.904117896894601536
0.295000000000000151,2.746076194829968564
0.296000000000000152,2.590455614027259656
0.297000000000000153,2.437234257195832754
0.298000000000000154,2.286392652697864403
0.299000000000000155,2.137913601361148608
0.300000000000000155,1.991782023658270617
0.301000000000000156,1.847984807784875727
0.302000000000000157,1.706510659136944996
0.303000000000000158,1.567349951653945528
0.304000000000000159,1.430494581460956205
0.305000000000000160,1.295937823209210915
0.306000000000000161,1.163674189480900845
0.307000000000000162,1.033699293590700119
0.308000000000000163,0.906009716083969296
0.309000000000000163,0.780602875199296831
0.310000000000000164,0.657476901531939162
0.311000000000000165,0.536630517104414451
0.312000000000000166,0.418062919021218171
0.313000000000000167,0.301773667856540251
0.314000000000000168,0.187762580897027215
0.315000000000000169,0.076029630335870735
0.316000000000000170,-0.033425153509802463
0.317000000000000171,-0.140601773909264344
0.318000000000000171,-0.245500354328909320
0.319000000000000172,-0.348121219936561643
0.320000000000000173,-0.448464974011273942
0.321000000000000174,-0.546532569288338266
0.322000000000000175,-0.642325374285492856
0.323000000000000176,-0.735845234671348214
0.324000000000000177,-0.827094529750775687
0.325000000000000178,-0.916076224154425467
0.326000000000000179,-1.002793914831121791
0.327000000000000179,-1.087251873451633211
0.328000000000000180,-1.169455084341629370
0.329000000000000181,-1.249409278069573581
0.330000000000000182,-1.327120960821965401
0.331000000000000183,-1.402597439704710292
0.332000000000000184,-1.475846844114034440
0.333000000000000185,-1.546878143324730281
0.334000000000000186,-1.615701160446783913
0.335000000000000187,-1.682326582903932444
0.336000000000000187,-1.746765969589638035
0.337000000000000188,-1.809031754856819774
0.338000000000000189,-1.869137249498549425
0.339000000000000190,-1.927096638876580004
0.340000000000000191,-1.982924978353882706
0.341000000000000192,-2.036638186186532806
0.342000000000000193,-2.088253034028352495
0.343000000000000194,-2.137787135200060362
0.344000000000000195,-2.185258930871830874
0.345000000000000195,-2.230687674306064849
0.346000000000000196,-2.274093413303559963
0.347000000000000197,-2.315496970993343950
0.348000000000000198,-2.354919925102810119
0.349000000000000199,-2.392384585840996003
0.350000000000000200,-2.427913972524062380
0.351000000000000201,-2.461531789067882947
0.352000000000000202,-2.493262398468468533
0.353000000000000203,-2.523130796386765518
0.354000000000000203,-2.551162583949966312
0.355000000000000204,-2.577383939876916052
0.356000000000000205,-2.601821592031035024
0.357000000000000206,-2.624502788499566641
0.358000000000000207,-2.645455268293285478
0.359000000000000208,-2.664707231756784811
0.360000000000000209,-2.682287310774718048
0.361000000000000210,-2.698224538854985699
0.362000000000000210,-2.712548321165736187
0.363000000000000211,-2.725288404598532388
0.364000000000000212,-2.736474847926048781
0.365000000000000213,-2.746137992118366178
0.366000000000000214,-2.754308430878001701
0.367000000000000215,-2.761016981449809116
0.368000000000000216,-2.766294655758175569
0.369000000000000217,-2.770172631919938677
0.370000000000000218,-2.772682226178149190
0.371000000000000218,-2.773854865297965766
0.372000000000000219,-2.773722059462810474
0.373000000000000220,-2.772315375705505680
0.374000000000000221,-2.769666411905957304
0.375000000000000222,-2.765806771383819473
0.376000000000000223,-2.760768038111900857
0.377000000000000224,-2.754581752572915043
0.378000000000000225,-2.747279388279723289
0.379000000000000226,-2.738892328976505475
0.380000000000000226,-2.729451846536025350
0.381000000000000227,-2.718989079565471645
0.382000000000000228,-2.707535012731539403
0.383000000000000229,-2.695120456812980958
0.384000000000000230,-2.681776029486933055
0.385000000000000231,-2.667532136853624003
0.386000000000000232,-2.652418955701894010
0.387000000000000233,-2.636466416516694000
0.388000000000000234,-2.619704187227747560
0.389000000000000234,-2.602161657697452224
0.390000000000000235,-2.583867924944347028
0.391000000000000236,-2.564851779097488738
0.392000000000000237,-2.545141690075580332
0.393000000000000238,-2.524765794983863998
0.394000000000000239,-2.503751886220450196
0.395000000000000240,-2.482127400283079766
0.396000000000000241,-2.459919407266229818
0.397000000000000242,-2.437154601037721413
0.398000000000000242,-2.413859290083370190
0.399000000000000243,-2.390059389007342272
0.400000000000000244,-2.365780410675434986
0.401000000000000245,-2.341047458987982832
0.402000000000000246,-2.315885222268437182
0.403000000000000247,-2.290317967253416409
0.404000000000000248,-2.264369533669631007
0.405000000000000249,-2.238063329382679711
0.406000000000000250,-2.211422326102532310
0.407000000000000250,-2.184469055630303469
0.408000000000000251,-2.157225606630644332
0.409000000000000252,-2.129713621914095079
0.410000000000000253,-2.101954296213492945
0.411000000000000254,-2.073968374438604823
0.412000000000000255,-2.045776150393002535
0.413000000000000256,-2.017397465937365464
0.414000000000000257,-1.988851710583202870
0.415000000000000258,-1.960157821501355979
0.416000000000000258,-1.931334283929422968
0.417000000000000259,-1.902399131962591028
0.418000000000000260,-1.873369949712412108
0.419000000000000261,-1.844263872818195704
0.420000000000000262,-1.815097590295917884
0.421000000000000263,-1.785887346709754242
0.422000000000000264,-1.756648944651475031
0.423000000000000265,-1.727397747513232051
0.424000000000000266,-1.698148682539582621
0.425000000000000266,-1.668916244144615035
0.426000000000000267,-1.639714497480579070
0.427000000000000268,-1.610557082244508553
0.428000000000000269,-1.581457216709645008
0.429000000000000270,-1.552427701968880802
0.430000000000000271,-1.523480926377470457
0.431000000000000272,-1.494628870182889147
0.432000000000000273,-1.465883110329716077
0.433000000000000274,-1.437254825427964899
0.434000000000000274,-1.408754800873416091
0.435000000000000275,-1.380393434108942774
0.436000000000000276,-1.352180740016089233
0.437000000000000277,-1.324126356426408746
0.438000000000000278,-1.296239549742530306
0.439000000000000279,-1.268529220659115442
0.440000000000000280,-1.241003909974182751
0.441000000000000281,-1.213671804481658345
0.442000000000000282,-1.186540742936308845
0.443000000000000282,-1.159618222082390293
0.444000000000000283,-1.132911402737871942
0.445000000000000284,-1.106427115926194915
0.446000000000000285,-1.080171869047868105
0.447000000000000286,-1.054151852084678431
0.448000000000000287,-1.028372943829200636
0.449000000000000288,-1.002840718133029885
0.450000000000000289,-0.977560450167037187
0.451000000000000290,-0.952537122687479809
0.452000000000000290,-0.927775432301991998
0.453000000000000291,-0.903279795729667656
0.454000000000000292,-0.879054356049856822
0.455000000000000293,-0.855102988934386188
0.456000000000000294,-0.831429308858306348
0.457000000000000295,-0.808036675284408035
0.458000000000000296,-0.784928198817023581
0.459000000000000297,-0.762106747320880684
0.460000000000000298,-0.739574952000943031
0.461000000000000298,-0.717335213439457942
0.462000000000000299,-0.695389707586591355
0.463000000000000300,-0.673740391701245001
0.464000000000000301,-0.652389010238886180
0.465000000000000302,-0.631337100683400765
0.466000000000000303,-0.610585999320092498
0.467000000000000304,-0.590136846947289628
0.468000000000000305,-0.569990594524054872
0.469000000000000306,-0.550148008751712769
0.470000000000000306,-0.530609677587172701
0.471000000000000307,-0.511376015685943486
0.472000000000000308,-0.492447269773203744
0.473000000000000309,-0.473823523941175218
0.474000000000000310,-0.455504704871358246
0.475000000000000311,-0.437490586980208818
0.476000000000000312,-0.419780797487137147
0.477000000000000313,-0.402374821403595706
0.478000000000000314,-0.385272006442370085
0.479000000000000314,-0.368471567846233250
0.480000000000000315,-0.351972593135135570
0.481000000000000316,-0.335774046771403989
0.482000000000000317,-0.319874774742347823
0.483000000000000318,-0.304273509059903191
0.484000000000000319,-0.288968872176938896
0.485000000000000320,-0.273959381320049489
0.486000000000000321,-0.259243452738633195
0.487000000000000322,-0.244819405870245616
0.488000000000000322,-0.230685467422163976
0.489000000000000323,-0.216839775369386201
0.490000000000000324,-0.203280382869102938
0.491000000000000325,-0.190005262091971078
0.492000000000000326,-0.177012307970411120
0.493000000000000327,-0.164299341864383525
0.494000000000000328,-0.151864115144983575
0.495000000000000329,-0.139704312696385530
0.496000000000000330,-0.127817556336626725
0.497000000000000330,-0.116201408157873901
0.498000000000000331,-0.104853373786686438
0.499000000000000332,-0.093770905565089754
0.500000000000000333,-0.082951405653055893
0.501000000000000334,-0.072392229053166043
0.502000000000000335,-0.062090686558283405
0.503000000000000336,-0.052044047623000189
0.504000000000000337,-0.042249543159733394
0.505000000000000338,-0.032704368260335938
0.506000000000000338,-0.023405684844142273
0.507000000000000339,-0.014350624233341991
0.508000000000000340,-0.005536289656657712
0.509000000000000341,0.003040241317693315
0.510000000000000342,0.011381914418814887
0.511000000000000343,0.019491696378660661
0.512000000000000344,0.027372572705318766
0.513000000000000345,0.035027545522972402
0.514000000000000346,0.042459631477503999
0.515000000000000346,0.049671859706718904
0.516000000000000347,0.056667269874105045
0.517000000000000348,0.063448910265033881
0.518000000000000349,0.070019835944401351
0.519000000000000350,0.076383106974551612
0.520000000000000351,0.082541786692463509
0.521000000000000352,0.088498940045061841
0.522000000000000353,0.094257631981626358
0.523000000000000353,0.099820925902175256
0.524000000000000354,0.105191882160742309
0.525000000000000355,0.110373556622482522
0.526000000000000356,0.115368999273534417
0.527000000000000357,0.120181252882506362
0.528000000000000358,0.124813351712625711
0.529000000000000359,0.129268320283356303
0.530000000000000360,0.133549172180544018
0.531000000000000361,0.137658908913946609
0.532000000000000361,0.141600518821177301
0.533000000000000362,0.145376976016955956
0.534000000000000363,0.148991239386704027
0.535000000000000364,0.152446251623416185
0.536000000000000365,0.155744938306831671
0.537000000000000366,0.158890207023875046
0.538000000000000367,0.161884946529423646
0.539000000000000368,0.164732025946347976
0.540000000000000369,0.167434294003959400
0.541000000000000369,0.169994578313797939
0.542000000000000370,0.172415684681912207
0.543000000000000371,0.174700396456644785
0.544000000000000372,0.176851473911008084
0.545000000000000373,0.178871653658759289
0.546000000000000374,0.180763648103276192
0.547000000000000375,0.182530144918350096
0.548000000000000376,0.184173806560002318
0.549000000000000377,0.185697269808521220
0.550000000000000377,0.187103145339828414
0.551000000000000378,0.188394017325370894
0.552000000000000379,0.189572443059714241
0.553000000000000380,0.190640952615036302
0.554000000000000381,0.191602048521746893
0.555000000000000382,0.192458205474416638
0.556000000000000383,0.193211870062326069
0.557000000000000384,0.193865460523796773
0.558000000000000385,0.194421366523662431
0.559000000000000385,0.194881948953088052
0.560000000000000386,0.195249539751067014
0.561000000000000387,0.195526441746903368
0.562000000000000388,0.195714928522980669
0.563000000000000389,0.195817244297163434
0.564000000000000390,0.195835603824188104
0.565000000000000391,0.195772192315379290
0.566000000000000392,0.195629165376103031
0.567000000000000393,0.195408648960286035
0.568000000000000393,0.195112739341477631
0.569000000000000394,0.194743503099796322
0.570000000000000395,0.194302977124228254
0.571000000000000396,0.193793168629718238
0.572000000000000397,0.193216055188455943
0.573000000000000398,0.192573584774910073
0.574000000000000399,0.191867675823976791
0.575000000000000400,0.191100217301830855
0.576000000000000401,0.190273068788925415
0.577000000000000401,0.189388060574645495
0.578000000000000402,0.188446993763174531
0.579000000000000403,0.187451640390104812
0.580000000000000404,0.186403743549289208
0.581000000000000405,0.185305017529567129
0.582000000000000406,0.184157147960875817
0.583000000000000407,0.182961791969348753
0.584000000000000408,0.181720578341004801
0.585000000000000409,0.180435107693602437
0.586000000000000409,0.179106952656296003
0.587000000000000410,0.177737658056691172
0.588000000000000411,0.176328741114970933
0.589000000000000412,0.174881691644683895
0.590000000000000413,0.173397972259893951
0.591000000000000414,0.171879018588324550
0.592000000000000415,0.170326239490177833
0.593000000000000416,0.168741017282314054
0.594000000000000417,0.167124707967479191
0.595000000000000417,0.165478641468251780
0.596000000000000418,0.163804121865487901
0.597000000000000419,0.162102427640882008
0.598000000000000420,0.160374811923466420
0.599000000000000421,0.158622502739701632
0.600000000000000422,0.156846703266950049
0.601000000000000423,0.155048592090069132
0.602000000000000424,0.153229323460867095
0.603000000000000425,0.151390027560186852
0.604000000000000425,0.149531810762426831
0.605000000000000426,0.147655755902230401
0.606000000000000427,0.145762922543128864
0.607000000000000428,0.143854347248020487
0.608000000000000429,0.141931043851115157
0.609000000000000430,0.139994003731366001
0.610000000000000431,0.138044196086995002
0.611000000000000432,0.136082568211078309
0.612000000000000433,0.134110045767966424
0.613000000000000433,0.132127533070333758
0.614000000000000434,0.130135913356773214
0.615000000000000435,0.128136049069720453
0.616000000000000436,0.126128782133586498
