# hydroxyapatite-001-ph14_CS-20788-AC
# h[nm],U(h)[kJ/mol]
0.149999999999999994,139.193037205344381846
0.150999999999999995,136.867312443708271985
0.151999999999999996,134.315730007031049809
0.152999999999999997,131.743232939470203746
0.153999999999999998,129.227348987704914407
0.154999999999999999,126.784546010699529006
0.156000000000000000,124.406450369877347839
0.157000000000000001,122.078201655250921931
0.158000000000000002,119.786635689680153405
0.159000000000000002,117.523001841069643092
0.160000000000000003,115.283004380919322784
0.161000000000000004,113.065751045883047254
0.162000000000000005,110.872450512289702829
0.163000000000000006,108.705259358236617118
0.164000000000000007,106.566428268534394874
0.165000000000000008,104.457764183386871082
0.166000000000000009,102.380362625509249597
0.167000000000000010,100.334542424186381027
0.168000000000000010,98.319914667039228107
0.169000000000000011,96.335527546821637657
0.170000000000000012,94.380042209388903984
0.171000000000000013,92.451908147181342201
0.172000000000000014,90.549518371158370655
0.173000000000000015,88.671333879244713216
0.174000000000000016,86.815973777586393112
0.175000000000000017,84.982272067187636821
0.176000000000000018,83.169304974137673980
0.177000000000000018,81.376394190124983652
0.178000000000000019,79.603091881828177634
0.179000000000000020,77.849153145789998121
0.180000000000000021,76.114500987365161677
0.181000000000000022,74.399188083962684459
0.182000000000000023,72.703358695238208043
0.183000000000000024,71.027213202155238037
0.184000000000000025,69.370976953347536664
0.185000000000000026,67.734874404447054985
0.186000000000000026,66.119108967941201627
0.187000000000000027,64.523848548171216066
0.188000000000000028,62.949216410061012539
0.189000000000000029,61.395286807773388205
0.190000000000000030,59.862084664974283044
0.191000000000000031,58.349588535408621226
0.192000000000000032,56.857736065349364196
0.193000000000000033,55.386431213863467349
0.194000000000000034,53.935552550249461490
0.195000000000000034,52.504962029898003095
0.196000000000000035,51.094513741627025638
0.197000000000000036,49.704062214495294825
0.198000000000000037,48.333469965098146304
0.199000000000000038,46.982614053720979541
0.200000000000000039,45.651391497006237330
0.201000000000000040,44.339723454490055587
0.202000000000000041,43.047558165791599549
0.203000000000000042,41.774872664294591118
0.204000000000000042,40.521673332196698425
0.205000000000000043,39.287995391486496999
0.206000000000000044,38.073901446606029708
0.207000000000000045,36.879479208261315648
0.208000000000000046,35.704838535088995854
0.209000000000000047,34.550107931708780029
0.210000000000000048,33.415430639083112396
0.211000000000000049,32.300960446995681252
0.212000000000000050,31.206857349687261660
0.213000000000000050,30.133283155008495413
0.214000000000000051,29.080397145509511603
0.215000000000000052,28.048351877247966968
0.216000000000000053,27.037289189222729391
0.217000000000000054,26.047336483608461322
0.218000000000000055,25.078603324676606690
0.219000000000000056,24.131178392671976951
0.220000000000000057,23.205126818133010147
0.221000000000000058,22.300487912321660389
0.222000000000000058,21.417273300621197052
0.223000000000000059,20.555465458010448998
0.224000000000000060,19.715016639021438749
0.225000000000000061,18.895848188913959120
0.226000000000000062,18.097850218110238529
0.227000000000000063,17.320881618167096150
0.228000000000000064,16.564770394655411678
0.229000000000000065,15.829314290189975267
0.230000000000000066,15.114281669433509592
0.231000000000000066,14.419412637102809072
0.232000000000000067,13.744420359759370598
0.233000000000000068,13.088992562392002483
0.234000000000000069,12.452793171425435403
0.235000000000000070,11.835464076747680195
0.236000000000000071,11.236626986578452048
0.237000000000000072,10.655885350441621995
0.238000000000000073,10.092826327107639273
0.239000000000000073,9.547022776089175267
0.240000000000000074,9.018035253061791323
0.241000000000000075,8.505413991410311070
0.242000000000000076,8.008700853935364350
0.243000000000000077,7.527431240568890125
0.244000000000000078,7.061135939720648125
0.245000000000000079,6.609342912591183783
0.246000000000000080,6.171579001426549027
0.247000000000000081,5.747371554243838609
0.248000000000000081,5.336249960018098371
0.249000000000000082,4.937747089682737567
0.250000000000000111,4.551400639554247007
0.251000000000000112,4.176754374946909820
0.252000000000000113,3.813359272791761789
0.253000000000000114,3.460774563022334327
0.254000000000000115,3.118568669333638077
0.255000000000000115,2.786320050670254567
0.256000000000000116,2.463617945453537406
0.257000000000000117,2.150063021123838958
0.258000000000000118,1.845267932056631199
0.259000000000000119,1.548857789314634026
0.260000000000000120,1.260470546029159644
0.261000000000000121,0.979757302467978652
0.262000000000000122,0.706382535048342808
0.263000000000000123,0.440024253700085133
0.264000000000000123,0.180374092077901504
0.265000000000000124,-0.072862664828552332
0.266000000000000125,-0.319967111130304016
0.267000000000000126,-0.561206803991230574
0.268000000000000127,-0.796835896627505980
0.269000000000000128,-1.027095315971161549
0.270000000000000129,-1.252212980724854541
0.271000000000000130,-1.472404055665160083
0.272000000000000131,-1.687871238197477863
0.273000000000000131,-1.898805073325771975
0.274000000000000132,-2.105384293370116122
0.275000000000000133,-2.307776178943568457
0.276000000000000134,-2.506136937883620242
0.277000000000000135,-2.700612099020576640
0.278000000000000136,-2.891336917855027444
0.279000000000000137,-3.078436791405585904
0.280000000000000138,-3.262027679676176461
0.281000000000000139,-3.442216531378023969
0.282000000000000139,-3.619101711723295089
0.283000000000000140,-3.792773430285147018
0.284000000000000141,-3.963314167091096518
0.285000000000000142,-4.130799095283390621
0.286000000000000143,-4.295296498840053268
0.287000000000000144,-4.456868184003627498
0.288000000000000145,-4.615569883211516178
0.289000000000000146,-4.771451650460170946
0.290000000000000147,-4.924558247168005387
0.291000000000000147,-5.074929517725534467
0.292000000000000148,-5.222600754038836612
0.293000000000000149,-5.367603048481323746
0.294000000000000150,-5.509963634771650298
0.295000000000000151,-5.649706216390415037
0.296000000000000152,-5.786851282236670002
0.297000000000000153,-5.921416409306630158
0.298000000000000154,-6.053416552251921878
0.299000000000000155,-6.182864319743408998
0.300000000000000155,-6.309770237629167333
0.301000000000000156,-6.434142998931930535
0.302000000000000157,-6.555989700782991925
0.303000000000000158,-6.675316068435263261
0.304000000000000159,-6.792126666539777702
0.305000000000000160,-6.906425097906117472
0.306000000000000161,-7.018214189999683938
0.307000000000000162,-7.127496169456636110
0.308000000000000163,-7.234272824921499812
0.309000000000000163,-7.338545658533178084
0.310000000000000164,-7.440316026402276073
0.311000000000000165,-7.539585268436944432
0.312000000000000166,-7.636354827885760699
0.313000000000000167,-7.730626360974882871
0.314000000000000168,-7.822401837023090998
0.315000000000000169,-7.911683629422327613
0.316000000000000170,-7.998474597873711289
0.317000000000000171,-8.082778162269049105
0.318000000000000171,-8.164598368606537093
0.319000000000000172,-8.243939947326870410
0.320000000000000173,-8.320808364451391270
0.321000000000000174,-8.395209865898815238
0.322000000000000175,-8.467151515350847646
0.323000000000000176,-8.536641226029493268
0.324000000000000177,-8.603687786741108567
0.325000000000000178,-8.668300882533181095
0.326000000000000179,-8.730491110301048963
0.327000000000000179,-8.790269989671456230
0.328000000000000180,-8.847649969480047005
0.329000000000000181,-8.902644430149441845
0.330000000000000182,-8.955267682263517770
0.331000000000000183,-9.005534961623135715
0.332000000000000184,-9.053462421057124843
0.333000000000000185,-9.099067119251603941
0.334000000000000186,-9.142367006849532629
0.335000000000000187,-9.183380910061480051
0.336000000000000187,-9.222128512017732760
0.337000000000000188,-9.258630332080793224
0.338000000000000189,-9.292907703327122348
0.339000000000000190,-9.324982748396241305
0.340000000000000191,-9.354878353894866549
0.341000000000000192,-9.382618143534324773
0.342000000000000193,-9.408226450168921673
0.343000000000000194,-9.431728286894170310
0.344000000000000195,-9.453149317353680914
0.345000000000000195,-9.472515825395475986
0.346000000000000196,-9.489854684208834712
0.347000000000000197,-9.505193325065071974
0.348000000000000198,-9.518559705777168034
0.349000000000000199,-9.529982278985411170
0.350000000000000200,-9.539489960368838339
0.351000000000000201,-9.547112096874828424
0.352000000000000202,-9.552878435052424066
0.353000000000000203,-9.556819089568305614
0.354000000000000203,-9.558964511978064849
0.355000000000000204,-9.559345459819180491
0.356000000000000205,-9.557992966086583664
0.357000000000000206,-9.554938309146285391
0.358000000000000207,-9.550212983136843192
0.359000000000000208,-9.543848668904143295
0.360000000000000209,-9.535877205509926569
0.361000000000000210,-9.526330562350093345
0.362000000000000210,-9.515240811914747354
0.363000000000000211,-9.502640103217897760
0.364000000000000212,-9.488560635921199804
0.365000000000000213,-9.473034635172322027
0.366000000000000214,-9.456094327175607717
0.367000000000000215,-9.437771915509284071
0.368000000000000216,-9.418099558201021182
0.369000000000000217,-9.397109345570397565
0.370000000000000218,-9.374833278844983298
0.371000000000000218,-9.351303249553797770
0.372000000000000219,-9.326551019700250578
0.373000000000000220,-9.300608202714380823
0.374000000000000221,-9.273506245182479901
0.375000000000000222,-9.245276409350362101
0.376000000000000223,-9.215949756395223957
0.377000000000000224,-9.185557130459375941
0.378000000000000225,-9.154129143437879534
0.379000000000000226,-9.121696160510957441
0.380000000000000226,-9.088288286411096095
0.381000000000000227,-9.053935352413416737
0.382000000000000228,-9.018666904037500487
0.383000000000000229,-8.982512189447708906
0.384000000000000230,-8.945500148538396701
0.385000000000000231,-8.907659402690162764
0.386000000000000232,-8.869018245182122229
0.387000000000000233,-8.829604632245400708
0.388000000000000234,-8.789446174742106876
0.389000000000000234,-8.748570130454178084
0.390000000000000235,-8.707003396965781405
0.391000000000000236,-8.664772505123217172
0.392000000000000237,-8.621903613055660998
0.393000000000000238,-8.578422500740424894
0.394000000000000239,-8.534354565095849665
0.395000000000000240,-8.489724815585468320
0.396000000000000241,-8.444557870316677040
0.397000000000000242,-8.398877952617329612
0.398000000000000242,-8.352708888073966165
0.399000000000000243,-8.306074102015088556
0.400000000000000244,-8.258996617423431275
0.401000000000000245,-8.211499053261171355
0.402000000000000246,-8.163603623192162928
0.403000000000000247,-8.115332134685582233
0.404000000000000248,-8.066705988485608714
0.405000000000000249,-8.017746178431957915
0.406000000000000250,-7.968473291616307463
0.407000000000000250,-7.918907508860097089
0.408000000000000251,-7.869068605499212943
0.409000000000000252,-7.818975952461653556
0.410000000000000253,-7.768648517624285432
0.411000000000000254,-7.718104867435345184
0.412000000000000255,-7.667363168789489869
0.413000000000000256,-7.616441191142676814
0.414000000000000257,-7.565356308854231493
0.415000000000000258,-7.514125503744141454
0.416000000000000258,-7.462765367853561038
0.417000000000000259,-7.411292106397143975
0.418000000000000260,-7.359721540895966641
0.419000000000000261,-7.308069112480223062
0.420000000000000262,-7.256349885351120577
0.421000000000000263,-7.204578550391897984
0.422000000000000264,-7.152769428917920891
0.423000000000000265,-7.100936476556408472
0.424000000000000266,-7.049093287246603445
0.425000000000000266,-6.997253097351284978
0.426000000000000267,-6.945428789871193942
0.427000000000000268,-6.893632898753933702
0.428000000000000269,-6.841877613289369719
0.429000000000000270,-6.790174782583852320
0.430000000000000271,-6.738535920105739763
0.431000000000000272,-6.686972208295176578
0.432000000000000273,-6.635494503231160301
0.433000000000000274,-6.584113339349417338
0.434000000000000274,-6.532838934204607817
0.435000000000000275,-6.481681193270945940
0.436000000000000276,-6.430649714775330317
0.437000000000000277,-6.379753794557416313
0.438000000000000278,-6.329002430951339520
0.439000000000000279,-6.278404329684039276
0.440000000000000280,-6.227967908785211115
0.441000000000000281,-6.177701303504353092
0.442000000000000282,-6.127612371230496180
0.443000000000000282,-6.077708696410317302
0.444000000000000283,-6.027997595460743874
0.445000000000000284,-5.978486121672219156
0.446000000000000285,-5.929181070098914041
0.447000000000000286,-5.880088982432724265
0.448000000000000287,-5.831216151857475438
0.449000000000000288,-5.782568627880605661
0.450000000000000289,-5.734152221139181549
0.451000000000000290,-5.685972508177654205
0.452000000000000290,-5.638034836194776744
0.453000000000000291,-5.590344327757196474
0.454000000000000292,-5.542905885477563466
0.455000000000000293,-5.495724196654901306
0.456000000000000294,-5.448803737875385522
0.457000000000000295,-5.402148779571597004
0.458000000000000296,-5.355763390538500701
0.459000000000000297,-5.309651442404669908
0.460000000000000298,-5.263816614057096999
0.461000000000000298,-5.218262396018376492
0.462000000000000299,-5.172992094774923721
0.463000000000000300,-5.128008837055029190
0.464000000000000301,-5.083315574055808028
0.465000000000000302,-5.038915085617999168
0.466000000000000303,-4.994809984347734932
0.467000000000000304,-4.951002719684574949
0.468000000000000305,-4.907495581915033434
0.469000000000000306,-4.864290706131027875
0.470000000000000306,-4.821390076132749947
0.471000000000000307,-4.778795528275347593
0.472000000000000308,-4.736508755259237979
0.473000000000000309,-4.694531309863544166
0.474000000000000310,-4.652864608622506282
0.475000000000000311,-4.611509935444570552
0.476000000000000312,-4.570468445174183714
0.477000000000000313,-4.529741167095978405
0.478000000000000314,-4.489329008381480079
0.479000000000000314,-4.449232757478338129
0.480000000000000315,-4.409453087442039454
0.481000000000000316,-4.369990559210354952
0.482000000000000317,-4.330845624820542028
0.483000000000000318,-4.292018630569581106
0.484000000000000319,-4.253509820117619356
0.485000000000000320,-4.215319337534932487
0.486000000000000321,-4.177447230292663960
0.487000000000000322,-4.139893452197695112
0.488000000000000322,-4.102657866271931297
0.489000000000000323,-4.065740247576560051
0.490000000000000324,-4.029140285981494429
0.491000000000000325,-3.992857588880577513
0.492000000000000326,-3.956891683852904684
0.493000000000000327,-3.921242021270869405
0.494000000000000328,-3.885907976855283330
0.495000000000000329,-3.850888854178229792
0.496000000000000330,-3.816183887114052986
0.497000000000000330,-3.781792242239180979
0.498000000000000331,-3.747713021181141357
0.499000000000000332,-3.713945262917609735
0.500000000000000333,-3.680487946025840618
0.501000000000000334,-3.647339990883197824
0.502000000000000335,-3.614500261819378668
0.503000000000000336,-3.581967569220952718
0.504000000000000337,-3.549740671588808905
0.505000000000000338,-3.517818277549160655
0.506000000000000338,-3.486199047818778318
0.507000000000000339,-3.454881597125014192
0.508000000000000340,-3.423864496081331588
0.509000000000000341,-3.393146273018990744
0.510000000000000342,-3.362725415775473348
0.511000000000000343,-3.332600373440396169
0.512000000000000344,-3.302769558059464039
0.513000000000000345,-3.273231346297203803
0.514000000000000346,-3.243984081059118729
0.515000000000000346,-3.215026073073870894
0.516000000000000347,-3.186355602436170997
0.517000000000000348,-3.157970920111107027
0.518000000000000349,-3.129870249400382054
0.519000000000000350,-3.102051787371327585
0.520000000000000351,-3.074513706249137446
0.521000000000000352,-3.047254154773139767
0.522000000000000353,-3.020271259517604889
0.523000000000000353,-2.993563126177787304
0.524000000000000354,-2.967127840821876639
0.525000000000000355,-2.940963471109379945
0.526000000000000356,-2.915068067476624059
0.527000000000000357,-2.889439664290031740
0.528000000000000358,-2.864076280967647214
0.529000000000000359,-2.838975923069691376
0.530000000000000360,-2.814136583358590293
0.531000000000000361,-2.789556242829184463
0.532000000000000361,-2.765232871709632168
0.533000000000000362,-2.741164430433640664
0.534000000000000363,-2.717348870584559428
0.535000000000000364,-2.693784135811927438
0.536000000000000365,-2.670468162721033156
0.537000000000000366,-2.647398881736056531
0.538000000000000367,-2.624574217937262866
0.539000000000000368,-2.601992091872955548
0.540000000000000369,-2.579650420346498940
0.541000000000000369,-2.557547117179169938
0.542000000000000370,-2.535680093949157055
0.543000000000000371,-2.514047260707357623
0.544000000000000372,-2.492646526670415419
0.545000000000000373,-2.471475800891517860
0.546000000000000374,-2.450532992909426611
0.547000000000000375,-2.429816013376219885
0.548000000000000376,-2.409322774664286460
0.549000000000000377,-2.389051191452954193
0.550000000000000377,-2.368999181295249112
0.551000000000000378,-2.349164665165260235
0.552000000000000379,-2.329545567986532895
0.553000000000000380,-2.310139819141943551
0.554000000000000381,-2.290945352965444659
0.555000000000000382,-2.271960109216215606
0.556000000000000383,-2.253182033535467532
0.557000000000000384,-2.234609077886503758
0.558000000000000385,-2.216239200978264545
0.559000000000000385,-2.198070368672890407
0.560000000000000386,-2.180100554377600197
0.561000000000000387,-2.162327739421323169
0.562000000000000388,-2.144749913416426512
0.563000000000000389,-2.127365074605926942
0.564000000000000390,-2.110171230196545622
0.565000000000000391,-2.093166396677947461
0.566000000000000392,-2.076348600128527178
0.567000000000000393,-2.059715876508104060
0.568000000000000393,-2.043266271937797196
0.569000000000000394,-2.026997842967478203
0.570000000000000395,-2.010908656831112751
0.571000000000000396,-1.994996791690234916
0.572000000000000397,-1.979260336866002445
0.573000000000000398,-1.963697393059975926
0.574000000000000399,-1.948306072564071956
0.575000000000000400,-1.933084499459852612
0.576000000000000401,-1.918030809807522274
0.577000000000000401,-1.903143151824900015
0.578000000000000402,-1.888419686056606039
0.579000000000000403,-1.873858585533735077
0.580000000000000404,-1.859458035924355768
0.581000000000000405,-1.845216235674973948
0.582000000000000406,-1.831131396143312884
0.583000000000000407,-1.817201741722595632
0.584000000000000408,-1.803425509957612860
0.585000000000000409,-1.789800951652777083
0.586000000000000409,-1.776326330972412437
0.587000000000000410,-1.762999925533525358
0.588000000000000411,-1.749820026491223146
0.589000000000000412,-1.736784938617066176
0.590000000000000413,-1.723892980370499428
0.591000000000000414,-1.711142483963619565
0.592000000000000415,-1.698531795419464085
0.593000000000000416,-1.686059274623997073
0.594000000000000417,-1.673723295372009590
0.595000000000000417,-1.661522245407168752
0.596000000000000418,-1.649454526456251013
0.597000000000000419,-1.637518554257949344
0.598000000000000420,-1.625712758586232098
0.599000000000000421,-1.614035583268575547
0.600000000000000422,-1.602485486199137554
0.601000000000000423,-1.591060939347094694
0.602000000000000424,-1.579760428760275559
0.603000000000000425,-1.568582454564268369
0.604000000000000425,-1.557525530957123205
0.605000000000000426,-1.546588186199814308
0.606000000000000427,-1.535768962602667598
0.607000000000000428,-1.525066416507713907
0.608000000000000429,-1.514479118267397784
0.609000000000000430,-1.504005652219434941
0.610000000000000431,-1.493644616658269531
0.611000000000000432,-1.483394623803032442
0.612000000000000433,-1.473254299762210229
