# hydroxyapatite-001-ph14_HISTIDINEZWITTER
# h[nm],U(h)[kJ/mol]
0.149999999999999994,132.891168232486336365
0.150999999999999995,128.946404849091379674
0.151999999999999996,126.291795631586367676
0.152999999999999997,123.999841412328095203
0.153999999999999998,121.707807990037423451
0.154999999999999999,119.325223645745111867
0.156000000000000000,116.873802726805209318
0.157000000000000001,114.406030206103565661
0.158000000000000002,111.968649878505559059
0.159000000000000002,109.590358367290946262
0.160000000000000003,107.281403204280167074
0.161000000000000004,105.038080923241381015
0.162000000000000005,102.848394877287205418
0.163000000000000006,100.697080571927330084
0.164000000000000007,98.569318650541376314
0.165000000000000008,96.453049365962073125
0.166000000000000009,94.340084018933666243
0.167000000000000010,92.226310749262239597
0.168000000000000010,90.111297114074190517
0.169000000000000011,87.997550508341845443
0.170000000000000012,85.889639126588761542
0.171000000000000013,83.793316996338660374
0.172000000000000014,81.714744605828599333
0.173000000000000015,79.659854905005317960
0.174000000000000016,77.633883346209998422
0.175000000000000017,75.641059110658645182
0.176000000000000018,73.684441102668955637
0.177000000000000018,71.765874918381712178
0.178000000000000019,69.886044161278647380
0.179000000000000020,68.044589770267364770
0.180000000000000021,66.240273306972639489
0.181000000000000022,64.471163541517128692
0.182000000000000023,62.734829539990755620
0.183000000000000024,61.028527347896577737
0.184000000000000025,59.349370994554547565
0.185000000000000026,57.694481745907069126
0.186000000000000026,56.061112227467539526
0.187000000000000027,54.446744207044403652
0.188000000000000028,52.849160491008298379
0.189000000000000029,51.266492595878560223
0.190000000000000030,49.697246669715944734
0.191000000000000031,48.140310620866920033
0.192000000000000032,46.594945629787289931
0.193000000000000033,45.060765233245241745
0.194000000000000034,43.537705032860500864
0.195000000000000034,42.025985837799304079
0.196000000000000035,40.526072742896957379
0.197000000000000036,39.038632299457546537
0.198000000000000037,37.564489580613745545
0.199000000000000038,36.104586594536087318
0.200000000000000039,34.659943169933839613
0.201000000000000040,33.231621137867840332
0.202000000000000041,31.820692367110364529
0.203000000000000042,30.428210979604727981
0.204000000000000042,29.055189878370629941
0.205000000000000043,27.702581561307180635
0.206000000000000044,26.371263068515396810
0.207000000000000045,25.062024815055544025
0.208000000000000046,23.775562992124157802
0.209000000000000047,22.512475173969733078
0.210000000000000048,21.273258741961800666
0.211000000000000049,20.058311727721211071
0.212000000000000050,18.867935680961561928
0.213000000000000050,17.702340181829320898
0.214000000000000051,16.561648639501481028
0.215000000000000052,15.445905046381625425
0.216000000000000053,14.355081388513090346
0.217000000000000054,13.289085446195096907
0.218000000000000055,12.247768752924168112
0.219000000000000056,11.230934514626927267
0.220000000000000057,10.238345323867925174
0.221000000000000058,9.269730534692840251
0.222000000000000058,8.324793192540161257
0.223000000000000059,7.403216439941270544
0.224000000000000060,6.504669342344753247
0.225000000000000061,5.628812099283104331
0.226000000000000062,4.775300624259017468
0.227000000000000063,3.943790492241180168
0.228000000000000064,3.133940266654167139
0.229000000000000065,2.345414228379831822
0.230000000000000066,1.577884537750803728
0.231000000000000066,0.831032867001716413
0.232000000000000067,0.104551545363800361
0.233000000000000068,-0.601855737855714779
0.234000000000000069,-1.288473625070660988
0.235000000000000070,-1.955575129320673344
0.236000000000000071,-2.603421972867118850
0.237000000000000072,-3.232265179231708974
0.238000000000000073,-3.842345874253711546
0.239000000000000073,-4.433896254082296373
0.240000000000000074,-5.007140680754540440
0.241000000000000075,-5.562296869018820367
0.242000000000000076,-6.099577131255594864
0.243000000000000077,-6.619189650636752908
0.244000000000000078,-7.121339755978524977
0.245000000000000079,-7.606231175022796442
0.246000000000000080,-8.074067246077088811
0.247000000000000081,-8.525052071016810729
0.248000000000000081,-8.959391595571334577
0.249000000000000082,-9.377294605555974272
0.250000000000000111,-9.778973630259805816
0.251000000000000112,-10.164645746540486471
0.252000000000000113,-10.534533279310911880
0.253000000000000114,-10.888864396020888847
0.254000000000000115,-11.227873594449883754
0.255000000000000115,-11.551802084631374257
0.256000000000000116,-11.860898067039622461
0.257000000000000117,-12.155416910289959631
0.258000000000000118,-12.435621232546790083
0.259000000000000119,-12.701780891610793489
0.260000000000000120,-12.954172889280325620
0.261000000000000121,-13.193081196062815152
0.262000000000000122,-13.418796502665349735
0.263000000000000123,-13.631615904929381244
0.264000000000000123,-13.831842529006774356
0.265000000000000124,-14.019785103613870092
0.266000000000000125,-14.195757486159127581
0.267000000000000126,-14.360078149427929262
0.268000000000000127,-14.513069635336867336
0.269000000000000128,-14.655057982047107856
0.270000000000000129,-14.786372130462211771
0.271000000000000130,-14.907343315837977116
0.272000000000000131,-15.018304449907011744
0.273000000000000131,-15.119589498576809561
0.274000000000000132,-15.211532859901328862
0.275000000000000133,-15.294468746660410119
0.276000000000000134,-15.368730577510422819
0.277000000000000135,-15.434650380299776984
0.278000000000000136,-15.492558210777682248
0.279000000000000137,-15.542781589565166200
0.280000000000000138,-15.585644959909160434
0.281000000000000139,-15.621469168403020689
0.282000000000000139,-15.650570970533980386
0.283000000000000140,-15.673262562609755477
0.284000000000000141,-15.689851141324705708
0.285000000000000142,-15.700638491951284692
0.286000000000000143,-15.705920605884980290
0.287000000000000144,-15.705987328031699946
0.288000000000000145,-15.701122034305246444
0.289000000000000146,-15.691601339298525630
0.290000000000000147,-15.677694834006766555
0.291000000000000147,-15.659664853311738852
0.292000000000000148,-15.637766272784840993
0.293000000000000149,-15.612246334230690081
0.294000000000000150,-15.583344499273223960
0.295000000000000151,-15.551292330181254897
0.296000000000000152,-15.516313397039265709
0.297000000000000153,-15.478623210292244750
0.298000000000000154,-15.438429177627885025
0.299000000000000155,-15.395930584107039962
0.300000000000000155,-15.351318594410944485
0.301000000000000156,-15.304776276041931027
0.302000000000000157,-15.256478642292274017
0.303000000000000158,-15.206592713781649451
0.304000000000000159,-15.155277597358473685
0.305000000000000160,-15.102684581161057054
0.306000000000000161,-15.048957244643068165
0.307000000000000162,-14.994231582381029710
0.308000000000000163,-14.938636140500586080
0.309000000000000163,-14.882292164581675920
0.310000000000000164,-14.825313757930251413
0.311000000000000165,-14.767808049134831805
0.312000000000000166,-14.709875367860471229
0.313000000000000167,-14.651609427868470092
0.314000000000000168,-14.593097516289043725
0.315000000000000169,-14.534420688213799622
0.316000000000000170,-14.475653965716485772
0.317000000000000171,-14.416866540452428325
0.318000000000000171,-14.358121979029979443
0.319000000000000172,-14.299478430390561101
0.320000000000000173,-14.240988834476917546
0.321000000000000174,-14.182701131512445158
0.322000000000000175,-14.124658471256974934
0.323000000000000176,-14.066899421646684942
0.324000000000000177,-14.009458176267182594
0.325000000000000178,-13.952364760149185585
0.326000000000000179,-13.895645233416226816
0.327000000000000179,-13.839321892351819088
0.328000000000000180,-13.783413467491053339
0.329000000000000181,-13.727935318377896934
0.330000000000000182,-13.672899624663525486
0.331000000000000183,-13.618315573255362239
0.332000000000000184,-13.564189541257480442
0.333000000000000185,-13.510525274474403545
0.334000000000000186,-13.457324061279091865
0.335000000000000187,-13.404584901673484154
0.336000000000000187,-13.352304671396709068
0.337000000000000188,-13.300478280960229327
0.338000000000000189,-13.249098829513229703
0.339000000000000190,-13.198157753463197750
0.340000000000000191,-13.147644969797173786
0.341000000000000192,-13.097549014069025830
0.342000000000000193,-13.047857173035293243
0.343000000000000194,-12.998555611939618615
0.344000000000000195,-12.949629496460582700
0.345000000000000195,-12.901063109352682190
0.346000000000000196,-12.852839961822837722
0.347000000000000197,-12.804942899697005387
0.348000000000000198,-12.757354204442625800
0.349000000000000199,-12.710055689122182088
0.350000000000000200,-12.663028789362556381
0.351000000000000201,-12.616254649432589119
0.352000000000000202,-12.569714203528514318
0.353000000000000203,-12.523388252373408136
0.354000000000000203,-12.477257535242134878
0.355000000000000204,-12.431302797528056558
0.356000000000000205,-12.385504853972090444
0.357000000000000206,-12.339844647677979950
0.358000000000000207,-12.294303305040179097
0.359000000000000208,-12.248862186713562750
0.360000000000000209,-12.203502934755331211
0.361000000000000210,-12.158207516070817178
0.362000000000000210,-12.112958262295716594
0.363000000000000211,-12.067737906247360868
0.364000000000000212,-12.022529615077653276
0.365000000000000213,-11.977317020259629743
0.366000000000000214,-11.932084244538934570
0.367000000000000215,-11.886815925980210196
0.368000000000000216,-11.841497239237147809
0.369000000000000217,-11.796113914172895676
0.370000000000000218,-11.750652251956129390
0.371000000000000218,-11.705099138755457489
0.372000000000000219,-11.659442057152821448
0.373000000000000220,-11.613669095394072883
0.374000000000000221,-11.567768954592168029
0.375000000000000222,-11.521730953995666269
0.376000000000000223,-11.475545034432688141
0.377000000000000224,-11.429201760037118518
0.378000000000000225,-11.382692318361193884
0.379000000000000226,-11.336008518975299708
0.380000000000000226,-11.289142790653016846
0.381000000000000227,-11.242088177235800117
0.382000000000000228,-11.194838332269167580
0.383000000000000229,-11.147387512498550421
0.384000000000000230,-11.099730570309995770
0.385000000000000231,-11.051862945197951760
0.386000000000000232,-11.003780654338786604
0.387000000000000233,-10.955480282345970267
0.388000000000000234,-10.906958970279454491
0.389000000000000234,-10.858214403979070894
0.390000000000000235,-10.809244801788297607
0.391000000000000236,-10.760048901732261584
0.392000000000000237,-10.710625948210545033
0.393000000000000238,-10.660975678262785138
0.394000000000000239,-10.611098307462032864
0.395000000000000240,-10.560994515488289380
0.396000000000000241,-10.510665431431881700
0.397000000000000242,-10.460112618873660395
0.398000000000000242,-10.409338060786675229
0.399000000000000243,-10.358344144301298684
0.400000000000000244,-10.307133645373454556
0.401000000000000245,-10.255709713393454052
0.402000000000000246,-10.204075855770360803
0.403000000000000247,-10.152235922524909029
0.404000000000000248,-10.100194090921771561
0.405000000000000249,-10.047954850170066621
0.406000000000000250,-9.995522986218798422
0.407000000000000250,-9.942903566672329774
0.408000000000000251,-9.890101925848934883
0.409000000000000252,-9.837123650003954722
0.410000000000000253,-9.783974562737180136
0.411000000000000254,-9.730660710602695218
0.412000000000000255,-9.677188348937715290
0.413000000000000256,-9.623563927925648187
0.414000000000000257,-9.569794078906989299
0.415000000000000258,-9.515885600950602097
0.416000000000000258,-9.461845447696376254
0.417000000000000259,-9.407680714479244699
0.418000000000000260,-9.353398625743329475
0.419000000000000261,-9.299006522753780146
0.420000000000000262,-9.244511851613049558
0.421000000000000263,-9.189922151587191834
0.422000000000000264,-9.135245043746781590
0.423000000000000265,-9.080488219926408533
0.424000000000000266,-9.025659432005715743
0.425000000000000266,-8.970766481514086621
0.426000000000000267,-8.915817209560538359
0.427000000000000268,-8.860819487089534263
0.428000000000000269,-8.805781205462885453
0.429000000000000270,-8.750710267367221462
0.430000000000000271,-8.695614578045976373
0.431000000000000272,-8.640502036854334378
0.432000000000000273,-8.585380529134994276
0.433000000000000274,-8.530257918412337048
0.434000000000000274,-8.475142038901912755
0.435000000000000275,-8.420040688331958734
0.436000000000000276,-8.364961621073300435
0.437000000000000277,-8.309912541573462264
0.438000000000000278,-8.254901098090792644
0.439000000000000279,-8.199934876723927957
0.440000000000000280,-8.145021395731719238
0.441000000000000281,-8.090168100138583895
0.442000000000000282,-8.035382356620008437
0.443000000000000282,-7.980671448662671530
0.444000000000000283,-7.926042571993662023
0.445000000000000284,-7.871502830273004570
0.446000000000000285,-7.817059231043515410
0.447000000000000286,-7.762718681932303078
0.448000000000000287,-7.708487987097461414
0.449000000000000288,-7.654373843914226150
0.450000000000000289,-7.600382839894114895
0.451000000000000290,-7.546521449831021577
0.452000000000000290,-7.492796033167957503
0.453000000000000291,-7.439212831578186247
0.454000000000000292,-7.385777966754536905
0.455000000000000293,-7.332497438400599421
0.456000000000000294,-7.279377122417626467
0.457000000000000295,-7.226422769280953062
0.458000000000000296,-7.173640002599678489
0.459000000000000297,-7.121034317853703222
0.460000000000000298,-7.068611081301822807
0.461000000000000298,-7.016375529055065563
0.462000000000000299,-6.964332766309300204
0.463000000000000300,-6.912487766731169714
0.464000000000000301,-6.860845371991706187
0.465000000000000302,-6.809410291441866825
0.466000000000000303,-6.758187101924360896
0.467000000000000304,-6.707180247716283183
0.468000000000000305,-6.656394040597163553
0.469000000000000306,-6.605832660037006754
0.470000000000000306,-6.555500153499272287
0.471000000000000307,-6.505400436853436830
0.472000000000000308,-6.455537294892373268
0.473000000000000309,-6.405914381949463277
0.474000000000000310,-6.356535222610723679
0.475000000000000311,-6.307403212517187718
0.476000000000000312,-6.258521619253142987
0.477000000000000313,-6.209893583315475141
0.478000000000000314,-6.161522119159990041
0.479000000000000314,-6.113410116320430632
0.480000000000000315,-6.065560340595930633
0.481000000000000316,-6.017975435303062781
0.482000000000000317,-5.970657922588459954
0.483000000000000318,-5.923610204798212209
0.484000000000000319,-5.876834565900419527
0.485000000000000320,-5.830333172957286259
0.486000000000000321,-5.784108077643281831
0.487000000000000322,-5.738161217806032610
0.488000000000000322,-5.692494419066624012
0.489000000000000323,-5.647109396456313490
0.490000000000000324,-5.602007756086442747
0.491000000000000325,-5.557190996848734521
0.492000000000000326,-5.512660512143035874
0.493000000000000327,-5.468417591629869179
0.494000000000000328,-5.424463423005070339
0.495000000000000329,-5.380799093794029098
0.496000000000000330,-5.337425593163011683
0.497000000000000330,-5.294343813745312488
0.498000000000000331,-5.251554553479838461
0.499000000000000332,-5.209058517460098514
0.500000000000000333,-5.166856319791383712
0.501000000000000334,-5.124948485454205560
0.502000000000000335,-5.083335452172047297
0.503000000000000336,-5.042017572281620730
0.504000000000000337,-5.000995114603854930
0.505000000000000338,-4.960268266313898167
0.506000000000000338,-4.919837134808635604
0.507000000000000339,-4.879701749570083180
0.508000000000000340,-4.839862064023247257
0.509000000000000341,-4.800317957387139067
0.510000000000000342,-4.761069236517482040
0.511000000000000343,-4.722115637739988436
0.512000000000000344,-4.683456828672946770
0.513000000000000345,-4.645092410038047959
0.514000000000000346,-4.607021917458371085
0.515000000000000346,-4.569244823242522457
0.516000000000000347,-4.531760538153953632
0.517000000000000348,-4.494568413164709675
0.518000000000000349,-4.457667741192541833
0.519000000000000350,-4.421057758820843731
0.520000000000000351,-4.384737648000511356
0.521000000000000352,-4.348706537733150412
0.522000000000000353,-4.312963505734929370
0.523000000000000353,-4.277507580080494698
0.524000000000000354,-4.242337740826519266
0.525000000000000355,-4.207452921614168950
0.526000000000000356,-4.172852011250235194
0.527000000000000357,-4.138533855266417483
0.528000000000000358,-4.104497257456328541
0.529000000000000359,-4.070740981390018831
0.530000000000000360,-4.037263751905541653
0.531000000000000361,-4.004064256577423819
0.532000000000000361,-3.971141147161699969
0.533000000000000362,-3.938493041017364416
0.534000000000000363,-3.906118522504019808
0.535000000000000364,-3.874016144355572955
0.536000000000000365,-3.842184429029873449
0.537000000000000366,-3.810621870034185399
0.538000000000000367,-3.779326933226364815
0.539000000000000368,-3.748298058091838580
0.540000000000000369,-3.717533658996137635
0.541000000000000369,-3.687032126413220645
0.542000000000000370,-3.656791828129402067
0.543000000000000371,-3.626811110423023621
0.544000000000000372,-3.597088299219939778
0.545000000000000373,-3.567621701224807929
0.546000000000000374,-3.538409605028334681
0.547000000000000375,-3.509450282190560877
0.548000000000000376,-3.480741988300343426
0.549000000000000377,-3.452282964011112565
0.550000000000000377,-3.424071436053075956
0.551000000000000378,-3.396105618222064582
0.552000000000000379,-3.368383712345143888
0.553000000000000380,-3.340903909223237100
0.554000000000000381,-3.313664389550856182
0.555000000000000382,-3.286663324813316134
0.556000000000000383,-3.259898878161428204
0.557000000000000384,-3.233369205264118307
0.558000000000000385,-3.207072455139043488
0.559000000000000385,-3.181006770961532393
0.560000000000000386,-3.155170290852053583
0.561000000000000387,-3.129561148642512336
0.562000000000000388,-3.104177474621587773
0.563000000000000389,-3.079017396259412731
0.564000000000000390,-3.054079038911844179
0.565000000000000391,-3.029360526504622619
0.566000000000000392,-3.004859982197671364
0.567000000000000393,-2.980575529029873216
0.568000000000000393,-2.956505290544522602
0.569000000000000394,-2.932647391395830194
0.570000000000000395,-2.908999957936748704
0.571000000000000396,-2.885561118788350310
0.572000000000000397,-2.862329005391178072
0.573000000000000398,-2.839301752538720969
0.574000000000000399,-2.816477498893462439
0.575000000000000400,-2.793854387485642743
0.576000000000000401,-2.771430566195185463
0.577000000000000401,-2.749204188216999523
0.578000000000000402,-2.727173412509970696
0.579000000000000403,-2.705336404229934821
0.580000000000000404,-2.683691335147007528
0.581000000000000405,-2.662236384047449000
0.582000000000000406,-2.640969737120445693
0.583000000000000407,-2.619889588330089225
0.584000000000000408,-2.598994139772833112
0.585000000000000409,-2.578281602020737751
0.586000000000000409,-2.557750194450762571
0.587000000000000410,-2.537398145560468166
0.588000000000000411,-2.517223693270318030
0.589000000000000412,-2.497225085212968487
0.590000000000000413,-2.477400579009728432
0.591000000000000414,-2.457748442534561040
0.592000000000000415,-2.438266954165868583
0.593000000000000416,-2.418954403026301048
0.594000000000000417,-2.399809089210922952
0.595000000000000417,-2.380829324004021696
0.596000000000000418,-2.362013430084677790
0.597000000000000419,-2.343359741721618317
0.598000000000000420,-2.324866604957336325
0.599000000000000421,-2.306532377781965071
0.600000000000000422,-2.288355430297001725
0.601000000000000423,-2.270334144869239790
0.602000000000000424,-2.252466916275094988
0.603000000000000425,-2.234752151835597722
0.604000000000000425,-2.217188271542293698
0.605000000000000426,-2.199773708174265874
0.606000000000000427,-2.182506907406603691
0.607000000000000428,-2.165386327910345354
0.608000000000000429,-2.148410441444444707
