# hydroxyapatite-001-ph14_METHYLFORMATE-AC
# h[nm],U(h)[kJ/mol]
0.149999999999999994,83.266037116341721003
0.150999999999999995,81.606757960830393017
0.151999999999999996,79.799449320202469949
0.152999999999999997,78.000012345241174216
0.153999999999999998,76.257295425655598820
0.154999999999999999,74.573037459742550936
0.156000000000000000,72.933067180931828943
0.157000000000000001,71.321978828064686695
0.158000000000000002,69.728777168518746521
0.159000000000000002,68.147954996178057741
0.160000000000000003,66.578559112554401622
0.161000000000000004,65.022627539000140473
0.162000000000000005,63.483680214604667924
0.163000000000000006,61.965544118213280456
0.164000000000000007,60.471577515478294629
0.165000000000000008,59.004252912726215641
0.166000000000000009,57.565017174499232055
0.167000000000000010,56.154340755636766858
0.168000000000000010,54.771878322357636648
0.169000000000000011,53.416679841899870951
0.170000000000000012,52.087408840701414192
0.171000000000000013,50.782540167706038403
0.172000000000000014,49.500522144128218827
0.173000000000000015,48.239897269354599985
0.174000000000000016,46.999381999816193911
0.175000000000000017,45.777910040539936176
0.176000000000000018,44.574645647527155745
0.177000000000000018,43.388974152215638469
0.178000000000000019,42.220476727514686388
0.179000000000000020,41.068895668969318535
0.180000000000000021,39.934095429067035354
0.181000000000000022,38.816023506679812272
0.182000000000000023,37.714674184240827515
0.183000000000000024,36.630057101013029808
0.184000000000000025,35.562171793862958680
0.185000000000000026,34.510988643439176826
0.186000000000000026,33.476436132066517359
0.187000000000000027,32.458393937389729444
0.188000000000000028,31.456691133977738417
0.189000000000000029,30.471108632159094043
0.190000000000000030,29.501384927407041658
0.191000000000000031,28.547224243988267744
0.192000000000000032,27.608306214853275407
0.193000000000000033,26.684296330018554499
0.194000000000000034,25.774856494864319956
0.195000000000000034,24.879655157394921616
0.196000000000000035,23.998376581582476774
0.197000000000000036,23.130728956586999345
0.198000000000000037,22.276451134898319850
0.199000000000000038,21.435317883771610070
0.200000000000000039,20.607143612426767731
0.201000000000000040,19.791784601985519032
0.202000000000000041,18.989139816355020685
0.203000000000000042,18.199150411050197818
0.204000000000000042,17.421798084418487207
0.205000000000000043,16.657102433221076865
0.206000000000000044,15.905117483443103055
0.207000000000000045,15.165927568971804718
0.208000000000000046,14.439642726755995028
0.209000000000000047,13.726393768511764293
0.210000000000000048,13.026327177117346778
0.211000000000000049,12.339599961561303232
0.212000000000000050,11.666374588547844482
0.213000000000000050,11.006814092367021019
0.214000000000000051,10.361077448010670210
0.215000000000000052,9.729315276251469413
0.216000000000000053,9.111665933879333323
0.217000000000000054,8.508252027789612981
0.218000000000000055,7.919177378338579487
0.219000000000000056,7.344524445449961192
0.220000000000000057,6.784352220432596781
0.221000000000000058,6.238694577376284300
0.222000000000000058,5.707559070296801096
0.223000000000000059,5.190926155856423918
0.224000000000000060,4.688748816408699227
0.225000000000000061,4.200952554214954837
0.226000000000000062,3.727435724850310717
0.227000000000000063,3.268070175947942690
0.228000000000000064,2.822702156411153851
0.229000000000000065,2.391153460940699027
0.230000000000000066,1.973222775075141655
0.231000000000000066,1.568687186819466950
0.232000000000000067,1.177303832249524840
0.233000000000000068,0.798811644136503185
0.234000000000000069,0.432933174558543521
0.235000000000000070,0.079376464582742653
0.236000000000000071,-0.262163063652089412
0.237000000000000072,-0.592000714800934302
0.238000000000000073,-0.910460648126942496
0.239000000000000073,-1.217874042930627621
0.240000000000000074,-1.514577316974345278
0.241000000000000075,-1.800910411070792749
0.242000000000000076,-2.077215150891174922
0.243000000000000077,-2.343833695050279609
0.244000000000000078,-2.601107076654231687
0.245000000000000079,-2.849373843761453085
0.246000000000000080,-3.088968802612995113
0.247000000000000081,-3.320221866038186143
0.248000000000000081,-3.543457008133906072
0.249000000000000082,-3.758991325149633411
0.250000000000000111,-3.967134201481549383
0.251000000000000112,-4.168186578781505780
0.252000000000000113,-4.362440325415809284
0.253000000000000114,-4.550177702854616868
0.254000000000000115,-4.731670925031506769
0.255000000000000115,-4.907181806272504332
0.256000000000000116,-5.076961493049364726
0.257000000000000117,-5.241250274553370225
0.258000000000000118,-5.400277466905322399
0.259000000000000119,-5.554261365707633402
0.260000000000000120,-5.703409261597123248
0.261000000000000121,-5.847917513464553352
0.262000000000000122,-5.987971674063407690
0.263000000000000123,-6.123746662827769249
0.264000000000000123,-6.255406980852699306
0.265000000000000124,-6.383106963153124980
0.266000000000000125,-6.506991063505253692
0.267000000000000126,-6.627194167381216694
0.268000000000000127,-6.743841928710781808
0.269000000000000128,-6.857051126437468724
0.270000000000000129,-6.966930037078318705
0.271000000000000130,-7.073578819743152835
0.272000000000000131,-7.177089910317207000
0.273000000000000131,-7.277548421759038710
0.274000000000000132,-7.375032547710430819
0.275000000000000133,-7.469613966855890297
0.276000000000000134,-7.561358245703810432
0.277000000000000135,-7.650325237688504032
0.278000000000000136,-7.736569476711555815
0.279000000000000137,-7.820140563450570070
0.280000000000000138,-7.901083542963209361
0.281000000000000139,-7.979439272304375663
0.282000000000000139,-8.055244777053143679
0.283000000000000140,-8.128533595814483093
0.284000000000000141,-8.199336111918055892
0.285000000000000142,-8.267679871682940274
0.286000000000000143,-8.333589888752964470
0.287000000000000144,-8.397088934132376892
0.288000000000000145,-8.458197811667071520
0.289000000000000146,-8.516935618820863141
0.290000000000000147,-8.573319992692535862
0.291000000000000147,-8.627367341304902126
0.292000000000000148,-8.679093060275031135
0.293000000000000149,-8.728511735043442243
0.294000000000000150,-8.775637328901327194
0.295000000000000151,-8.820483357108473754
0.296000000000000152,-8.863063047440993714
0.297000000000000153,-8.903389487548185599
0.298000000000000154,-8.941475759531453349
0.299000000000000155,-8.977335062186721615
0.300000000000000155,-9.010980821374413807
0.301000000000000156,-9.042426788999332388
0.302000000000000157,-9.071687131096432211
0.303000000000000158,-9.098776505527965242
0.304000000000000159,-9.123710129803544788
0.305000000000000160,-9.146503839537126979
0.306000000000000161,-9.167174138054587473
0.307000000000000162,-9.185738237662535610
0.308000000000000163,-9.202214093083359359
0.309000000000000163,-9.216620427554117256
0.310000000000000164,-9.228976752077418411
0.311000000000000165,-9.239303378301350733
0.312000000000000166,-9.247621425493303349
0.313000000000000167,-9.253952822058858274
0.314000000000000168,-9.258320302042500671
0.315000000000000169,-9.260747397031531492
0.316000000000000170,-9.261258423868858003
0.317000000000000171,-9.259878468563695009
0.318000000000000171,-9.256633366772602400
0.319000000000000172,-9.251549681206487463
0.320000000000000173,-9.244654676301909291
0.321000000000000174,-9.235976290478101092
0.322000000000000175,-9.225543106284181505
0.323000000000000176,-9.213384318724171962
0.324000000000000177,-9.199529702030897482
0.325000000000000178,-9.184009575143360138
0.326000000000000179,-9.166854766126721898
0.327000000000000179,-9.148096575757822535
0.328000000000000180,-9.127766740484503316
0.329000000000000181,-9.105897394952211954
0.330000000000000182,-9.082521034276965111
0.331000000000000183,-9.057670476230432755
0.332000000000000184,-9.031378823489301766
0.333000000000000185,-9.003679426088773141
0.334000000000000186,-8.974605844207788508
0.335000000000000187,-8.944191811401958958
0.336000000000000187,-8.912471198389386728
0.337000000000000188,-8.879477977483697160
0.338000000000000189,-8.845246187759057577
0.339000000000000190,-8.809809901022344292
0.340000000000000191,-8.773203188658545315
0.341000000000000192,-8.735460089407595774
0.342000000000000193,-8.696614578122336070
0.343000000000000194,-8.656700535550481135
0.344000000000000195,-8.615751719175973378
0.345000000000000195,-8.573801735149197967
0.346000000000000196,-8.530884011328996763
0.347000000000000197,-8.487031771454184081
0.348000000000000198,-8.442278010456835347
0.349000000000000199,-8.396655470924946130
0.350000000000000200,-8.350196620717607487
0.351000000000000201,-8.302933631731722386
0.352000000000000202,-8.254898359815621589
0.353000000000000203,-8.206122325821553432
0.354000000000000203,-8.156636697785920376
0.355000000000000204,-8.106472274223211372
0.356000000000000205,-8.055659468517390565
0.357000000000000206,-8.004228294391952048
0.358000000000000207,-7.952208352437894590
0.359000000000000208,-7.899628817677305292
0.360000000000000209,-7.846518428138483436
0.361000000000000210,-7.792905474417262113
0.362000000000000210,-7.738817790198081248
0.363000000000000211,-7.684282743707325558
0.364000000000000212,-7.629327230070751753
0.365000000000000213,-7.573977664546002408
0.366000000000000214,-7.518259976600934813
0.367000000000000215,-7.462199604807861597
0.368000000000000216,-7.405821492523901206
0.369000000000000217,-7.349150084327061627
0.370000000000000218,-7.292209323178148850
0.371000000000000218,-7.235022648278201629
0.372000000000000219,-7.177612993591641732
0.373000000000000220,-7.120002787005408784
0.374000000000000221,-7.062213950094710313
0.375000000000000222,-7.004267898466298270
0.376000000000000223,-6.946185542650769484
0.377000000000000224,-6.887987289515717926
0.378000000000000225,-6.829693044172178595
0.379000000000000226,-6.771322212347283376
0.380000000000000226,-6.712893703196830764
0.381000000000000227,-6.654425932531784049
0.382000000000000228,-6.595936826433741018
0.383000000000000229,-6.537443825234817041
0.384000000000000230,-6.478963887838098401
0.385000000000000231,-6.420513496355802374
0.386000000000000232,-6.362108661042562119
0.387000000000000233,-6.303764925502387761
0.388000000000000234,-6.245497372148268056
0.389000000000000234,-6.187320627894381531
0.390000000000000235,-6.129248870061347887
0.391000000000000236,-6.071295832475934517
0.392000000000000237,-6.013474811747107296
0.393000000000000238,-5.955798673701311330
0.394000000000000239,-5.898279859960246618
0.395000000000000240,-5.840930394645445389
0.396000000000000241,-5.783761891194392213
0.397000000000000242,-5.726785559273682047
0.398000000000000242,-5.670012211775508959
0.399000000000000243,-5.613452271884182387
0.400000000000000244,-5.557115780200176047
0.401000000000000245,-5.501012401909898486
0.402000000000000246,-5.445151433989751766
0.403000000000000247,-5.389541812433806811
0.404000000000000248,-5.334192119495030582
0.405000000000000249,-5.279110590930423896
0.406000000000000250,-5.224305123241036242
0.407000000000000250,-5.169783280898415434
0.408000000000000251,-5.115552303549407931
0.409000000000000252,-5.061619113191903274
0.410000000000000253,-5.007990321314406579
0.411000000000000254,-4.954672235992934937
0.412000000000000255,-4.901670868939056014
0.413000000000000256,-4.848991942493441343
0.414000000000000257,-4.796640896559517309
0.415000000000000258,-4.744622895472454083
0.416000000000000258,-4.692942834798854435
0.417000000000000259,-4.641605348063039926
0.418000000000000260,-4.590614813396100224
0.419000000000000261,-4.539975360104187452
0.420000000000000262,-4.489690875152930971
0.421000000000000263,-4.439765009565100229
0.422000000000000264,-4.390201184728859118
0.423000000000000265,-4.341002598614380759
0.424000000000000266,-4.292172231896767443
0.425000000000000266,-4.243712853983423905
0.426000000000000267,-4.195627028944357129
0.427000000000000268,-4.147917121344057989
0.428000000000000269,-4.100585301973795893
0.429000000000000270,-4.053633553483471985
0.430000000000000271,-4.007063675912176492
0.431000000000000272,-3.960877292116995907
0.432000000000000273,-3.915075853099571734
0.433000000000000274,-3.869660643230273145
0.434000000000000274,-3.824632785369785459
0.435000000000000275,-3.779993245888241038
0.436000000000000276,-3.735742839582060437
0.437000000000000277,-3.691882234488737424
0.438000000000000278,-3.648411956600060790
0.439000000000000279,-3.605332394474285884
0.440000000000000280,-3.562643803747795435
0.441000000000000281,-3.520346311547042806
0.442000000000000282,-3.478439920801569052
0.443000000000000282,-3.436924514458881585
0.444000000000000283,-3.395799859602247839
0.445000000000000284,-3.355065611472359599
0.446000000000000285,-3.314721317393876543
0.447000000000000286,-3.274766420608157258
0.448000000000000287,-3.235200264013113447
0.449000000000000288,-3.196022093811627052
0.450000000000000289,-3.157231063069633858
0.451000000000000290,-3.118826235185250262
0.452000000000000290,-3.080806587270255026
0.453000000000000291,-3.043171013445268080
0.454000000000000292,-3.005918328050031452
0.455000000000000293,-2.969047268770152126
0.456000000000000294,-2.932556499681784778
0.457000000000000295,-2.896444614215629265
0.458000000000000296,-2.860710138041716810
0.459000000000000297,-2.825351531876445055
0.460000000000000298,-2.790367194213283941
0.461000000000000298,-2.755755463978663666
0.462000000000000299,-2.721514623114474229
0.463000000000000300,-2.687642899088632298
0.464000000000000301,-2.654138467335207086
0.465000000000000302,-2.620999453625557862
0.466000000000000303,-2.588223936371893963
0.467000000000000304,-2.555809948864721459
0.468000000000000305,-2.523755481445645987
0.469000000000000306,-2.492058483616867104
0.470000000000000306,-2.460716866088877630
0.471000000000000307,-2.429728502767660281
0.472000000000000308,-2.399091232682850183
0.473000000000000309,-2.368802861858173348
0.474000000000000310,-2.338861165125536878
0.475000000000000311,-2.309263887884083211
0.476000000000000312,-2.280008747805594815
0.477000000000000313,-2.251093436487421773
0.478000000000000314,-2.222515621054328872
0.479000000000000314,-2.194272945710478595
0.480000000000000315,-2.166363033242759251
0.481000000000000316,-2.138783486476755868
0.482000000000000317,-2.111531889686468322
0.483000000000000318,-2.084605809959054756
0.484000000000000319,-2.058002798515661702
0.485000000000000320,-2.031720391989579877
0.486000000000000321,-2.005756113662756412
0.487000000000000322,-1.980107474661813471
0.488000000000000322,-1.954771975114593996
0.489000000000000323,-1.929747105268375673
0.490000000000000324,-1.905030346570682820
0.491000000000000325,-1.880619172713797527
0.492000000000000326,-1.856511050643864014
0.493000000000000327,-1.832703441535656896
0.494000000000000328,-1.809193801733883999
0.495000000000000329,-1.785979583661986281
0.496000000000000330,-1.763058236699321935
0.497000000000000330,-1.740427208027649497
0.498000000000000331,-1.718083943447715756
0.499000000000000332,-1.696025888166879714
0.500000000000000333,-1.674250487558519795
0.501000000000000334,-1.652755187894061395
0.502000000000000335,-1.631537437048413697
0.503000000000000336,-1.610594685179590257
0.504000000000000337,-1.589924385383223449
0.505000000000000338,-1.569523994322752358
0.506000000000000338,-1.549390972835960056
0.507000000000000339,-1.529522786518568100
0.508000000000000340,-1.509916906285550642
0.509000000000000341,-1.490570808910860023
0.510000000000000342,-1.471481977546161835
0.511000000000000343,-1.452647902219235565
0.512000000000000344,-1.434066080312627722
0.513000000000000345,-1.415734017023168478
0.514000000000000346,-1.397649225802924278
0.515000000000000346,-1.379809228782134412
0.516000000000000347,-1.362211557174673349
0.517000000000000348,-1.344853751666631236
0.518000000000000349,-1.327733362788414251
0.519000000000000350,-1.310847951270981193
0.520000000000000351,-1.294195088386644432
0.521000000000000352,-1.277772356274915477
0.522000000000000353,-1.261577348253879904
0.523000000000000353,-1.245607669117504868
0.524000000000000354,-1.229860935419390566
0.525000000000000355,-1.214334775743302508
0.526000000000000356,-1.199026830960953083
0.527000000000000357,-1.183934754477439233
0.528000000000000358,-1.169056212464656408
0.529000000000000359,-1.154388884083160871
0.530000000000000360,-1.139930461692761687
0.531000000000000361,-1.125678651052267165
0.532000000000000361,-1.111631171508666860
0.533000000000000362,-1.097785756176146821
0.534000000000000363,-1.084140152105215860
0.535000000000000364,-1.070692120442282791
0.536000000000000365,-1.057439436579987513
0.537000000000000366,-1.044379890298585023
0.538000000000000367,-1.031511285898647934
0.539000000000000368,-1.018831442325430103
0.540000000000000369,-1.006338193285068794
0.541000000000000369,-0.994029387352988514
0.542000000000000370,-0.981902888074692948
0.543000000000000371,-0.969956574059211207
0.544000000000000372,-0.958188339065464967
0.545000000000000373,-0.946596092081758655
0.546000000000000374,-0.935177757398627185
0.547000000000000375,-0.923931274675260816
0.548000000000000376,-0.912854598999748412
0.549000000000000377,-0.901945700943299622
0.550000000000000377,-0.891202566608664482
0.551000000000000378,-0.880623197672969260
0.552000000000000379,-0.870205611425117764
0.553000000000000380,-0.859947840797977370
0.554000000000000381,-0.849847934395482563
0.555000000000000382,-0.839903956514895911
0.556000000000000383,-0.830113987164301959
0.557000000000000384,-0.820476122075592174
0.558000000000000385,-0.810988472713015218
0.559000000000000385,-0.801649166277509595
0.560000000000000386,-0.792456345706905152
0.561000000000000387,-0.783408169672199062
0.562000000000000388,-0.774502812569990207
0.563000000000000389,-0.765738464511240391
0.564000000000000390,-0.757113331306474735
0.565000000000000391,-0.748625634447561028
0.566000000000000392,-0.740273611086171957
0.567000000000000393,-0.732055514009075536
0.568000000000000393,-0.723969611610332797
0.569000000000000394,-0.716014187860553708
0.570000000000000395,-0.708187542273285731
0.571000000000000396,-0.700487989868654015
0.572000000000000397,-0.692913861134373255
0.573000000000000398,-0.685463501984177270
0.574000000000000399,-0.678135273713833864
0.575000000000000400,-0.670927552954762918
0.576000000000000401,-0.663838731625403633
0.577000000000000401,-0.656867216880399396
0.578000000000000402,-0.650011431057673561
0.579000000000000403,-0.643269811623481957
0.580000000000000404,-0.636640811115545824
0.581000000000000405,-0.630122897084305911
0.582000000000000406,-0.623714552032394565
0.583000000000000407,-0.617414273352395515
0.584000000000000408,-0.611220573262954314
0.585000000000000409,-0.605131978743310706
0.586000000000000409,-0.599147031466326085
0.587000000000000410,-0.593264287730058459
0.588000000000000411,-0.587482318387954172
0.589000000000000412,-0.581799708777717584
0.590000000000000413,-0.576215058648906209
0.591000000000000414,-0.570726982089321377
0.592000000000000415,-0.565334107450248147
0.593000000000000416,-0.560035077270584436
0.594000000000000417,-0.554828548199918559
0.595000000000000417,-0.549713190920629202
0.596000000000000418,-0.544687690068993979
0.597000000000000419,-0.539750744155438666
0.598000000000000420,-0.534901065483890270
0.599000000000000421,-0.530137380070339836
0.600000000000000422,-0.525458427560622665
0.601000000000000423,-0.520862961147476100
0.602000000000000424,-0.516349747486900212
0.603000000000000425,-0.511917566613881214
0.604000000000000425,-0.507565211857492926
0.605000000000000426,-0.503291489755422483
0.606000000000000427,-0.499095219967985060
0.607000000000000428,-0.494975235191578711
0.608000000000000429,-0.490930381071747857
0.609000000000000430,-0.486959516115723745
0.610000000000000431,-0.483061511604638283
0.611000000000000432,-0.479235251505316817
0.612000000000000433,-0.475479632381731410
0.613000000000000433,-0.471793563306163954
