# Ag110_DGL
# h[nm],U(h)[kJ/mol]
0.200000000000000011,183.490261522627463364
0.201000000000000012,178.835912418168561544
0.202000000000000013,175.029428531561023874
0.203000000000000014,171.668385177032178035
0.204000000000000015,168.523877226299504173
0.205000000000000016,165.475381533388599564
0.206000000000000016,162.467199536916098168
0.207000000000000017,159.480040710056357511
0.208000000000000018,156.513072975592223202
0.209000000000000019,153.573079127763065799
0.210000000000000020,150.668328724702945465
0.211000000000000021,147.805487182242188737
0.212000000000000022,144.988402390877553216
0.213000000000000023,142.217983227264483048
0.214000000000000024,139.492651149130836075
0.215000000000000024,136.809033866929581791
0.216000000000000025,134.162700125884526869
0.217000000000000026,131.548822829533008871
0.218000000000000027,128.962715952178626821
0.219000000000000028,126.400227703137403523
0.220000000000000029,123.857994671036138357
0.221000000000000030,121.333573889572519988
0.222000000000000031,118.825475312950672446
0.223000000000000032,116.333118479456814498
0.224000000000000032,113.856735864019043447
0.225000000000000033,111.397242735394385704
0.226000000000000034,108.956090017649742663
0.227000000000000035,106.535113210630058234
0.228000000000000036,104.136387157364424638
0.229000000000000037,101.762093530051657808
0.230000000000000038,99.414405420927010937
0.231000000000000039,97.095391390311704072
0.232000000000000040,94.806939724117029300
0.233000000000000040,92.550702447696764352
0.234000000000000041,90.328057781825734196
0.235000000000000042,88.140089155542014510
0.236000000000000043,85.987578556337908253
0.237000000000000044,83.871011851188072228
0.238000000000000045,81.790593707918702648
0.239000000000000046,79.746269847220531801
0.240000000000000047,77.737754528996475756
0.241000000000000048,75.764561396367767543
0.242000000000000048,73.826036045457300361
0.243000000000000049,71.921388942672777489
0.244000000000000050,70.049727561326278646
0.245000000000000051,68.210086847156617296
0.246000000000000052,66.401457341629679831
0.247000000000000053,64.622810488990964473
0.248000000000000054,62.873120825976556603
0.249000000000000055,61.151384901269445038
0.250000000000000056,59.456636895680375687
0.251000000000000056,57.787961014834799300
0.252000000000000057,56.144500805576754487
0.253000000000000058,54.525465607381207178
0.254000000000000059,52.930134392985038971
0.255000000000000060,51.357857280446843617
0.256000000000000061,49.808055014123908677
0.257000000000000062,48.280216716711734648
0.258000000000000063,46.773896210482455160
0.259000000000000064,45.288707194971465242
0.260000000000000064,43.824317552193939207
0.261000000000000065,42.380443030443494479
0.262000000000000066,40.956840535047149388
0.263000000000000067,39.553301230179414461
0.264000000000000068,38.169643630842259086
0.265000000000000069,36.805706839113490503
0.266000000000000070,35.461344054340955267
0.267000000000000071,34.136416463553224787
0.268000000000000071,32.830787596319915167
0.269000000000000072,31.544318207865579495
0.270000000000000073,30.276861735582031088
0.271000000000000074,29.028260357292005267
0.272000000000000075,27.798341664720446431
0.273000000000000076,26.586915952624014636
0.274000000000000077,25.393774112858526593
0.275000000000000078,24.218686113254694448
0.276000000000000079,23.061400033423531397
0.277000000000000079,21.921641623405104582
0.278000000000000080,20.799114346291347033
0.279000000000000081,19.693499862453101912
0.280000000000000082,18.604458910661090698
0.281000000000000083,17.531632540069605142
0.282000000000000084,16.474643646609273162
0.283000000000000085,15.433098767682409402
0.284000000000000086,14.406590090055379605
0.285000000000000087,13.394697627393338024
0.286000000000000087,12.396991525873653828
0.287000000000000088,11.413034458661192261
0.288000000000000089,10.442384072643077886
0.289000000000000090,9.484595453627937545
0.290000000000000091,8.539223579152340093
0.291000000000000092,7.605825731039121074
0.292000000000000093,6.683963842876019967
0.293000000000000094,5.773206760579657981
0.294000000000000095,4.873132397145141681
0.295000000000000095,3.983329765522130916
0.296000000000000096,3.103400876284752030
0.297000000000000097,2.232962489348812696
0.298000000000000098,1.371647711426243754
0.299000000000000099,0.519107433178286337
0.300000000000000100,-0.324988397867327083
0.301000000000000101,-1.160949670643692810
0.302000000000000102,-1.989065170369704205
0.303000000000000103,-2.809601803550720422
0.304000000000000103,-3.622803985423188600
0.305000000000000104,-4.428893185873102212
0.306000000000000105,-5.228067628778029885
0.307000000000000106,-6.020502138796421043
0.308000000000000107,-6.806348128847650614
0.309000000000000108,-7.585733720882529951
0.310000000000000109,-8.358763992030006307
0.311000000000000110,-9.125521337806819844
0.312000000000000111,-9.886065943793507671
0.313000000000000111,-10.640436356990445432
0.314000000000000112,-11.388650147973837790
0.315000000000000113,-12.130704654957707334
0.316000000000000114,-12.866577800927711195
0.317000000000000115,-13.596228975137558237
0.318000000000000116,-14.319599970441149850
0.319000000000000117,-15.036615968164298351
0.320000000000000118,-15.747186562493890705
0.321000000000000119,-16.451206816672168998
0.322000000000000119,-17.148558343621900235
0.323000000000000120,-17.839110403990186882
0.324000000000000121,-18.522721014981005538
0.325000000000000122,-19.199238063738974347
0.326000000000000123,-19.868500419451059713
0.327000000000000124,-20.530339038741182378
0.328000000000000125,-21.184578059342619838
0.329000000000000126,-21.831035877440932325
0.330000000000000127,-22.469526204484917997
0.331000000000000127,-23.099859099658466732
0.332000000000000128,-23.721841974595410107
0.333000000000000129,-24.335280567295555443
0.334000000000000130,-24.939979882564191627
0.335000000000000131,-25.535745096649716146
0.336000000000000132,-26.122382424087344788
0.337000000000000133,-26.699699945079373720
0.338000000000000134,-27.267508392046579502
0.339000000000000135,-27.825621894270273771
0.340000000000000135,-28.373858679819147000
0.341000000000000136,-28.912041734204969146
0.342000000000000137,-29.439999415449996434
0.343000000000000138,-29.957566025467354365
0.344000000000000139,-30.464582337859802408
0.345000000000000140,-30.960896082427588283
0.346000000000000141,-31.446362386847862780
0.347000000000000142,-31.920844176142612270
0.348000000000000143,-32.384212530692522591
0.349000000000000143,-32.836347003679669854
0.350000000000000144,-33.277135898954057325
0.351000000000000145,-33.706476510416983672
0.352000000000000146,-34.124275324100850071
0.353000000000000147,-34.530448184198498041
0.354000000000000148,-34.924920424357893012
0.355000000000000149,-35.307626965610197090
0.356000000000000150,-35.678512382340883846
0.357000000000000151,-36.037530937746240056
0.358000000000000151,-36.384646590241644049
0.359000000000000152,-36.719832972303564134
0.360000000000000153,-37.043073343235960238
0.361000000000000154,-37.354360517352255044
0.362000000000000155,-37.653696769060374550
0.363000000000000156,-37.941093716326605545
0.364000000000000157,-38.216572183978584576
0.365000000000000158,-38.480162048287766652
0.366000000000000159,-38.731902064244863482
0.367000000000000159,-38.971839676916040673
0.368000000000000160,-39.200030818232995955
0.369000000000000161,-39.416539690536680496
0.370000000000000162,-39.621438538156979803
0.371000000000000163,-39.814807408270510791
0.372000000000000164,-39.996733902237622260
0.373000000000000165,-40.167312918577110281
0.374000000000000166,-40.326646388693099254
0.375000000000000167,-40.474843006422666747
0.376000000000000167,-40.612017952428779211
0.377000000000000168,-40.738292614415840376
0.378000000000000169,-40.853794304099338319
0.379000000000000170,-40.958655971814877716
0.380000000000000171,-41.053015919606295370
0.381000000000000172,-41.137017513585760753
0.382000000000000173,-41.210808896314674143
0.383000000000000174,-41.274542699909417820
0.384000000000000175,-41.328375760531500305
0.385000000000000175,-41.372468834879406074
0.386000000000000176,-41.406986319257732987
0.387000000000000177,-41.432095971756787378
0.388000000000000178,-41.447968638037927747
0.389000000000000179,-41.454777981179454116
0.390000000000000180,-41.452700216001353795
0.391000000000000181,-41.441913848250933938
0.392000000000000182,-41.422599418995623921
0.393000000000000183,-41.394939254536382123
0.394000000000000183,-41.359117222122513624
0.395000000000000184,-41.315318491717412996
0.396000000000000185,-41.263729304035308587
0.397000000000000186,-41.204536745040776680
0.398000000000000187,-41.137928527075573015
0.399000000000000188,-41.064092776751650149
0.400000000000000189,-40.983217829724800652
0.401000000000000190,-40.895492032440564856
0.402000000000000191,-40.801103550921475005
0.403000000000000191,-40.700240186644826679
0.404000000000000192,-40.593089199540273171
0.405000000000000193,-40.479837138118355711
0.406000000000000194,-40.360669676724299393
0.407000000000000195,-40.235771459895211422
0.408000000000000196,-40.105325953783719228
0.409000000000000197,-39.969515304597805994
0.410000000000000198,-39.828520203993655002
0.411000000000000199,-39.682519761345744769
0.412000000000000199,-39.531691382809071911
0.413000000000000200,-39.376210657076768484
0.414000000000000201,-39.216251247728699525
0.415000000000000202,-39.051984792057247375
0.416000000000000203,-38.883580806249980810
0.417000000000000204,-38.711206596801567059
0.418000000000000205,-38.535027178021657335
0.419000000000000206,-38.355205195500204240
0.420000000000000207,-38.171900855386837748
0.421000000000000207,-37.985271859337487399
0.422000000000000208,-37.795473344977196462
0.423000000000000209,-37.602657831726347126
0.424000000000000210,-37.406975171834304206
0.425000000000000211,-37.208572506463021057
0.426000000000000212,-37.007594226662249071
0.427000000000000213,-36.804181939076215713
0.428000000000000214,-36.598474436222154793
0.429000000000000214,-36.390607671180212890
0.430000000000000215,-36.180714736534810072
0.431000000000000216,-35.968925847408577567
0.432000000000000217,-35.755368328429931069
0.433000000000000218,-35.540166604477505530
0.434000000000000219,-35.323442195045409164
0.435000000000000220,-35.105313712075776778
0.436000000000000221,-34.885896861106004962
0.437000000000000222,-34.665304445580979120
0.438000000000000222,-34.443646374182577574
0.439000000000000223,-34.221029671031402586
0.440000000000000224,-33.997558488617997341
0.441000000000000225,-33.773334123323692779
0.442000000000000226,-33.548455033394688485
0.443000000000000227,-33.323016859234435572
0.444000000000000228,-33.097112445884626197
0.445000000000000229,-32.870831867566010942
0.446000000000000230,-32.644262454154940656
0.447000000000000230,-32.417488819474527872
0.448000000000000231,-32.190592891282086896
0.449000000000000232,-31.963653942838128330
0.450000000000000233,-31.736748625946194835
0.451000000000000234,-31.509951005354746911
0.452000000000000235,-31.283332594417281314
0.453000000000000236,-31.056962391908932375
0.454000000000000237,-30.830906919902126617
0.455000000000000238,-30.605230262606376357
0.456000000000000238,-30.379994106081500860
0.457000000000000239,-30.155257778735904850
0.458000000000000240,-29.931078292525928219
0.459000000000000241,-29.707510384773986090
0.460000000000000242,-29.484606560528391128
0.461000000000000243,-29.262417135388737677
0.462000000000000244,-29.040990278725882234
0.463000000000000245,-28.820372057226585127
0.464000000000000246,-28.600606478697820023
0.465000000000000246,-28.381735536067157710
0.466000000000000247,-28.163799251519286315
0.467000000000000248,-27.946835720711266760
0.468000000000000249,-27.730881157012191807
0.469000000000000250,-27.515969935715030914
0.470000000000000251,-27.302134638171708048
0.471000000000000252,-27.089406095804314134
0.472000000000000253,-26.877813433948830379
0.473000000000000254,-26.667384115488822260
0.474000000000000254,-26.458143984240386715
0.475000000000000255,-26.250117308050487708
0.476000000000000256,-26.043326821574389385
0.477000000000000257,-25.837793768698929853
0.478000000000000258,-25.633537944580989887
0.479000000000000259,-25.430577737272777483
0.480000000000000260,-25.228930168906753551
0.481000000000000261,-25.028610936415539356
0.482000000000000262,-24.829634451763748615
0.483000000000000262,-24.632013881670545175
0.484000000000000263,-24.435761186802963607
0.485000000000000264,-24.240887160422499136
0.486000000000000265,-24.047401466468240727
0.487000000000000266,-23.855312677061569104
0.488000000000000267,-23.664628309419263985
0.489000000000000268,-23.475354862162731706
0.490000000000000269,-23.287497851012499694
0.491000000000000270,-23.101061843858946787
0.492000000000000270,-22.916050495200330772
0.493000000000000271,-22.732466579941640106
0.494000000000000272,-22.550312026548095190
0.495000000000000273,-22.369587949547984351
0.496000000000000274,-22.190294681381679709
0.497000000000000275,-22.012431803593180746
0.498000000000000276,-21.835998177362505146
0.499000000000000277,-21.660991973377825559
0.500000000000000222,-21.487410701046645300
0.501000000000000334,-21.315251237046854982
0.502000000000000224,-21.144509853218771411
0.503000000000000336,-20.975182243799640247
0.504000000000000226,-20.807263552003909979
0.505000000000000338,-20.640748395951437288
0.506000000000000227,-20.475630893948583378
0.507000000000000339,-20.311904689125150014
0.508000000000000229,-20.149562973433283730
0.509000000000000341,-19.988598511012366288
0.510000000000000231,-19.829003660927000396
0.511000000000000343,-19.670770399282709207
0.512000000000000233,-19.513890340727563455
0.513000000000000345,-19.358354759344884144
0.514000000000000234,-19.204154608946101490
0.515000000000000346,-19.051280542769497117
0.516000000000000236,-18.899722932594251290
0.517000000000000348,-18.749471887276662585
0.518000000000000238,-18.600517270717759288
0.519000000000000350,-18.452848719270054545
0.520000000000000240,-18.306455658592863500
0.521000000000000352,-18.161327319964549076
0.522000000000000242,-18.017452756061128838
0.523000000000000353,-17.874820856209939990
0.524000000000000243,-17.733420361128207077
0.525000000000000355,-17.593239877155390616
0.526000000000000245,-17.454267889989242946
0.527000000000000357,-17.316492777934506364
0.528000000000000247,-17.179902824674531558
0.529000000000000359,-17.044486231574772717
0.530000000000000249,-16.910231129528302318
0.531000000000000361,-16.777125590352596873
0.532000000000000250,-16.645157637747658441
0.533000000000000362,-16.514315257824570438
0.534000000000000252,-16.384586409214705327
0.535000000000000364,-16.255959032768590333
0.536000000000000254,-16.128421060854542191
0.537000000000000366,-16.001960426265849691
0.538000000000000256,-15.876565070746920583
0.539000000000000368,-15.752222953146485906
0.540000000000000258,-15.628922057208622931
0.541000000000000369,-15.506650399009288321
0.542000000000000259,-15.385396034048934411
0.543000000000000371,-15.265147064009017441
0.544000000000000261,-15.145891643182247677
0.545000000000000373,-15.027617984584768607
0.546000000000000263,-14.910314365759688826
0.547000000000000375,-14.793969134279507216
0.548000000000000265,-14.678570712957469624
0.549000000000000377,-14.564107604774608973
0.550000000000000266,-14.450568397532077114
0.551000000000000378,-14.337941768236044382
0.552000000000000268,-14.226216487223627638
0.553000000000000380,-14.115381422037561521
0.554000000000000270,-14.005425541057565653
0.555000000000000382,-13.896337916895603826
0.556000000000000272,-13.788107729563236603
0.557000000000000384,-13.680724269417535055
0.558000000000000274,-13.574176939893806804
0.559000000000000385,-13.468455260031102938
0.560000000000000275,-13.363548866798595327
0.561000000000000387,-13.259447517228654334
0.562000000000000277,-13.156141090363959734
0.563000000000000389,-13.053619589024865633
0.564000000000000279,-12.951873141403613232
0.565000000000000391,-12.850892002491388411
0.566000000000000281,-12.750666555344761122
0.567000000000000393,-12.651187312196933377
0.568000000000000282,-12.552444915420434057
0.569000000000000394,-12.454430138345978563
0.570000000000000284,-12.357133885944175944
0.571000000000000396,-12.260547195374536855
0.572000000000000286,-12.164661236407951606
0.573000000000000398,-12.069467311727088088
0.574000000000000288,-11.974956857110409914
0.575000000000000400,-11.881121441504280511
0.576000000000000290,-11.787952766988320619
0.577000000000000401,-11.695442668638303729
0.578000000000000291,-11.603583114291632583
0.579000000000000403,-11.512366204219329546
0.580000000000000293,-11.421784170709390338
0.581000000000000405,-11.331829377565020067
0.582000000000000295,-11.242494319522732482
0.583000000000000407,-11.153771621593289609
0.584000000000000297,-11.065654038330169584
0.585000000000000409,-10.978134453028696171
0.586000000000000298,-10.891205876859990198
0.587000000000000410,-10.804861447942695207
0.588000000000000300,-10.719094430356504333
0.589000000000000412,-10.633898213100145824
0.590000000000000302,-10.549266308997705011
0.591000000000000414,-10.465192353555844207
0.592000000000000304,-10.381670103775338276
0.593000000000000416,-10.298693436919387878
0.594000000000000306,-10.216256349242190282
0.595000000000000417,-10.134352954679684444
0.596000000000000307,-10.052977483505891598
0.597000000000000419,-9.972124280956760956
0.598000000000000309,-9.891787805824458601
0.599000000000000421,-9.811962629024090887
0.600000000000000311,-9.732643432135555273
0.601000000000000423,-9.653825005922209712
0.602000000000000313,-9.575502248829172558
0.603000000000000425,-9.497670165462455572
0.604000000000000314,-9.420323865051932088
0.605000000000000426,-9.343458559898902394
0.606000000000000316,-9.267069563811199728
0.607000000000000428,-9.191152290526625634
0.608000000000000318,-9.115702252127269034
0.609000000000000430,-9.040715057445485314
0.610000000000000320,-8.966186410463963696
0.611000000000000432,-8.892112108710531260
0.612000000000000322,-8.818488041649876763
0.613000000000000433,-8.745310189072991847
0.614000000000000323,-8.672574619486018932
0.615000000000000435,-8.600277488499543210
0.616000000000000325,-8.528415037219710726
0.617000000000000437,-8.456983590642064286
0.618000000000000327,-8.385979556049587558
0.619000000000000439,-8.315399421415488490
0.620000000000000329,-8.245239753812230177
0.621000000000000441,-8.175497197827414908
0.622000000000000330,-8.106168473987541034
0.623000000000000442,-8.037250377190456874
0.624000000000000332,-7.968739775147423821
0.625000000000000444,-7.900633606835333111
0.626000000000000334,-7.832928880960160711
0.627000000000000446,-7.765622674431869932
0.628000000000000336,-7.698712130851914637
0.629000000000000448,-7.632194459013524224
0.630000000000000338,-7.566066931415727836
0.631000000000000449,-7.500326882791251926
0.632000000000000339,-7.434971708649200650
0.633000000000000451,-7.369998863832648794
0.634000000000000341,-7.305405861091898601
0.635000000000000453,-7.241190269673476010
0.636000000000000343,-7.177349713925599062
0.637000000000000455,-7.113881871920132660
0.638000000000000345,-7.050784474091726040
0.639000000000000457,-6.988055301893936644
0.640000000000000346,-6.925692186473251688
0.641000000000000458,-6.863693007360552656
0.642000000000000348,-6.802055691180920682
0.643000000000000460,-6.740778210381368929
0.644000000000000350,-6.679858581977256904
0.645000000000000462,-6.619294866316996817
0.646000000000000352,-6.559085165865722544
0.647000000000000464,-6.499227624007458459
0.648000000000000353,-6.439720423866608812
0.649000000000000465,-6.380561787147967401
0.650000000000000355,-6.321749972996270728
0.651000000000000467,-6.263283276874430427
0.652000000000000357,-6.205160029461246118
0.653000000000000469,-6.147378595568016024
0.654000000000000359,-6.089937373074510774
0.655000000000000471,-6.032834791883903591
0.656000000000000361,-5.976069312897042352
