# ZnO10m10NB_ASPPSCA-AC
# h[nm],U(h)[kJ/mol]
0.149999999999999994,89.344474141696721858
0.150999999999999995,88.278993613786994388
0.151999999999999996,86.921484782657401524
0.152999999999999997,85.499384991769943554
0.153999999999999998,84.095974492986272253
0.154999999999999999,82.729433178702578289
0.156000000000000000,81.393795403182551240
0.157000000000000001,80.078242430299866328
0.158000000000000002,78.774702779055530755
0.159000000000000002,77.479622984690607268
0.160000000000000003,76.193213664496994397
0.161000000000000004,74.917922517008179284
0.162000000000000005,73.656973164993502223
0.163000000000000006,72.413296576593779719
0.164000000000000007,71.188913834784244727
0.165000000000000008,69.984705001266419799
0.166000000000000009,68.800455648991714952
0.167000000000000010,67.635071599310720103
0.168000000000000010,66.486870514720237679
0.169000000000000011,65.353883264445798318
0.170000000000000012,64.234121574457589077
0.171000000000000013,63.125788278589311631
0.172000000000000014,62.027421509722216797
0.173000000000000015,60.937974549948137337
0.174000000000000016,59.856839469039606172
0.175000000000000017,58.783825975910154682
0.176000000000000018,57.719107932289134055
0.177000000000000018,56.663149471644466360
0.178000000000000019,55.616621229619262579
0.179000000000000020,54.580315282164420410
0.180000000000000021,53.555065332360683783
0.181000000000000022,52.541676706804402386
0.182000000000000023,51.540868952113399359
0.183000000000000024,50.553232332008676053
0.184000000000000025,49.579198339926470851
0.185000000000000026,48.619023454502332982
0.186000000000000026,47.672784749424522488
0.187000000000000027,46.740385588317828081
0.188000000000000028,45.821569448387755585
0.189000000000000029,44.915939882399683825
0.190000000000000030,44.022984708795696918
0.191000000000000031,43.142102680295550954
0.192000000000000032,42.272631093218578258
0.193000000000000033,41.413873039271308585
0.194000000000000034,40.565123249990662657
0.195000000000000034,39.725691727305644463
0.196000000000000035,38.894924581684179543
0.197000000000000036,38.072221705344205134
0.198000000000000037,37.257051088075265000
0.199000000000000038,36.448959735566205609
0.200000000000000039,35.647581274672241136
0.201000000000000040,34.852640427897519260
0.202000000000000041,34.063954612489951046
0.203000000000000042,33.281432970443674435
0.204000000000000042,32.505073167173669901
0.205000000000000043,31.734956311560313935
0.206000000000000044,30.971240351302299132
0.207000000000000045,30.214152287773458738
0.208000000000000046,29.463979536336488252
0.209000000000000047,28.721060733564435452
0.210000000000000048,27.985776264015534309
0.211000000000000049,27.258538747782427691
0.212000000000000050,26.539783697397194118
0.213000000000000050,25.829960519974100919
0.214000000000000051,25.129524008623498332
0.215000000000000052,24.438926436877185466
0.216000000000000053,23.758610341642604880
0.217000000000000054,23.089002054404399900
0.218000000000000055,22.430506017233263094
0.219000000000000056,21.783499899749855899
0.220000000000000057,21.148330515532599350
0.221000000000000058,20.525310521497466709
0.222000000000000058,19.914715871390647806
0.223000000000000059,19.316783984569433130
0.224000000000000060,18.731712583511175296
0.225000000000000061,18.159659147782164723
0.226000000000000062,17.600740928303444832
0.227000000000000063,17.055035463452362876
0.228000000000000064,16.522581537626926718
0.229000000000000065,16.003380523166953253
0.230000000000000066,15.497398047783288888
0.231000000000000066,15.004565931709638704
0.232000000000000067,14.524784341500103224
0.233000000000000068,14.057924110597042500
0.234000000000000069,13.603829180357504214
0.235000000000000070,13.162319119033114134
0.236000000000000071,12.733191680147283975
0.237000000000000072,12.316225365715137485
0.238000000000000073,11.911181963733794120
0.239000000000000073,11.517809033271356967
0.240000000000000074,11.135842314250405494
0.241000000000000075,10.765008042620120676
0.242000000000000076,10.405025155006539350
0.243000000000000077,10.055607370102952913
0.244000000000000078,9.716465136996600194
0.245000000000000079,9.387307443314817590
0.246000000000000080,9.067843478510951627
0.247000000000000081,8.757784149797181783
0.248000000000000081,8.456843450174719834
0.249000000000000082,8.164739679717619936
0.250000000000000111,7.881196522745199218
0.251000000000000112,7.605943984782004286
0.252000000000000113,7.338719194265448387
0.253000000000000114,7.079267074835570384
0.254000000000000115,6.827340894740359545
0.255000000000000115,6.582702700431949161
0.256000000000000116,6.345123641825368033
0.257000000000000117,6.114384196958808637
0.258000000000000118,5.890274303946117840
0.259000000000000119,5.672593408161359818
0.260000000000000120,5.461150432555257339
0.261000000000000121,5.255763678886478552
0.262000000000000122,5.056260667467368464
0.263000000000000123,4.862477922785905626
0.264000000000000123,4.674260712081332869
0.265000000000000124,4.491462743630868282
0.266000000000000125,4.313945831155399979
0.267000000000000126,4.141579530382041519
0.268000000000000127,3.974240753415795524
0.269000000000000128,3.811813366178844920
0.270000000000000129,3.654187773777695547
0.271000000000000130,3.501260498260896803
0.272000000000000131,3.352933752837135906
0.273000000000000131,3.209115016238011542
0.274000000000000132,3.069716610534976020
0.275000000000000133,2.934655285357618659
0.276000000000000134,2.803851811112882064
0.277000000000000135,2.677230583473423131
0.278000000000000136,2.554719241088613035
0.279000000000000137,2.436248298175365257
0.280000000000000138,2.321750793368020371
0.281000000000000139,2.211161955947023472
0.282000000000000139,2.104418890325809421
0.283000000000000140,2.001460279453306956
0.284000000000000141,1.902226107586095782
0.285000000000000142,1.806657402698641501
0.286000000000000143,1.714695998631912577
0.287000000000000144,1.626284316929543339
0.288000000000000145,1.541365168175190536
0.289000000000000146,1.459881572525366211
0.290000000000000147,1.381776599026338648
0.291000000000000147,1.306993223212661093
0.292000000000000148,1.235474202405975053
0.293000000000000149,1.167161968066646294
0.294000000000000150,1.101998534495436832
0.295000000000000151,1.039925423137711746
0.296000000000000152,0.980883601707654762
0.297000000000000153,0.924813437323568244
0.298000000000000154,0.871654662827205051
0.299000000000000155,0.821346355449097287
0.300000000000000155,0.773826926977526197
0.301000000000000156,0.729034124590505650
0.302000000000000157,0.686905041516874704
0.303000000000000158,0.647376136704331806
0.304000000000000159,0.610383262687759776
0.305000000000000160,0.575861700870613946
0.306000000000000161,0.543746203454252730
0.307000000000000162,0.513971041275074758
0.308000000000000163,0.486470056836449616
0.309000000000000163,0.461176721851118299
0.310000000000000164,0.438024198640051210
0.311000000000000165,0.416945404765070138
0.312000000000000166,0.397873080304486870
0.313000000000000167,0.380739857213659438
0.314000000000000168,0.365478330245093130
0.315000000000000169,0.352021128935546046
0.316000000000000170,0.340300990200093134
0.317000000000000171,0.330250831105520948
0.318000000000000171,0.321803821427050329
0.319000000000000172,0.314893455623465435
0.320000000000000173,0.309453623896082164
0.321000000000000174,0.305418682026492472
0.322000000000000175,0.302723519716420253
0.323000000000000176,0.301303627180607492
0.324000000000000177,0.301095159770058352
0.325000000000000178,0.302035000428305722
0.326000000000000179,0.304060819807452087
0.327000000000000179,0.307111133893831489
0.328000000000000180,0.311125359015023251
0.329000000000000181,0.316043864120309770
0.330000000000000182,0.321808020246581061
0.331000000000000183,0.328360247099517610
0.332000000000000184,0.335644056697369297
0.333000000000000185,0.343604094040476149
0.334000000000000186,0.352186174784571981
0.335000000000000187,0.361337319909775911
0.336000000000000187,0.371005787389827701
0.337000000000000188,0.381141100877981809
0.338000000000000189,0.391694075436515576
0.339000000000000190,0.402616840346739058
0.340000000000000191,0.413862859045267206
0.341000000000000192,0.425386946240149111
0.342000000000000193,0.437145282267841828
0.343000000000000194,0.449095424758130524
0.344000000000000195,0.461196317680013734
0.345000000000000195,0.473408297846120985
0.346000000000000196,0.485693098957789171
0.347000000000000197,0.498013853276290885
0.348000000000000198,0.510335091008792374
0.349000000000000199,0.522622737500080259
0.350000000000000200,0.534844108322910960
0.351000000000000201,0.546967902361396141
0.352000000000000202,0.558964192982722152
0.353000000000000203,0.570804417393057539
0.354000000000000203,0.582461364273753057
0.355000000000000204,0.593909159793682528
0.356000000000000205,0.605123252093102360
0.357000000000000206,0.616080394333542225
0.358000000000000207,0.626758626407301067
0.359000000000000208,0.637137255398658287
0.360000000000000209,0.647196834887411643
0.361000000000000210,0.656919143183720688
0.362000000000000210,0.666287160581171989
0.363000000000000211,0.675285045713052146
0.364000000000000212,0.683898111094524586
0.365000000000000213,0.692112797931192736
0.366000000000000214,0.699916650272034757
0.367000000000000215,0.707298288582294155
0.368000000000000216,0.714247382809250042
0.369000000000000217,0.720754625011326810
0.370000000000000218,0.726811701618210182
0.371000000000000218,0.732411265387091337
0.372000000000000219,0.737546907117371808
0.373000000000000220,0.742213127183522836
0.374000000000000221,0.746405306943077718
0.375000000000000222,0.750119680074120443
0.376000000000000223,0.753353303893809945
0.377000000000000224,0.756104030707067665
0.378000000000000225,0.758370479231761041
0.379000000000000226,0.760152006144303116
0.380000000000000226,0.761448677786919381
0.381000000000000227,0.762261242075548684
0.382000000000000228,0.762591100644753217
0.383000000000000229,0.762440281263747632
0.384000000000000230,0.761811410555387925
0.385000000000000231,0.760707687047578518
0.386000000000000232,0.759132854584570138
0.387000000000000233,0.757091176123341425
0.388000000000000234,0.754587407938361432
0.389000000000000234,0.751626774255891639
0.390000000000000235,0.748214942337288802
0.391000000000000236,0.744357998028698065
0.392000000000000237,0.740062421792988756
0.393000000000000238,0.735335065237896379
0.394000000000000239,0.730183128152844474
0.395000000000000240,0.724614136065286685
0.396000000000000241,0.718635918325939205
0.397000000000000242,0.712256586730867558
0.398000000000000242,0.705484514687002018
0.399000000000000243,0.698328316926405179
0.400000000000000244,0.690796829773383858
0.401000000000000245,0.682899091967283711
0.402000000000000246,0.674644326042918019
0.403000000000000247,0.666041920269273113
0.404000000000000248,0.657101411146384762
0.405000000000000249,0.647832466459186795
0.406000000000000250,0.638244868886411187
0.407000000000000250,0.628348500161655332
0.408000000000000251,0.618153325783120655
0.409000000000000252,0.607669380267684356
0.410000000000000253,0.596906752944411978
0.411000000000000254,0.585875574281934597
0.412000000000000255,0.574586002743596835
0.413000000000000256,0.563048212163687500
0.414000000000000257,0.551272379637714804
0.415000000000000258,0.539268673919057973
0.416000000000000258,0.527047244314149621
0.417000000000000259,0.514618210067762316
0.418000000000000260,0.501991650229824393
0.419000000000000261,0.489177593994771676
0.420000000000000262,0.476186011504270756
0.421000000000000263,0.463026805103812833
0.422000000000000264,0.449709801043650770
0.423000000000000265,0.436244741614180032
0.424000000000000266,0.422641277705838980
0.425000000000000266,0.408908961783499780
0.426000000000000267,0.395057241265142189
0.427000000000000268,0.381095452294581638
0.428000000000000269,0.367032813897990084
0.429000000000000270,0.352878422513861811
0.430000000000000271,0.338641246886117742
0.431000000000000272,0.324330123310000384
0.432000000000000273,0.309953751220492846
0.433000000000000274,0.295520689112966251
0.434000000000000274,0.281039350785855568
0.435000000000000275,0.266518001895244161
0.436000000000000276,0.251964756811252133
0.437000000000000277,0.237387575766292352
0.438000000000000278,0.222794262285301331
0.439000000000000279,0.208192460888192599
0.440000000000000280,0.193589655054885040
0.441000000000000281,0.178993165443427860
0.442000000000000282,0.164410148351777780
0.443000000000000282,0.149847594414102669
0.444000000000000283,0.135312327522420839
0.445000000000000284,0.120811003964737471
0.446000000000000285,0.106350111770881092
0.447000000000000286,0.091935970257415262
0.448000000000000287,0.077574729763254899
0.449000000000000288,0.063272371567669253
0.450000000000000289,0.049034707982626213
0.451000000000000290,0.034867382611566543
0.452000000000000290,0.020775870766849371
0.453000000000000291,0.006765480038377491
0.454000000000000292,-0.007158648994013661
0.455000000000000293,-0.020991541911558543
0.456000000000000294,-0.034728389477954022
0.457000000000000295,-0.048364546537977060
0.458000000000000296,-0.061895530799934505
0.459000000000000297,-0.075317021508419499
0.460000000000000298,-0.088624858013636204
0.461000000000000298,-0.101815038243365505
0.462000000000000299,-0.114883717083521658
0.463000000000000300,-0.127827204672978256
0.464000000000000301,-0.140641964618276133
0.465000000000000302,-0.153324612133541732
0.466000000000000303,-0.165871912110871156
0.467000000000000304,-0.178280777126188644
0.468000000000000305,-0.190548265385462962
0.469000000000000306,-0.202671578615981923
0.470000000000000306,-0.214648059907248528
0.471000000000000307,-0.226475191505838863
0.472000000000000308,-0.238150592568493524
0.473000000000000309,-0.249672016877495823
0.474000000000000310,-0.261037350522222267
0.475000000000000311,-0.272244609550706451
0.476000000000000312,-0.283291937594757570
0.477000000000000313,-0.294177603472190907
0.478000000000000314,-0.304899998769434633
0.479000000000000314,-0.315457635407795256
0.480000000000000315,-0.325849143196373203
0.481000000000000316,-0.336073267374640716
0.482000000000000317,-0.346128866147429437
0.483000000000000318,-0.356014908215060655
0.484000000000000319,-0.365730470301157851
0.485000000000000320,-0.375274734680599131
0.486000000000000321,-0.384646986709944572
0.487000000000000322,-0.393846612362556581
0.488000000000000322,-0.402873095770500733
0.489000000000000323,-0.411726016775283754
0.490000000000000324,-0.420405048489287669
0.491000000000000325,-0.428909954869719279
0.492000000000000326,-0.437240588306771705
0.493000000000000327,-0.445396887227636484
0.494000000000000328,-0.453378873717845576
0.495000000000000329,-0.461186651161423877
0.496000000000000330,-0.468820401901141715
0.497000000000000330,-0.476280384920216959
0.498000000000000331,-0.483566933546537736
0.499000000000000332,-0.490680453180624809
0.500000000000000333,-0.497621419048304592
0.501000000000000334,-0.504390373979055617
0.502000000000000335,-0.510987926210949683
0.503000000000000336,-0.517414747222982752
0.504000000000000337,-0.523671569595583475
0.505000000000000338,-0.529759184899964541
0.506000000000000338,-0.535678441616987966
0.507000000000000339,-0.541430243086109875
0.508000000000000340,-0.547015545484913268
0.509000000000000341,-0.552435355839752784
0.510000000000000342,-0.557690730067861296
0.511000000000000343,-0.562782771051363762
0.512000000000000344,-0.567712626743457127
0.513000000000000345,-0.572481488307082897
0.514000000000000346,-0.577090588286330308
0.515000000000000346,-0.581541198810723081
0.516000000000000347,-0.585834629832581277
0.517000000000000348,-0.589972227397598914
0.518000000000000349,-0.593955371948651334
0.519000000000000350,-0.597785476662955451
0.520000000000000351,-0.601463985822544456
0.521000000000000352,-0.604992373218094626
0.522000000000000353,-0.608372140585990651
0.523000000000000353,-0.611604816078633595
0.524000000000000354,-0.614691952767841943
0.525000000000000355,-0.617635127181239807
0.526000000000000356,-0.620435937871472887
0.527000000000000357,-0.623096004018109495
0.528000000000000358,-0.625616964062003400
0.529000000000000359,-0.628000474371927297
0.530000000000000360,-0.630248207943228667
0.531000000000000361,-0.632361853128286633
0.532000000000000361,-0.634343112398476294
0.533000000000000362,-0.636193701137377610
0.534000000000000363,-0.637915346464923205
0.535000000000000364,-0.639509786092192223
0.536000000000000365,-0.640978767206501265
0.537000000000000366,-0.642324045386498566
0.538000000000000367,-0.643547383546853591
0.539000000000000368,-0.644650550912285736
0.540000000000000369,-0.645635322020449154
0.541000000000000369,-0.646503475753420043
0.542000000000000370,-0.647256794397301438
0.543000000000000371,-0.647897062729636208
0.544000000000000372,-0.648426067134199036
0.545000000000000373,-0.648845594742771259
0.546000000000000374,-0.649157432603505335
0.547000000000000375,-0.649363366875449155
0.548000000000000376,-0.649465182048859946
0.549000000000000377,-0.649464660190835930
0.550000000000000377,-0.649363580215903680
0.551000000000000378,-0.649163717181087230
0.552000000000000379,-0.648866841605089006
0.553000000000000380,-0.648474718811122619
0.554000000000000381,-0.647989108292969740
0.555000000000000382,-0.647411763103891369
0.556000000000000383,-0.646744429267873899
0.557000000000000384,-0.645988845212892349
0.558000000000000385,-0.645146741225672948
0.559000000000000385,-0.644219838927597044
0.560000000000000386,-0.643209850771294112
0.561000000000000387,-0.642118479557512334
0.562000000000000388,-0.640947417971834299
0.563000000000000389,-0.639698348140866568
0.564000000000000390,-0.638372941207419720
0.565000000000000391,-0.636972856924335584
0.566000000000000392,-0.635499743266508044
0.567000000000000393,-0.633955236060726013
0.568000000000000393,-0.632340958632900407
0.569000000000000394,-0.630658521472314493
0.570000000000000395,-0.628909521912489611
0.571000000000000396,-0.627095543828246282
0.572000000000000397,-0.625218157348642611
0.573000000000000398,-0.623278918585332131
0.574000000000000399,-0.621279369376024571
0.575000000000000400,-0.619221037042625100
0.576000000000000401,-0.617105434163722211
0.577000000000000401,-0.614934058361054858
0.578000000000000402,-0.612708392099569288
0.579000000000000403,-0.610429902500737365
0.580000000000000404,-0.608100041168797900
0.581000000000000405,-0.605720244029530175
0.582000000000000406,-0.603291931181275887
0.583000000000000407,-0.600816506757817614
0.584000000000000408,-0.598295358802842570
0.585000000000000409,-0.595729859155611052
0.586000000000000409,-0.593121363347544839
0.587000000000000410,-0.590471210509422972
0.588000000000000411,-0.587780723288834350
0.589000000000000412,-0.585051207777650184
0.590000000000000413,-0.582283953449145963
0.591000000000000414,-0.579480233104521902
0.592000000000000415,-0.576641302828542757
0.593000000000000416,-0.573768401953963836
0.594000000000000417,-0.570862753034503734
0.595000000000000417,-0.567925561826111536
0.596000000000000418,-0.564958017276174229
0.597000000000000419,-0.561961291520518769
0.598000000000000420,-0.558936539887839645
0.599000000000000421,-0.555884900911383872
0.600000000000000422,-0.552807496347596627
0.601000000000000423,-0.549705431201497730
0.602000000000000424,-0.546579793758557808
0.603000000000000425,-0.543431655622849119
0.604000000000000425,-0.540262071761202667
0.605000000000000426,-0.537072080553197106
0.606000000000000427,-0.533862703846755493
0.607000000000000428,-0.530634947019067660
0.608000000000000429,-0.527389799042764063
0.609000000000000430,-0.524128232556969609
0.610000000000000431,-0.520851203943204610
0.611000000000000432,-0.517559653405805564
0.612000000000000433,-0.514254505056744193
0.613000000000000433,-0.510936667004657008
0.614000000000000434,-0.507607031447879220
0.615000000000000435,-0.504266474771305484
0.616000000000000436,-0.500915857646931140
0.617000000000000437,-0.497556025137900093
