# ZnO10m10NB_LYSSCA-JS
# h[nm],U(h)[kJ/mol]
0.200000000000000011,85.680918103101390670
0.201000000000000012,83.960902354293779126
0.202000000000000013,82.388632232994851279
0.203000000000000014,80.887995568656322121
0.204000000000000015,79.418457560489088110
0.205000000000000016,77.961196593119993281
0.206000000000000016,76.509907460203692153
0.207000000000000017,75.064870997027597355
0.208000000000000018,73.629273728763195095
0.209000000000000019,72.207047231457138992
0.210000000000000020,70.801708396730404615
0.211000000000000021,69.415837033820224633
0.212000000000000022,68.050940264799010038
0.213000000000000023,66.707534667641951387
0.214000000000000024,65.385335224261382336
0.215000000000000024,64.083480986926673495
0.216000000000000025,62.800755620526864220
0.217000000000000026,61.535780084050529126
0.218000000000000027,60.287167272411423369
0.219000000000000028,59.053636367731179746
0.220000000000000029,57.834089357730249503
0.221000000000000030,56.627654695745853530
0.222000000000000031,55.433704143297902078
0.223000000000000032,54.251848979890397118
0.224000000000000032,53.081921355922801808
0.225000000000000033,51.923945857522916469
0.226000000000000034,50.778105517061021601
0.227000000000000035,49.644705649954637749
0.228000000000000036,48.524138094274910316
0.229000000000000037,47.416847712049502661
0.230000000000000038,46.323302397264548347
0.231000000000000039,45.243967329364743080
0.232000000000000040,44.179283808154401925
0.233000000000000040,43.129652697183203713
0.234000000000000041,42.095422276262965511
0.235000000000000042,41.076880147175266700
0.236000000000000043,40.074248737562840006
0.237000000000000044,39.087683894955453923
0.238000000000000045,38.117276045562832110
0.239000000000000046,37.163053401916386065
0.240000000000000047,36.224986732068444439
0.241000000000000048,35.302995244598186275
0.242000000000000048,34.396953193056937437
0.243000000000000049,33.506696856725355360
0.244000000000000050,32.632031608599177730
0.245000000000000051,31.772738834097360439
0.246000000000000052,30.928582513503222629
0.247000000000000053,30.099315326530206249
0.248000000000000054,29.284684178019553258
0.249000000000000055,28.484435079324590845
0.250000000000000056,27.698317350373248047
0.251000000000000056,26.926087132870897278
0.252000000000000057,26.167510225888840125
0.253000000000000058,25.422364271549628967
0.254000000000000059,24.690440331085458325
0.255000000000000060,23.971543900662513948
0.256000000000000061,23.265495422478302601
0.257000000000000062,22.572130350193472026
0.258000000000000063,21.891298829170033002
0.259000000000000064,21.222865051641882417
0.260000000000000064,20.566706345193381367
0.261000000000000065,19.922712050084420810
0.262000000000000066,19.290782237310949654
0.263000000000000067,18.670826315074631196
0.264000000000000068,18.062761566755707321
0.265000000000000069,17.466511658715340616
0.266000000000000070,16.882005151440733215
0.267000000000000071,16.309174042802272453
0.268000000000000071,15.747952367610334790
0.269000000000000072,15.198274873308415422
0.270000000000000073,14.660075787570534089
0.271000000000000074,14.133287689820800637
0.272000000000000075,13.617840495280598034
0.273000000000000076,13.113660557087822411
0.274000000000000077,12.620669889321160184
0.275000000000000078,12.138785511396218197
0.276000000000000079,11.667918912266884490
0.277000000000000079,11.207975631147139239
0.278000000000000080,10.758854950048515775
0.279000000000000081,10.320449692281368215
0.280000000000000082,9.892646120173997915
0.281000000000000083,9.475323924596363412
0.282000000000000084,9.068356298412616923
0.283000000000000085,8.671610085704205773
0.284000000000000086,8.284945998480411689
0.285000000000000087,7.908218892606022621
0.286000000000000087,7.541278094802969179
0.287000000000000088,7.183967772808483865
0.288000000000000089,6.836127341077163244
0.289000000000000090,6.497591894782726918
0.290000000000000091,6.168192665294206734
0.291000000000000092,5.847757490755258303
0.292000000000000093,5.536111295875797644
0.293000000000000094,5.233076575539997499
0.294000000000000095,4.938473877336372553
0.295000000000000095,4.652122278615672180
0.296000000000000096,4.373839854175884057
0.297000000000000097,4.103444131153435315
0.298000000000000098,3.840752528163474011
0.299000000000000099,3.585582776174551789
0.300000000000000100,3.337753319023128995
0.301000000000000101,3.097083691867418498
0.302000000000000102,2.863394876248800180
0.303000000000000103,2.636509630768816059
0.304000000000000103,2.416252796703576955
0.305000000000000104,2.202451578162032408
0.306000000000000105,1.994935796652404836
0.307000000000000106,1.793538120152335491
0.308000000000000107,1.598094266983006717
0.309000000000000108,1.408443184967979267
0.310000000000000109,1.224427206513506006
0.311000000000000110,1.045892180381725378
0.312000000000000111,0.872687581040162974
0.313000000000000111,0.704666596565026282
0.314000000000000112,0.541686196150191535
0.315000000000000113,0.383607178332229681
0.316000000000000114,0.230294201084388028
0.317000000000000115,0.081615794961421712
0.318000000000000116,-0.062555639506846686
0.319000000000000117,-0.202343848970450241
0.320000000000000118,-0.337868757765111882
0.321000000000000119,-0.469246510585706378
0.322000000000000119,-0.596589526165765660
0.323000000000000120,-0.720006560829910658
0.324000000000000121,-0.839602780820708716
0.325000000000000122,-0.955479842340079655
0.326000000000000123,-1.067735978288531840
0.327000000000000124,-1.176466090731465020
0.328000000000000125,-1.281761848170514417
0.329000000000000126,-1.383711786747902295
0.330000000000000127,-1.482401414563476294
0.331000000000000127,-1.577913318336172876
0.332000000000000128,-1.670327271693986093
0.333000000000000129,-1.759720344428723493
0.334000000000000130,-1.846167012103193672
0.335000000000000131,-1.929739265449529784
0.336000000000000132,-2.010506719046215363
0.337000000000000133,-2.088536718810057202
0.338000000000000134,-2.163894447885522432
0.339000000000000135,-2.236643030558520984
0.340000000000000135,-2.306843633864860355
0.341000000000000136,-2.374555566604152901
0.342000000000000137,-2.439836375508988020
0.343000000000000138,-2.502741938355671714
0.344000000000000139,-2.563326553837700139
0.345000000000000140,-2.621643028055326674
0.346000000000000141,-2.677742757504999904
0.347000000000000142,-2.731675808480575451
0.348000000000000143,-2.783490992824456445
0.349000000000000143,-2.833235939990690788
0.350000000000000144,-2.880957165404384845
0.351000000000000145,-2.926700135121716784
0.352000000000000146,-2.970509326813409956
0.353000000000000147,-3.012428287110870517
0.354000000000000148,-3.052499685369177040
0.355000000000000149,-3.090765363914235397
0.356000000000000150,-3.127266384853114367
0.357000000000000151,-3.162043073536835003
0.358000000000000151,-3.195135058773614922
0.359000000000000152,-3.226581309898184369
0.360000000000000153,-3.256420170809179560
0.361000000000000154,-3.284689391091579758
0.362000000000000155,-3.311426154345582518
0.363000000000000156,-3.336667103846277627
0.364000000000000157,-3.360448365660715808
0.365000000000000158,-3.382805569350705976
0.366000000000000159,-3.403773866389868008
0.367000000000000159,-3.423387946423929407
0.368000000000000160,-3.441682051502298556
0.369000000000000161,-3.458689988407900096
0.370000000000000162,-3.474445139210482925
0.371000000000000163,-3.488980470166529901
0.372000000000000164,-3.502328539086222658
0.373000000000000165,-3.514521501285147842
0.374000000000000166,-3.525591114235198997
0.375000000000000167,-3.535568741025505002
0.376000000000000167,-3.544485352740819994
0.377000000000000168,-3.552371529860733013
0.378000000000000169,-3.559257462779096048
0.379000000000000170,-3.565172951539014257
0.380000000000000171,-3.570147404874506325
0.381000000000000172,-3.574209838645638460
0.382000000000000173,-3.577388873749705933
0.383000000000000174,-3.579712733586758677
0.384000000000000175,-3.581209241153397560
0.385000000000000175,-3.581905815834542040
0.386000000000000176,-3.581829469958801582
0.387000000000000177,-3.581006805178610364
0.388000000000000178,-3.579464008732653468
0.389000000000000179,-3.577226849643687423
0.390000000000000180,-3.574320674901299899
0.391000000000000181,-3.570770405675212977
0.392000000000000182,-3.566600533601078205
0.393000000000000183,-3.561835117177187815
0.394000000000000183,-3.556497778307083024
0.395000000000000184,-3.550611699019779799
0.396000000000000185,-3.544199618396052465
0.397000000000000186,-3.537283829726297402
0.398000000000000187,-3.529886177922565427
0.399000000000000188,-3.522028057204543927
0.400000000000000189,-3.513730409076607053
0.401000000000000190,-3.505013720610731021
0.402000000000000191,-3.495898023047467884
0.403000000000000191,-3.486402890725099901
0.404000000000000192,-3.476547440344952555
0.405000000000000193,-3.466350330578821026
0.406000000000000194,-3.455829762022696539
0.407000000000000195,-3.445003477499199995
0.408000000000000196,-3.433888762709480069
0.409000000000000197,-3.422502447233935818
0.410000000000000198,-3.410860905879710803
0.411000000000000199,-3.398980060371483258
0.412000000000000199,-3.386875381381203365
0.413000000000000200,-3.374561890891027538
0.414000000000000201,-3.362054164883021112
0.415000000000000202,-3.349366336348039930
0.416000000000000203,-3.336512098605675103
0.417000000000000204,-3.323504708926223294
0.418000000000000205,-3.310356992445128377
0.419000000000000206,-3.297081346359804321
0.420000000000000207,-3.283689744398082588
0.421000000000000207,-3.270193741547504196
0.422000000000000208,-3.256604479033765820
0.423000000000000209,-3.242932689536959234
0.424000000000000210,-3.229188702633536856
0.425000000000000211,-3.215382450451954810
0.426000000000000212,-3.201523473529930719
0.427000000000000213,-3.187620926860856851
0.428000000000000214,-3.173683586117277855
0.429000000000000214,-3.159719854038976816
0.430000000000000215,-3.145737766973526028
0.431000000000000216,-3.131745001557117991
0.432000000000000217,-3.117748881523619620
0.433000000000000218,-3.103756384629915210
0.434000000000000219,-3.089774149685866167
0.435000000000000220,-3.075808483677291871
0.436000000000000221,-3.061865368970653645
0.437000000000000222,-3.047950470588344452
0.438000000000000222,-3.034069143543745017
0.439000000000000223,-3.020226440225508124
0.440000000000000224,-3.006427117820707817
0.441000000000000225,-2.992675645766905923
0.442000000000000226,-2.978976213223476499
0.443000000000000227,-2.965332736552704240
0.444000000000000228,-2.951748866801729321
0.445000000000000229,-2.938227997176523054
0.446000000000000230,-2.924773270499492650
0.447000000000000230,-2.911387586642712577
0.448000000000000231,-2.898073609929010530
0.449000000000000232,-2.884833776493481938
0.450000000000000233,-2.871670301598479913
0.451000000000000234,-2.858585186895238994
0.452000000000000235,-2.845580227625878589
0.453000000000000236,-2.832657019759579065
0.454000000000000237,-2.819816967057395374
0.455000000000000238,-2.807061288060130444
0.456000000000000238,-2.794391022994318075
0.457000000000000239,-2.781807040591487201
0.458000000000000240,-2.769310044816298610
0.459000000000000241,-2.756900581499336145
0.460000000000000242,-2.744579044870810058
0.461000000000000243,-2.732345683991487473
0.462000000000000244,-2.720200609077728870
0.463000000000000245,-2.708143797717398105
0.464000000000000246,-2.696175100974207428
0.465000000000000246,-2.684294249377777053
0.466000000000000247,-2.672500858797331347
0.467000000000000248,-2.660794436197015056
0.468000000000000249,-2.649174385271113596
0.469000000000000250,-2.637640011957659514
0.470000000000000251,-2.626190529829162568
0.471000000000000252,-2.614825065359325240
0.472000000000000253,-2.603542663065048224
0.473000000000000254,-2.592342290522824388
0.474000000000000254,-2.581222843259257438
0.475000000000000255,-2.570183149515263832
0.476000000000000256,-2.559221974883903350
0.477000000000000257,-2.548338026821871161
0.478000000000000258,-2.537529959034821925
0.479000000000000259,-2.526796375736898970
0.480000000000000260,-2.516135835784959252
0.481000000000000261,-2.505546856688085633
0.482000000000000262,-2.495027918493174734
0.483000000000000262,-2.484577467547478768
0.484000000000000263,-2.474193920139016178
0.485000000000000264,-2.463875666016043908
0.486000000000000265,-2.453621071786726837
0.487000000000000266,-2.443428484200262041
0.488000000000000267,-2.433296233310902057
0.489000000000000268,-2.423222635526302682
0.490000000000000269,-2.413205996541684328
0.491000000000000270,-2.403244614161496706
0.492000000000000270,-2.393336781010144243
0.493000000000000271,-2.383480787133600565
0.494000000000000272,-2.373674922493615558
0.495000000000000273,-2.363917479356368201
0.496000000000000274,-2.354206754577460536
0.497000000000000275,-2.344541051785089092
0.498000000000000276,-2.334918683463451217
0.499000000000000277,-2.325337972938249731
0.500000000000000222,-2.315797256266373783
0.501000000000000334,-2.306294884031744985
0.502000000000000224,-2.296829223049400071
0.503000000000000336,-2.287398657979830663
0.504000000000000226,-2.278001592855712687
0.505000000000000338,-2.268636452523023372
0.506000000000000227,-2.259301683998727661
0.507000000000000339,-2.249995757747045744
0.508000000000000229,-2.240717168876424914
0.509000000000000341,-2.231464438259284755
0.510000000000000231,-2.222236113576673056
0.511000000000000343,-2.213030770289808657
0.512000000000000233,-2.203847012540652628
0.513000000000000345,-2.194683473983519040
0.514000000000000234,-2.185538818549823681
0.515000000000000346,-2.176411741147870504
0.516000000000000236,-2.167300968299815889
0.517000000000000348,-2.158205258717697639
0.518000000000000238,-2.149123403820563105
0.519000000000000350,-2.140054228194568253
0.520000000000000240,-2.130996589998005231
0.521000000000000352,-2.121949381313185334
0.522000000000000242,-2.112911528446947518
0.523000000000000353,-2.103881992181748650
0.524000000000000243,-2.094859767979033283
0.525000000000000355,-2.085843886136780512
0.526000000000000245,-2.076833411902892834
0.527000000000000357,-2.067827445546181586
0.528000000000000247,-2.058825122386679141
0.529000000000000359,-2.049825612786862816
0.530000000000000249,-2.040828122105505571
0.531000000000000361,-2.031831890615683367
0.532000000000000250,-2.022836193388555692
0.533000000000000362,-2.013840340144422481
0.534000000000000252,-2.004843675072547349
0.535000000000000364,-1.995845576621270823
0.536000000000000254,-1.986845457259795555
0.537000000000000366,-1.977842763213023769
0.538000000000000256,-1.968836974170918186
0.539000000000000368,-1.959827602973576832
0.540000000000000258,-1.950814195273468998
0.541000000000000369,-1.941796329175958347
0.542000000000000259,-1.932773614859481626
0.543000000000000371,-1.923745694176465237
0.544000000000000261,-1.914712240236240204
0.545000000000000373,-1.905672956971039111
0.546000000000000263,-1.896627578686207682
0.547000000000000375,-1.887575869595651934
0.548000000000000265,-1.878517623343675336
0.549000000000000377,-1.869452662514052621
0.550000000000000266,-1.860380838127481784
0.551000000000000378,-1.851302029128241156
0.552000000000000268,-1.842216141861033663
0.553000000000000380,-1.833123109538882245
0.554000000000000270,-1.824022891702963722
0.555000000000000382,-1.814915473675138058
0.556000000000000272,-1.805800866004110050
0.557000000000000384,-1.796679103905804764
0.558000000000000274,-1.787550246698929257
0.559000000000000385,-1.778414377236212429
0.560000000000000275,-1.769271601332214505
0.561000000000000387,-1.760122047188232841
0.562000000000000277,-1.750965864815005046
0.563000000000000389,-1.741803225453833592
0.564000000000000279,-1.732634320996691457
0.565000000000000391,-1.723459363405901001
0.566000000000000281,-1.714278584133919647
0.567000000000000393,-1.705092233543744396
0.568000000000000282,-1.695900580330483631
0.569000000000000394,-1.686703910944479246
0.570000000000000284,-1.677502529016538180
0.571000000000000396,-1.668296754785629998
0.572000000000000286,-1.659086924529534546
0.573000000000000398,-1.649873389998733675
0.574000000000000288,-1.640656517854037322
0.575000000000000400,-1.631436689108226590
0.576000000000000290,-1.622214298572065561
0.577000000000000401,-1.612989754305011347
0.578000000000000291,-1.603763477070924370
0.579000000000000403,-1.594535899799051748
0.580000000000000293,-1.585307467050574681
0.581000000000000405,-1.576078634490936325
0.582000000000000295,-1.566849868368241028
0.583000000000000407,-1.557621644997896126
0.584000000000000297,-1.548394450253725241
0.585000000000000409,-1.539168779065757331
0.586000000000000298,-1.529945134924862282
0.587000000000000410,-1.520724029394383114
0.588000000000000300,-1.511505981628960660
0.589000000000000412,-1.502291517900633977
0.590000000000000302,-1.493081171132398577
0.591000000000000414,-1.483875480439327488
0.592000000000000304,-1.474674990677342423
0.593000000000000416,-1.465480251999727646
0.594000000000000306,-1.456291819421528855
0.595000000000000417,-1.447110252391839325
0.596000000000000307,-1.437936114374075869
0.597000000000000419,-1.428769972434305702
0.598000000000000309,-1.419612396837671042
0.599000000000000421,-1.410463960652904358
0.600000000000000311,-1.401325239365058373
0.601000000000000423,-1.392196810496366677
0.602000000000000313,-1.383079253235343087
0.603000000000000425,-1.373973148074041806
0.604000000000000314,-1.364879076453584972
0.605000000000000426,-1.355797620417817262
0.606000000000000316,-1.346729362275215447
0.607000000000000428,-1.337674884268909459
0.608000000000000318,-1.328634768254906673
0.609000000000000430,-1.319609595388371748
0.610000000000000320,-1.310599945818042844
0.611000000000000432,-1.301606398388637231
0.612000000000000322,-1.292629530351291134
0.613000000000000433,-1.283669917081917022
0.614000000000000323,-1.274728131807473686
0.615000000000000435,-1.265804745340054493
0.616000000000000325,-1.256900325818753883
0.617000000000000437,-1.248015438459229465
0.618000000000000327,-1.239150645310927779
0.619000000000000439,-1.230306505021830921
0.620000000000000329,-1.221483572610732038
0.621000000000000441,-1.212682399246899578
0.622000000000000330,-1.203903532037079005
0.623000000000000442,-1.195147513819736718
0.624000000000000332,-1.186414882966464690
0.625000000000000444,-1.177706173190458339
0.626000000000000334,-1.169021913361983689
0.627000000000000446,-1.160362627330716823
0.628000000000000336,-1.151728833754898540
0.629000000000000448,-1.143121045937180780
0.630000000000000338,-1.134539771667083974
0.631000000000000449,-1.125985513069954758
0.632000000000000339,-1.117458766462343434
0.633000000000000451,-1.108960022213671737
0.634000000000000341,-1.100489764614127619
0.635000000000000453,-1.092048471748657379
0.636000000000000343,-1.083636615376956325
0.637000000000000455,-1.075254660819365382
0.638000000000000345,-1.066903066848575943
0.639000000000000457,-1.058582285586994187
0.640000000000000346,-1.050292762409743785
0.641000000000000458,-1.042034935853098476
0.642000000000000348,-1.033809237528351632
0.643000000000000460,-1.025616092040909422
0.644000000000000350,-1.017455916914603131
0.645000000000000462,-1.009329122521025468
0.646000000000000352,-1.001236112013872415
0.647000000000000464,-0.993177281268099010
0.648000000000000353,-0.985153018823895055
0.649000000000000465,-0.977163705835236152
0.650000000000000355,-0.969209716023065937
0.651000000000000467,-0.961291415632855029
0.652000000000000357,-0.953409163396578441
0.653000000000000469,-0.945563310498869214
0.654000000000000359,-0.937754200547389338
0.655000000000000471,-0.929982169547187931
0.656000000000000361,-0.922247545879061770
0.657000000000000473,-0.914550650281714894
0.658000000000000362,-0.906891795837729831
0.659000000000000474,-0.899271287963144594
0.660000000000000364,-0.891689424400643915
0.661000000000000476,-0.884146495216172723
0.662000000000000366,-0.876642782798965792
0.663000000000000478,-0.869178561864838328
