# ZnO10m10NB_CHL-JS
# h[nm],U(h)[kJ/mol]
0.149999999999999994,172.122469820889961056
0.150999999999999995,170.715576054352681012
0.151999999999999996,168.808692541813741173
0.152999999999999997,166.774370783866743295
0.153999999999999998,164.764541235898491323
0.154999999999999999,162.821456822062685887
0.156000000000000000,160.939645443739237862
0.157000000000000001,159.098361751673053277
0.158000000000000002,157.276898688692710948
0.159000000000000002,155.460428014697043864
0.160000000000000003,153.640995745534922889
0.161000000000000004,151.816358315683345381
0.162000000000000005,149.988135235288098102
0.163000000000000006,148.160020568193374402
0.164000000000000007,146.336368030327207634
0.165000000000000008,144.521229204313669925
0.166000000000000009,142.717806528423011514
0.167000000000000010,140.928233966615266581
0.168000000000000010,139.153587916377404099
0.169000000000000011,137.394040004297551150
0.170000000000000012,135.649080656514257726
0.171000000000000013,133.917761322879698582
0.172000000000000014,132.198920663527104580
0.173000000000000015,130.491374420032457238
0.174000000000000016,128.794059712470641443
0.175000000000000017,127.106132328218862426
0.176000000000000018,125.427020668561311822
0.177000000000000018,123.756442953314831357
0.178000000000000019,122.094395596769231815
0.179000000000000020,120.441120840893148625
0.180000000000000021,118.797061160411857372
0.181000000000000022,117.162806948848469801
0.182000000000000023,115.539042785461631979
0.183000000000000024,113.926496332921800558
0.184000000000000025,112.325892732244668082
0.185000000000000026,110.737916309865426001
0.186000000000000026,109.163180524834473317
0.187000000000000027,107.602206372230895681
0.188000000000000028,106.055408916950838716
0.189000000000000029,104.523091245306957831
0.190000000000000030,103.005444870321028361
0.191000000000000031,101.502555487908566079
0.192000000000000032,100.014412932985578664
0.193000000000000033,98.540924205823245074
0.194000000000000034,97.081928510864301529
0.195000000000000034,95.637213356386183705
0.196000000000000035,94.206530890257880628
0.197000000000000036,92.789613783631267552
0.198000000000000037,91.386190112201703073
0.199000000000000038,89.995996817312175153
0.200000000000000039,88.618791452172985146
0.201000000000000040,87.254362028886205849
0.202000000000000041,85.902534878151612929
0.203000000000000042,84.563180514824040301
0.204000000000000042,83.236217568998981164
0.205000000000000043,81.921614894690762299
0.206000000000000044,80.619392007489835805
0.207000000000000045,79.329618030139741336
0.208000000000000046,78.052409342198444619
0.209000000000000047,76.787926138318965741
0.210000000000000048,75.536368100658819458
0.211000000000000049,74.297969385903002149
0.212000000000000050,73.072993117638816329
0.213000000000000050,71.861725561531486051
0.214000000000000051,70.664470144939713236
0.215000000000000052,69.481541465182445449
0.216000000000000053,68.313259412383516178
0.217000000000000054,67.159943514308608314
0.218000000000000055,66.021907592389453612
0.219000000000000056,64.899454800603365356
0.220000000000000057,63.792873102351542514
0.221000000000000058,62.702431225183588026
0.222000000000000058,61.628375119289692918
0.223000000000000059,60.570924933223899700
0.224000000000000060,59.530272509356038313
0.225000000000000061,58.506579392079778756
0.226000000000000062,57.499975333781534914
0.227000000000000063,56.510557276939870519
0.228000000000000064,55.538388785389372515
0.229000000000000065,54.583499893649765511
0.230000000000000066,53.645887340183811887
0.231000000000000066,52.725515148394663356
0.232000000000000067,51.822315517994525180
0.233000000000000068,50.936189988958524566
0.234000000000000069,50.067010840517376380
0.235000000000000070,49.214622688435198938
0.236000000000000071,48.378844245072393448
0.237000000000000072,47.559470208356962928
0.238000000000000073,46.756273247703894924
0.239000000000000073,45.969006057057335113
0.240000000000000074,45.197403447517281450
0.241000000000000075,44.441184454400215031
0.242000000000000076,43.700054436015662418
0.243000000000000077,42.973707143878876025
0.244000000000000078,42.261826746487557216
0.245000000000000079,41.564089791136083818
0.246000000000000080,40.880167090501387861
0.247000000000000081,40.209725522889542049
0.248000000000000081,39.552429737066916005
0.249000000000000082,38.907943754504756839
0.250000000000000111,38.275932463630738312
0.251000000000000112,37.656063002304748011
0.252000000000000113,37.048006026213613495
0.253000000000000114,36.451436862215558676
0.254000000000000115,35.866036546856570055
0.255000000000000115,35.291492751337564471
0.256000000000000116,34.727500595133747652
0.257000000000000117,34.173763351264121013
0.258000000000000118,33.629993046887427965
0.259000000000000119,33.095910963465620114
0.260000000000000120,32.571248041197435441
0.261000000000000121,32.055745192790013220
0.262000000000000122,31.549153531913088244
0.263000000000000123,31.051234521876828865
0.264000000000000123,30.561760050198603977
0.265000000000000124,30.080512434782434639
0.266000000000000125,29.607284367436818684
0.267000000000000126,29.141878800406601613
0.268000000000000127,28.684108781500821550
0.269000000000000128,28.233797243267087396
0.270000000000000129,27.790776751498555086
0.271000000000000130,27.354889218168530363
0.272000000000000131,26.925985583675014823
0.273000000000000131,26.503925473046468397
0.274000000000000132,26.088576830516551297
0.275000000000000133,25.679815536621486416
0.276000000000000134,25.277525011713851910
0.277000000000000135,24.881595809523425089
0.278000000000000136,24.491925204130986060
0.279000000000000137,24.108416773458621662
0.280000000000000138,23.730979982121258587
0.281000000000000139,23.359529766229581327
0.282000000000000139,22.993986122488241364
0.283000000000000140,22.634273703693430946
0.284000000000000141,22.280321422504151485
0.285000000000000142,21.932062065140893736
0.286000000000000143,21.589431916455332328
0.287000000000000144,21.252370397615734987
0.288000000000000145,20.920819717464233634
0.289000000000000146,20.594724538426198990
0.290000000000000147,20.274031657685533503
0.291000000000000147,19.958689704187165148
0.292000000000000148,19.648648851883940836
0.293000000000000149,19.343860549514765523
0.294000000000000150,19.044277267079305460
0.295000000000000151,18.749852259064635263
0.296000000000000152,18.460539344378950943
0.297000000000000153,18.176292702857470118
0.298000000000000154,17.897066688124180445
0.299000000000000155,17.622815656521410688
0.300000000000000155,17.353493811755420495
0.301000000000000156,17.089055064850835919
0.302000000000000157,16.829452908958241864
0.303000000000000158,16.574640308518816312
0.304000000000000159,16.324569602254982215
0.305000000000000160,16.079192419428359528
0.306000000000000161,15.838459608783187704
0.307000000000000162,15.602321179576568611
0.308000000000000163,15.370726254084257079
0.309000000000000163,15.143623030962796605
0.310000000000000164,14.920958758844742320
0.311000000000000165,14.702679719543596093
0.312000000000000166,14.488731220247842657
0.313000000000000167,14.279057594089735517
0.314000000000000168,14.073602208482835607
0.315000000000000169,13.872307480633390142
0.316000000000000170,13.675114899643588728
0.317000000000000171,13.481965054639454493
0.318000000000000171,13.292797668372614339
0.319000000000000172,13.107551635762385800
0.320000000000000173,12.926165066863736897
0.321000000000000174,12.748575333765966633
0.322000000000000175,12.574719120947062123
0.323000000000000176,12.404532478629846537
0.324000000000000177,12.237950878706595148
0.325000000000000178,12.074909272820798734
0.326000000000000179,11.915342152215433913
0.327000000000000179,11.759183608979235203
0.328000000000000180,11.606367398343302000
0.329000000000000181,11.456827001701558544
0.330000000000000182,11.310495690049588546
0.331000000000000183,11.167306587556335984
0.332000000000000184,11.027192735003646717
0.333000000000000185,10.890087152847829799
0.334000000000000186,10.755922903676346181
0.335000000000000187,10.624633153851370082
0.336000000000000187,10.496151234149401432
0.337000000000000188,10.370410699223734596
0.338000000000000189,10.247345385732533174
0.339000000000000190,10.126889468991478793
0.340000000000000191,10.008977518025073294
0.341000000000000192,9.893544548904930735
0.342000000000000193,9.780526076277364922
0.343000000000000194,9.669858162995534911
0.344000000000000195,9.561477467784060380
0.345000000000000195,9.455321290875248863
0.346000000000000196,9.351327617567752881
0.347000000000000197,9.249435159668371043
0.348000000000000198,9.149583394787740076
0.349000000000000199,9.051712603469706409
0.350000000000000200,8.955763904142685305
0.351000000000000201,8.861679285889218605
0.352000000000000202,8.769401639037429419
0.353000000000000203,8.678874783584578978
0.354000000000000203,8.590043495469505075
0.355000000000000204,8.502853530716286912
0.356000000000000205,8.417251647476714282
0.357000000000000206,8.333185626003942303
0.358000000000000207,8.250604286594116488
0.359000000000000208,8.169457505536492192
0.360000000000000209,8.089696229116045245
0.361000000000000210,8.011272485715885239
0.362000000000000210,7.934139396069122441
0.363000000000000211,7.858251181712530453
0.364000000000000212,7.783563171696149752
0.365000000000000213,7.710031807604811327
0.366000000000000214,7.637614646948949648
0.367000000000000215,7.566270364983232355
0.368000000000000216,7.495958755012280150
0.369000000000000217,7.426640727243740692
0.370000000000000218,7.358278306248926981
0.371000000000000218,7.290834627091986597
0.372000000000000219,7.224273930188044979
0.373000000000000220,7.158561554951019090
0.374000000000000221,7.093663932291299545
0.375000000000000222,7.029548576023138651
0.376000000000000223,6.966184073240711427
0.377000000000000224,6.903540073721485371
0.378000000000000225,6.841587278414332118
0.379000000000000226,6.780297427069138294
0.380000000000000226,6.719643285063334304
0.381000000000000227,6.659598629480011134
0.382000000000000228,6.600138234490762201
0.383000000000000229,6.541237856095298397
0.384000000000000230,6.482874216268636580
0.385000000000000231,6.425024986565037288
0.386000000000000232,6.367668771226840718
0.387000000000000233,6.310785089844552331
0.388000000000000234,6.254354359613340186
0.389000000000000234,6.198357877229513591
0.390000000000000235,6.142777800469014338
0.391000000000000236,6.087597129488588443
0.392000000000000237,6.032799687888658724
0.393000000000000238,5.978370103575479710
0.394000000000000239,5.924293789458688231
0.395000000000000240,5.870556924018745626
0.396000000000000241,5.817146431777436177
0.397000000000000242,5.764049963702979618
0.398000000000000242,5.711255877579931806
0.399000000000000243,5.658753218372645222
0.400000000000000244,5.606531698609565240
0.401000000000000245,5.554581678814242807
0.402000000000000246,5.502894148007805519
0.403000000000000247,5.451460704305863381
0.404000000000000248,5.400273535632025279
0.405000000000000249,5.349325400568490707
0.406000000000000250,5.298609609363273520
0.407000000000000250,5.248120005112128617
0.408000000000000251,5.197850945132283407
0.409000000000000252,5.147797282543842279
0.410000000000000253,5.097954348073571396
0.411000000000000254,5.048317932094816385
0.412000000000000255,4.998884266916215680
0.413000000000000256,4.949650009330706979
0.414000000000000257,4.900612223435746984
0.415000000000000258,4.851768363734160872
0.416000000000000258,4.803116258524791959
0.417000000000000259,4.754654093590589881
0.418000000000000260,4.706380396191525151
0.419000000000000261,4.658294019368456773
0.420000000000000262,4.610394126563672756
0.421000000000000263,4.562680176562777135
0.422000000000000264,4.515151908762182309
0.423000000000000265,4.467809328765566690
0.424000000000000266,4.420652694312094511
0.425000000000000266,4.373682501538715073
0.426000000000000267,4.326899471578008693
0.427000000000000268,4.280304537492743755
0.428000000000000269,4.233898831547695529
0.429000000000000270,4.187683672818712566
0.430000000000000271,4.141660555138686917
0.431000000000000272,4.095831135379502719
0.432000000000000273,4.050197222068771197
0.433000000000000274,4.004760764339607704
0.434000000000000274,3.959523841211434192
0.435000000000000275,3.914488651199500513
0.436000000000000276,3.869657502250312575
0.437000000000000277,3.825032802000051468
0.438000000000000278,3.780617048352663545
0.439000000000000279,3.736412820374095389
0.440000000000000280,3.692422769498863833
0.441000000000000281,3.648649611045043262
0.442000000000000282,3.605096116033301712
0.443000000000000282,3.561765103305812197
0.444000000000000283,3.518659431940242222
0.445000000000000284,3.475781993954299764
0.446000000000000285,3.433135707295876138
0.447000000000000286,3.390723509113793277
0.448000000000000287,3.348548349304154126
0.449000000000000288,3.306613184326992805
0.450000000000000289,3.264920971288053586
0.451000000000000290,3.223474662280281677
0.452000000000000290,3.182277198979632349
0.453000000000000291,3.141331507489784514
0.454000000000000292,3.100640493430186773
0.455000000000000293,3.060207037261959417
0.456000000000000294,3.020033989846097278
0.457000000000000295,2.980124168228369008
0.458000000000000296,2.940480351645409218
0.459000000000000297,2.901105277746389266
0.460000000000000298,2.862001639024730260
0.461000000000000298,2.823172079454340455
0.462000000000000299,2.784619191324827714
0.463000000000000300,2.746345512270269129
0.464000000000000301,2.708353522486013354
0.465000000000000302,2.670645642128198993
0.466000000000000303,2.633224228890576946
0.467000000000000304,2.596091575753328939
0.468000000000000305,2.559249908898692638
0.469000000000000306,2.522701385788143735
0.470000000000000306,2.486448093396008918
0.471000000000000307,2.450492046594504814
0.472000000000000308,2.414835186685164725
0.473000000000000309,2.379479380071710004
0.474000000000000310,2.344426417069614743
0.475000000000000311,2.309678010847465046
0.476000000000000312,2.275235796495571172
0.477000000000000313,2.241101330217049714
0.478000000000000314,2.207276088637043721
0.479000000000000314,2.173761468225449356
0.480000000000000315,2.140558784828938688
0.481000000000000316,2.107669273307900770
0.482000000000000317,2.075094087274183430
0.483000000000000318,2.042834298925491954
0.484000000000000319,2.010890898972450991
0.485000000000000320,1.979264796654419012
0.486000000000000321,1.947956819840172660
0.487000000000000322,1.916967715209752843
0.488000000000000322,1.886298148513837036
0.489000000000000323,1.855948704906975166
0.490000000000000324,1.825919889351299563
0.491000000000000325,1.796212127087266852
0.492000000000000326,1.766825764168130863
0.493000000000000327,1.737761068054923808
0.494000000000000328,1.709018228268801121
0.495000000000000329,1.680597357097715960
0.496000000000000330,1.652498490354465943
0.497000000000000330,1.624721588183132726
0.498000000000000331,1.597266535911300522
0.499000000000000332,1.570133144945141224
0.500000000000000333,1.543321153704810156
0.501000000000000334,1.516830228597659369
0.502000000000000335,1.490659965026630562
0.503000000000000336,1.464809888431595208
0.504000000000000337,1.439279455361166971
0.505000000000000338,1.414068054572853894
0.506000000000000338,1.389175008159282854
0.507000000000000339,1.364599572698437679
0.508000000000000340,1.340340940425889915
0.509000000000000341,1.316398240426972732
0.510000000000000342,1.292770539847139188
0.511000000000000343,1.269456845118524635
0.512000000000000344,1.246456103201076804
0.513000000000000345,1.223767202836500534
0.514000000000000346,1.201388975813332705
0.515000000000000346,1.179320198241686546
0.516000000000000347,1.157559591836081037
0.517000000000000348,1.136105825204872799
0.518000000000000349,1.114957515144993749
0.519000000000000350,1.094113227940545663
0.520000000000000351,1.073571480664077260
0.521000000000000352,1.053330742479183124
0.522000000000000353,1.033389435943405044
0.523000000000000353,1.013745938310152139
0.524000000000000354,0.994398582828686317
0.525000000000000355,0.975345660041058715
0.526000000000000356,0.956585419075098642
0.527000000000000357,0.938116068932432157
0.528000000000000358,0.919935779770710838
0.529000000000000359,0.902042684179154008
0.530000000000000360,0.884434878446673678
0.531000000000000361,0.867110423821713661
0.532000000000000361,0.850067347763172498
0.533000000000000362,0.833303645181679320
0.534000000000000363,0.816817279670606133
0.535000000000000364,0.800606184726154524
0.536000000000000365,0.784668264956012385
0.537000000000000366,0.769001397275982046
0.538000000000000367,0.753603432094124392
0.539000000000000368,0.738472194481864186
0.540000000000000369,0.723605485331728859
0.541000000000000369,0.709001082501168778
0.542000000000000370,0.694656741942227152
0.543000000000000371,0.680570198816556560
0.544000000000000372,0.666739168595553044
0.545000000000000373,0.653161348145259502
0.546000000000000374,0.639834416795769356
0.547000000000000375,0.626756037394887722
0.548000000000000376,0.613923857345793800
0.549000000000000377,0.601335509628531883
0.550000000000000377,0.588988613805092376
0.551000000000000378,0.576880777007999668
0.552000000000000379,0.565009594912163182
0.553000000000000380,0.553372652689939293
0.554000000000000381,0.541967525949290541
0.555000000000000382,0.530791781654877393
0.556000000000000383,0.519842979032149377
0.557000000000000384,0.509118670454207667
0.558000000000000385,0.498616402311579221
0.559000000000000385,0.488333715864718854
0.560000000000000386,0.478268148079332378
0.561000000000000387,0.468417232444478138
0.562000000000000388,0.458778499773495441
0.563000000000000389,0.449349478987724704
0.564000000000000390,0.440127697883150482
0.565000000000000391,0.431110683879943668
0.566000000000000392,0.422295964755015407
0.567000000000000393,0.413681069357604625
0.568000000000000393,0.405263528308055843
0.569000000000000394,0.397040874679806144
0.570000000000000395,0.389010644664723182
0.571000000000000396,0.381170378221919848
0.572000000000000397,0.373517619710085014
0.573000000000000398,0.366049918503572769
0.574000000000000399,0.358764829592265577
0.575000000000000400,0.351659914165446952
0.576000000000000401,0.344732740179774955
0.577000000000000401,0.337980882911482372
0.578000000000000402,0.331401925493048199
0.579000000000000403,0.324993459434441967
0.580000000000000404,0.318753085129065805
0.581000000000000405,0.312678412344693457
0.582000000000000406,0.306767060699425775
0.583000000000000407,0.301016660122983448
0.584000000000000408,0.295424851303407399
0.585000000000000409,0.289989286119420098
0.586000000000000409,0.284707628058631534
0.587000000000000410,0.279577552621704528
0.588000000000000411,0.274596747712825162
0.589000000000000412,0.269762914016480781
0.590000000000000413,0.265073765360924418
0.591000000000000414,0.260527029068407079
0.592000000000000415,0.256120446292402715
0.593000000000000416,0.251851772342080227
0.594000000000000417,0.247718776994164808
0.595000000000000417,0.243719244792379719
0.596000000000000418,0.239850975334785499
0.597000000000000419,0.236111783549053600
0.598000000000000420,0.232499499956040356
0.599000000000000421,0.229011970921744024
0.600000000000000422,0.225647058897926633
0.601000000000000423,0.222402642651585880
0.602000000000000424,0.219276617483456615
0.603000000000000425,0.216266895435754863
0.604000000000000425,0.213371405489428762
0.605000000000000426,0.210588093751030409
0.606000000000000427,0.207914923629424792
0.607000000000000428,0.205349876002668630
0.608000000000000429,0.202890949374991442
0.609000000000000430,0.200536160024422039
0.610000000000000431,0.198283542140919200
0.611000000000000432,0.196131147955457580
0.612000000000000433,0.194077047860149315
0.613000000000000433,0.192119330519578690
0.614000000000000434,0.190256102973613755
0.615000000000000435,0.188485490731843786
0.616000000000000436,0.186805637859846302
0.617000000000000437,0.185214707057411998
0.618000000000000438,0.183710879729022281
