# ZnO10m10NB_ASPPSCA-JS
# h[nm],U(h)[kJ/mol]
0.149999999999999994,87.585586663086331782
0.150999999999999995,86.449920914651713133
0.151999999999999996,85.078164461231338578
0.152999999999999997,83.664431399163589731
0.153999999999999998,82.277548412411576351
0.154999999999999999,80.930531857464345080
0.156000000000000000,79.616322686143490728
0.157000000000000001,78.324415520166056126
0.158000000000000002,77.047237218351313004
0.159000000000000002,75.781464912475314577
0.160000000000000003,74.527195588659623127
0.161000000000000004,73.286499364211792340
0.162000000000000005,72.062080556904518858
0.163000000000000006,70.856319532217696633
0.164000000000000007,69.670734289018611207
0.165000000000000008,68.505794221278534906
0.166000000000000009,67.360983208150557289
0.167000000000000010,66.235010688423471947
0.168000000000000010,65.126087291021093506
0.169000000000000011,64.032204451545041479
0.170000000000000012,62.951379280127277127
0.171000000000000013,61.881844082953890052
0.172000000000000014,60.822173580671595516
0.173000000000000015,59.771352207528742895
0.174000000000000016,58.728789570646952711
0.175000000000000017,57.694295002798995142
0.176000000000000018,56.668022937614225043
0.177000000000000018,55.650400254413582957
0.178000000000000019,54.642045330230757827
0.179000000000000020,53.643686715545776167
0.180000000000000021,52.656087415389478679
0.181000000000000022,51.679978907171076230
0.182000000000000023,50.716007381144642352
0.183000000000000024,49.764693310596349818
0.184000000000000025,48.826404366565157034
0.185000000000000026,47.901340878087083297
0.186000000000000026,46.989532478054535147
0.187000000000000027,46.090844231858220326
0.188000000000000028,45.204990382388430703
0.189000000000000029,44.331553822278138455
0.190000000000000030,43.470009486727455794
0.191000000000000031,42.619750016237617274
0.192000000000000032,41.780112241261790018
0.193000000000000033,40.950403268212390628
0.194000000000000034,40.129925181208704998
0.195000000000000034,39.317997603405558493
0.196000000000000035,38.513977576433106265
0.197000000000000036,37.717276410245958118
0.198000000000000037,36.927373324923777886
0.199000000000000038,36.143825849106747228
0.200000000000000039,35.366277056748337770
0.201000000000000040,34.594459815807518055
0.202000000000000041,33.828198291249378826
0.203000000000000042,33.067406992629031492
0.204000000000000042,32.312087686217331850
0.205000000000000043,31.562324505796720331
0.206000000000000044,30.818277597573210613
0.207000000000000045,30.080175625644976378
0.208000000000000046,29.348307447467067988
0.209000000000000047,28.623013245844880714
0.210000000000000048,27.904675377010828896
0.211000000000000049,27.193709164862774230
0.212000000000000050,26.490553840786560613
0.213000000000000050,25.795663797732167666
0.214000000000000051,25.109500297219092602
0.215000000000000052,24.432523739375749727
0.216000000000000053,23.765186579457196814
0.217000000000000054,23.107926949870041256
0.218000000000000055,22.461163024773046715
0.219000000000000056,21.825288144918886246
0.220000000000000057,21.200666703570629323
0.221000000000000058,20.587630780017114773
0.222000000000000058,19.986477495313277331
0.223000000000000059,19.397467055246739420
0.224000000000000060,18.820821438003420667
0.225000000000000061,18.256723678388105725
0.226000000000000062,17.705317696549855100
0.227000000000000063,17.166708616769586371
0.228000000000000064,16.640963520789156860
0.229000000000000065,16.128112580207876192
0.230000000000000066,15.628150513465190130
0.231000000000000066,15.141038314696624312
0.232000000000000067,14.666705204142914454
0.233000000000000068,14.205050752666489089
0.234000000000000069,13.755947136162152589
0.235000000000000070,13.319241479128169914
0.236000000000000071,12.894758250293335777
0.237000000000000072,12.482301676891937703
0.238000000000000073,12.081658147871166875
0.239000000000000073,11.692598579946842818
0.240000000000000074,11.314880723942216889
0.241000000000000075,10.948251392217091649
0.242000000000000076,10.592448591187206830
0.243000000000000077,10.247203545926776513
0.244000000000000078,9.912242606625012442
0.245000000000000079,9.587289029220299241
0.246000000000000080,9.272064624860421489
0.247000000000000081,8.966291274932157052
0.248000000000000081,8.669692310273756419
0.249000000000000082,8.381993754834493160
0.250000000000000111,8.102925435485470729
0.251000000000000112,7.832221960925727089
0.252000000000000113,7.569623573678152972
0.253000000000000114,7.314876880045126484
0.254000000000000115,7.067735463604594592
0.255000000000000115,6.827960388389426427
0.256000000000000116,6.595320598317732319
0.257000000000000117,6.369593219743838297
0.258000000000000118,6.150563774191328825
0.259000000000000119,5.938026308423065558
0.260000000000000120,5.731783449010491083
0.261000000000000121,5.531646388497661881
0.262000000000000122,5.337434810123391493
0.263000000000000123,5.148976757879410115
0.264000000000000123,4.966108458450493757
0.265000000000000124,4.788674101314543741
0.266000000000000125,4.616525582982387910
0.267000000000000126,4.449522221036855463
0.268000000000000127,4.287530443293632310
0.269000000000000128,4.130423457058902237
0.270000000000000129,3.978080903105032373
0.271000000000000130,3.830388498629994309
0.272000000000000131,3.687237673113001879
0.273000000000000131,3.548525200630395116
0.274000000000000132,3.414152831855546744
0.275000000000000133,3.284026928636220699
0.276000000000000134,3.158058103724521892
0.277000000000000135,3.036160867929992513
0.278000000000000136,2.918253286676008251
0.279000000000000137,2.804256647665062108
0.280000000000000138,2.694095141100083968
0.281000000000000139,2.587695553666607307
0.282000000000000139,2.484986977255294160
0.283000000000000140,2.385900533195271400
0.284000000000000141,2.290369112576384314
0.285000000000000142,2.198327133062037753
0.286000000000000143,2.109710312433642265
0.287000000000000144,2.024455458962463705
0.288000000000000145,1.942500278573540129
0.289000000000000146,1.863783198650084127
0.290000000000000147,1.788243208222922265
0.291000000000000147,1.715819714199172452
0.292000000000000148,1.646452413205246046
0.293000000000000149,1.580081178551854038
0.294000000000000150,1.516645961771432516
0.295000000000000151,1.456086708130866381
0.296000000000000152,1.398343285484117571
0.297000000000000153,1.343355425798939295
0.298000000000000154,1.291062678669470554
0.299000000000000155,1.241404376110682772
0.300000000000000155,1.194319607921302095
0.301000000000000156,1.149747206898170671
0.302000000000000157,1.107625743186209100
0.303000000000000158,1.067893527054191161
0.304000000000000159,1.030488619396217498
0.305000000000000160,0.995348849272402525
0.306000000000000161,0.962411837818463622
0.307000000000000162,0.931615027873088253
0.308000000000000163,0.902895718693200622
0.309000000000000163,0.876191105150305405
0.310000000000000164,0.851438320825666173
0.311000000000000165,0.828574484447984871
0.312000000000000166,0.807536749143777710
0.313000000000000167,0.788262353998107734
0.314000000000000168,0.770688677451046300
0.315000000000000169,0.754753292083169658
0.316000000000000170,0.740394020371305528
0.317000000000000171,0.727548991023621916
0.318000000000000171,0.716156695530571263
0.319000000000000172,0.706156044595207089
0.320000000000000173,0.697486424132883975
0.321000000000000174,0.690087750556236057
0.322000000000000175,0.683900525086260203
0.323000000000000176,0.678865886854713496
0.324000000000000177,0.674925664586377150
0.325000000000000178,0.672022426672259643
0.326000000000000179,0.670099529466247956
0.327000000000000179,0.669101163658370690
0.328000000000000180,0.668972398597414530
0.329000000000000181,0.669659224453943436
0.330000000000000182,0.671108592132733106
0.331000000000000183,0.673268450859693779
0.332000000000000184,0.676087783384270669
0.333000000000000185,0.679516638752646118
0.334000000000000186,0.683506162620691304
0.335000000000000187,0.688008625088299630
0.336000000000000187,0.692977446048321011
0.337000000000000188,0.698367218054295247
0.338000000000000189,0.704133726720907793
0.339000000000000190,0.710233968680323402
0.340000000000000191,0.716626167125858027
0.341000000000000192,0.723269784981774966
0.342000000000000193,0.730125535745014487
0.343000000000000194,0.737155392050424574
0.344000000000000195,0.744322592016780860
0.345000000000000195,0.751591643435247647
0.346000000000000196,0.758928325866401021
0.347000000000000197,0.766299690715258608
0.348000000000000198,0.773674059356900812
0.349000000000000199,0.781021019387757365
0.350000000000000200,0.788311419079615328
0.351000000000000201,0.795517360115099104
0.352000000000000202,0.802612188684479699
0.353000000000000203,0.809570485024465269
0.354000000000000203,0.816368051480135803
0.355000000000000204,0.822981899171250419
0.356000000000000205,0.829390233343969663
0.357000000000000206,0.835572437488562136
0.358000000000000207,0.841509056303057834
0.359000000000000208,0.847181777581716977
0.360000000000000209,0.852573413106121891
0.361000000000000210,0.857667878615406609
0.362000000000000210,0.862450172930537162
0.363000000000000211,0.866906356306016201
0.364000000000000212,0.871023528080519305
0.365000000000000213,0.874789803696184420
0.366000000000000214,0.878194291154204776
0.367000000000000215,0.881227066972389395
0.368000000000000216,0.883879151708123922
0.369000000000000217,0.886142485108122324
0.370000000000000218,0.888009900943960040
0.371000000000000218,0.889475101590297745
0.372000000000000219,0.890532632400233282
0.373000000000000220,0.891177855930068596
0.374000000000000221,0.891406926063390115
0.375000000000000222,0.891216762082153502
0.376000000000000223,0.890605022729995865
0.377000000000000224,0.889570080310987832
0.378000000000000225,0.888110994864537373
0.379000000000000226,0.886227488455140211
0.380000000000000226,0.883919919613317617
0.381000000000000227,0.881189257962115113
0.382000000000000228,0.878037059061267833
0.383000000000000229,0.874465439499172659
0.384000000000000230,0.870477052260828943
0.385000000000000231,0.866075062397803963
0.386000000000000232,0.861263123024577526
0.387000000000000233,0.856045351663589749
0.388000000000000234,0.850426306959660927
0.389000000000000234,0.844410965782588896
0.390000000000000235,0.838004700735200059
0.391000000000000236,0.831213258082351913
0.392000000000000237,0.824042736114983909
0.393000000000000238,0.816499563961674446
0.394000000000000239,0.808590480858838001
0.395000000000000240,0.800322515889242525
0.396000000000000241,0.791702968197239954
0.397000000000000242,0.782739387687841681
0.398000000000000242,0.773439556215544721
0.399000000000000243,0.763811469267706489
0.400000000000000244,0.753863318146162031
0.401000000000000245,0.743603472649665642
0.402000000000000246,0.733040464258957525
0.403000000000000247,0.722182969825064358
0.404000000000000248,0.711039795760809668
0.405000000000000249,0.699619862734500719
0.406000000000000250,0.687932190864128934
0.407000000000000250,0.675985885409565057
0.408000000000000251,0.663790122959652562
0.409000000000000252,0.651354138110388114
0.410000000000000253,0.638687210629849789
0.411000000000000254,0.625798653104919445
0.412000000000000255,0.612697799064408577
0.413000000000000256,0.599393991572617191
0.414000000000000257,0.585896572287082029
0.415000000000000258,0.572214870973668188
0.416000000000000258,0.558358195472018926
0.417000000000000259,0.544335822103842126
0.418000000000000260,0.530156986516370332
0.419000000000000261,0.515830874952972640
0.420000000000000262,0.501366615942713478
0.421000000000000263,0.486773272400363610
0.422000000000000264,0.472059834128336964
0.423000000000000265,0.457235210711689599
0.424000000000000266,0.442308224797282268
0.425000000000000266,0.427287605748125798
0.426000000000000267,0.412181983663745477
0.427000000000000268,0.396999883757393923
0.428000000000000269,0.381749721080897442
0.429000000000000270,0.366439795587844563
0.430000000000000271,0.351078287525850075
0.431000000000000272,0.335673253148608741
0.432000000000000273,0.320232620738486573
0.433000000000000274,0.304764186930408632
0.434000000000000274,0.289275613327844572
0.435000000000000275,0.273774423401795475
0.436000000000000276,0.258267999663676140
0.437000000000000277,0.242763581103133508
0.438000000000000278,0.227268260881899886
0.439000000000000279,0.211788984274867975
0.440000000000000280,0.196332546849703388
0.441000000000000281,0.180905592876430293
0.442000000000000282,0.165514613958465145
0.443000000000000282,0.150165947876867684
0.444000000000000283,0.134865777639490675
0.445000000000000284,0.119620130727058238
0.446000000000000285,0.104434878528209235
0.447000000000000286,0.089315735955703898
0.448000000000000287,0.074268261236234423
0.449000000000000288,0.059297855866297544
0.450000000000000289,0.044409764726856607
0.451000000000000290,0.029609076349620268
0.452000000000000290,0.014900723327915921
0.453000000000000291,0.000289482865362967
0.454000000000000292,-0.014220022544367539
0.455000000000000293,-0.028623324313213259
0.456000000000000294,-0.042916106836127635
0.457000000000000295,-0.057094206456454688
0.458000000000000296,-0.071153610325260172
0.459000000000000297,-0.085090455160499553
0.460000000000000298,-0.098901025911716095
0.461000000000000298,-0.112581754335779299
0.462000000000000299,-0.126129217489083845
0.463000000000000300,-0.139540136141358406
0.464000000000000301,-0.152811373116206572
0.465000000000000302,-0.165939931563217319
0.466000000000000303,-0.178922953166430754
0.467000000000000304,-0.191757716293728231
0.468000000000000305,-0.204441634091583335
0.469000000000000306,-0.216972252529472082
0.470000000000000306,-0.229347248398089398
0.471000000000000307,-0.241564427265338999
0.472000000000000308,-0.253621721393988586
0.473000000000000309,-0.265517187624695505
0.474000000000000310,-0.277249005227945822
0.475000000000000311,-0.288815473728418926
0.476000000000000312,-0.300215010705008278
0.477000000000000313,-0.311446149569759911
0.478000000000000314,-0.322507537328702132
0.479000000000000314,-0.333397932327579138
0.480000000000000315,-0.344116201985222081
0.481000000000000316,-0.354661320517320411
0.482000000000000317,-0.365032366653095963
0.483000000000000318,-0.375228521347409194
0.484000000000000319,-0.385249065490606113
0.485000000000000320,-0.395093377618361441
0.486000000000000321,-0.404760931623678377
0.487000000000000322,-0.414251294473059584
0.488000000000000322,-0.423564123928784120
0.489000000000000323,-0.432699166279169600
0.490000000000000324,-0.441656254078537536
0.491000000000000325,-0.450435303898550632
0.492000000000000326,-0.459036314092489295
0.493000000000000327,-0.467459362573970527
0.494000000000000328,-0.475704604611477400
0.495000000000000329,-0.483772270640067781
0.496000000000000330,-0.491662664091444657
0.497000000000000330,-0.499376159243645312
0.498000000000000331,-0.506913199091330036
0.499000000000000332,-0.514274293237801494
0.500000000000000333,-0.521460015809665611
0.501000000000000334,-0.528471003395003525
0.502000000000000335,-0.535307953005932147
0.503000000000000336,-0.541971620066281301
0.504000000000000337,-0.548462816425119071
0.505000000000000338,-0.554782408396753635
0.506000000000000338,-0.560931314827827210
0.507000000000000339,-0.566910505192043557
0.508000000000000340,-0.572720997712988122
0.509000000000000341,-0.578363857515556523
0.510000000000000342,-0.583840194806293122
0.511000000000000343,-0.589151163083085683
0.512000000000000344,-0.594297957374444019
0.513000000000000345,-0.599281812508681622
0.514000000000000346,-0.604104001413230507
0.515000000000000346,-0.608765833444223969
0.516000000000000347,-0.613268652746559395
0.517000000000000348,-0.617613836644549052
0.518000000000000349,-0.621802794063204600
0.519000000000000350,-0.625836963980265226
0.520000000000000351,-0.629717813908947210
0.521000000000000352,-0.633446838411453994
0.522000000000000353,-0.637025557643162155
0.523000000000000353,-0.640455515927472741
0.524000000000000354,-0.643738280361230708
0.525000000000000355,-0.646875439450590117
0.526000000000000356,-0.649868601777212618
0.527000000000000357,-0.652719394694656563
0.528000000000000358,-0.655429463054774231
0.529000000000000359,-0.658000467963937186
0.530000000000000360,-0.660434085568871843
0.531000000000000361,-0.662732005871911167
0.532000000000000361,-0.664895931575400390
0.533000000000000362,-0.666927576955012591
0.534000000000000363,-0.668828666761707935
0.535000000000000364,-0.670600935152071087
0.536000000000000365,-0.672246124646707632
0.537000000000000366,-0.673765985116440036
0.538000000000000367,-0.675162272795932106
0.539000000000000368,-0.676436749324505593
0.540000000000000369,-0.677591180813720606
0.541000000000000369,-0.678627336941475590
0.542000000000000370,-0.679546990072206980
0.543000000000000371,-0.680351914402881008
0.544000000000000372,-0.681043885134411497
0.545000000000000373,-0.681624677668127954
0.546000000000000374,-0.682096066826942349
0.547000000000000375,-0.682459826100818012
0.548000000000000376,-0.682717726916207912
0.549000000000000377,-0.682871537929028216
0.550000000000000377,-0.682923024340834517
0.551000000000000378,-0.682873947237774503
0.552000000000000379,-0.682726062951970913
0.553000000000000380,-0.682481122444917654
0.554000000000000381,-0.682140870712496850
0.555000000000000382,-0.681707046211279422
0.556000000000000383,-0.681181380305627471
0.557000000000000384,-0.680565596735320244
0.558000000000000385,-0.679861411103203417
0.559000000000000385,-0.679070530382571591
0.560000000000000386,-0.678194652443823376
0.561000000000000387,-0.677235465600050768
0.562000000000000388,-0.676194648171142165
0.563000000000000389,-0.675073868066059957
0.564000000000000390,-0.673874782382861914
0.565000000000000391,-0.672599037026131663
0.566000000000000392,-0.671248266341412547
0.567000000000000393,-0.669824092766303503
0.568000000000000393,-0.668328126497802599
0.569000000000000394,-0.666761965175576954
0.570000000000000395,-0.665127193580779208
0.571000000000000396,-0.663425383350019993
0.572000000000000397,-0.661658092704205503
0.573000000000000398,-0.659826866191820627
0.574000000000000399,-0.657933234446356874
0.575000000000000400,-0.655978713957502291
0.576000000000000401,-0.653964806855781067
0.577000000000000401,-0.651893000710308756
0.578000000000000402,-0.649764768339294529
0.579000000000000403,-0.647581567632990129
0.580000000000000404,-0.645344841388778567
0.581000000000000405,-0.643056017158029514
0.582000000000000406,-0.640716507104467703
0.583000000000000407,-0.638327707873683980
0.584000000000000408,-0.635891000473544965
0.585000000000000409,-0.633407750165142946
0.586000000000000409,-0.630879306364022119
0.587000000000000410,-0.628307002551396709
0.588000000000000411,-0.625692156195026272
0.589000000000000412,-0.623036068679538757
0.590000000000000413,-0.620340025245845861
0.591000000000000414,-0.617605294939430505
0.592000000000000415,-0.614833130567232655
0.593000000000000416,-0.612024768662836616
0.594000000000000417,-0.609181429459728307
0.595000000000000417,-0.606304316872392390
0.596000000000000418,-0.603394618484914491
0.597000000000000419,-0.600453505546962196
0.598000000000000420,-0.597482132976788760
0.599000000000000421,-0.594481639371114978
0.600000000000000422,-0.591453147021601344
0.601000000000000423,-0.588397761937705099
0.602000000000000424,-0.585316573875701351
0.603000000000000425,-0.582210656373661761
0.604000000000000425,-0.579081066792135335
0.605000000000000426,-0.575928846360374225
0.606000000000000427,-0.572755020227890377
0.607000000000000428,-0.569560597521079126
0.608000000000000429,-0.566346571404851340
0.609000000000000430,-0.563113919148905850
0.610000000000000431,-0.559863602198631627
0.611000000000000432,-0.556596566250321390
0.612000000000000433,-0.553313741330586306
0.613000000000000433,-0.550016041879799356
0.614000000000000434,-0.546704366839364964
0.615000000000000435,-0.543379599742658814
0.616000000000000436,-0.540042608809493507
0.617000000000000437,-0.536694247043949968
