# ZnO10m10NB_ETHENE-AC
# h[nm],U(h)[kJ/mol]
0.149999999999999994,77.914107709272073521
0.150999999999999995,77.460744434945539183
0.151999999999999996,76.542423869483599219
0.152999999999999997,75.515262438255234656
0.153999999999999998,74.513213715009612770
0.154999999999999999,73.565670443313948113
0.156000000000000000,72.660751194151373511
0.157000000000000001,71.776725548667030807
0.158000000000000002,70.895540554648889042
0.159000000000000002,70.006910640986390604
0.160000000000000003,69.107927706028547732
0.161000000000000004,68.200959181286336275
0.162000000000000005,67.291270458712162394
0.163000000000000006,66.385026309798405464
0.164000000000000007,65.487889503386199408
0.165000000000000008,64.604209826826121343
0.166000000000000009,63.736696683543087261
0.167000000000000010,62.886438632751989530
0.168000000000000010,62.053139832899759654
0.169000000000000011,61.235466144229427243
0.170000000000000012,60.431421135606612438
0.171000000000000013,59.638698360523264341
0.172000000000000014,58.854978243274011618
0.173000000000000015,58.078154882796056313
0.174000000000000016,57.306490205192446297
0.175000000000000017,56.538700837293404788
0.176000000000000018,55.773987669189317273
0.177000000000000018,55.012020157910420437
0.178000000000000019,54.252887740050212528
0.179000000000000020,53.497029882671554901
0.180000000000000021,52.745154789798981199
0.181000000000000022,51.998154953090690356
0.182000000000000023,51.257025841077144435
0.183000000000000024,50.522792227164039502
0.184000000000000025,49.796445061602582882
0.185000000000000026,49.078890446785294444
0.186000000000000026,48.370911193610808709
0.187000000000000027,47.673140610972076558
0.188000000000000028,46.986047587861413888
0.189000000000000029,46.309931637478960909
0.190000000000000030,45.644926351263670483
0.191000000000000031,44.991009624227693564
0.192000000000000032,44.348019029844238048
0.193000000000000033,43.715670814883381468
0.194000000000000034,43.093581127865974167
0.195000000000000034,42.481288269177667871
0.196000000000000035,41.878274940298553020
0.197000000000000036,41.283989661634244328
0.198000000000000037,40.697866713873601441
0.199000000000000038,40.119344130180145669
0.200000000000000039,39.547879421657611942
0.201000000000000040,38.982962854059721280
0.202000000000000041,38.424128208717881705
0.203000000000000042,37.870961055304341869
0.204000000000000042,37.323104639275513250
0.205000000000000043,36.780263544139721432
0.206000000000000044,36.242205329878224518
0.207000000000000045,35.708760375913314533
0.208000000000000046,35.179820172001392109
0.209000000000000047,34.655334305338129752
0.210000000000000048,34.135306388889368634
0.211000000000000049,33.619789166258286173
0.212000000000000050,33.108879013834410898
0.213000000000000050,32.602710042933914281
0.214000000000000051,32.101447984322476259
0.215000000000000052,31.605284015926827124
0.216000000000000053,31.114428672518862129
0.217000000000000054,30.629105954372164433
0.218000000000000055,30.149547730870931872
0.219000000000000056,29.675988515194624995
0.220000000000000057,29.208660667791811250
0.221000000000000058,28.747790069587352946
0.222000000000000058,28.293592290843395887
0.223000000000000059,27.846269268363947447
0.224000000000000060,27.406006492282909193
0.225000000000000061,26.972970693955709010
0.226000000000000062,26.547308018401828633
0.227000000000000063,26.129142658213311279
0.228000000000000064,25.718575920731247209
0.229000000000000065,25.315685696466417198
0.230000000000000066,24.920526294067208539
0.231000000000000066,24.533128605480321482
0.232000000000000067,24.153500564176518139
0.233000000000000068,23.781627859294893312
0.234000000000000069,23.417474869176878371
0.235000000000000070,23.060985778901063270
0.236000000000000071,22.712085847991481558
0.237000000000000072,22.370682796359773192
0.238000000000000073,22.036668278674358845
0.239000000000000073,21.709919419652731420
0.240000000000000074,21.390300385180911036
0.241000000000000075,21.077663966624015757
0.242000000000000076,20.771853158153806618
0.243000000000000077,20.472702709345412586
0.244000000000000078,20.180040637653107183
0.245000000000000079,19.893689687638168806
0.246000000000000080,19.613468725970506057
0.247000000000000081,19.339194063244139699
0.248000000000000081,19.070680695525041415
0.249000000000000082,18.807743460280867964
0.250000000000000111,18.550198102922429655
0.251000000000000112,18.297862251615800488
0.252000000000000113,18.050556299303639918
0.253000000000000114,17.808104193008226446
0.254000000000000115,17.570334131481331497
0.255000000000000115,17.337079173125701459
0.256000000000000116,17.108177756844323625
0.257000000000000117,16.883474139087148558
0.258000000000000118,16.662818750867764095
0.259000000000000119,16.446068478923315581
0.260000000000000120,16.233086875498745627
0.261000000000000121,16.023744301460137507
0.262000000000000122,15.817918007589252483
0.263000000000000123,15.615492158991235883
0.264000000000000123,15.416357807567482752
0.265000000000000124,15.220412817473222944
0.266000000000000125,15.027561748401842223
0.267000000000000126,14.837715701421723580
0.268000000000000127,14.650792131942401042
0.269000000000000128,14.466714634211502499
0.270000000000000129,14.285412701546414738
0.271000000000000130,14.106821466290444533
0.272000000000000131,13.930881423256286311
0.273000000000000131,13.757538140183971365
0.274000000000000132,13.586741958498924632
0.275000000000000133,13.418447687412415448
0.276000000000000134,13.252614294162729180
0.277000000000000135,13.089204592954772011
0.278000000000000136,12.928184934918675708
0.279000000000000137,12.769524901177593534
0.280000000000000138,12.613197000891597455
0.281000000000000139,12.459176375929795100
0.282000000000000139,12.307440513617722289
0.283000000000000140,12.157968968811733390
0.284000000000000141,12.010743096367837879
0.285000000000000142,11.865745794898707288
0.286000000000000143,11.722961262550388284
0.287000000000000144,11.582374765379025661
0.288000000000000145,11.443972418768050048
0.289000000000000146,11.307740982197431734
0.290000000000000147,11.173667667558426331
0.291000000000000147,11.041739961100109468
0.292000000000000148,10.911945458996330061
0.293000000000000149,10.784271716434695065
0.294000000000000150,10.658706110051001659
0.295000000000000151,10.535235713463501739
0.296000000000000152,10.413847185600989320
0.297000000000000153,10.294526671466073253
0.298000000000000154,10.177259714930025680
0.299000000000000155,10.062031183117799316
0.300000000000000155,9.948825201910164395
0.301000000000000156,9.837625102064894378
0.302000000000000157,9.728413375438984545
0.303000000000000158,9.621171640779483170
0.304000000000000159,9.515880618540549563
0.305000000000000160,9.412520114178830610
0.306000000000000161,9.311069009377501260
0.307000000000000162,9.211505260651023264
0.308000000000000163,9.113805904787627199
0.309000000000000163,9.017947070594022563
0.310000000000000164,8.923903996416898465
0.311000000000000165,8.831651052927975698
0.312000000000000166,8.741161770673173237
0.313000000000000167,8.652408871902158793
0.314000000000000168,8.565364306211142420
0.315000000000000169,8.479999289549805752
0.316000000000000170,8.396284346161884571
0.317000000000000171,8.314189353048302422
0.318000000000000171,8.233683586561713952
0.319000000000000172,8.154735770761320168
0.320000000000000173,8.077314127177288583
0.321000000000000174,8.001386425654450463
0.322000000000000175,7.926920035965268951
0.323000000000000176,7.853881979902095800
0.324000000000000177,7.782238983578696256
0.325000000000000178,7.711957529690442570
0.326000000000000179,7.643003909501504545
0.327000000000000179,7.575344274346170081
0.328000000000000180,7.508944686449180672
0.329000000000000181,7.443771168887506562
0.330000000000000182,7.379789754532834145
0.331000000000000183,7.316966533830031594
0.332000000000000184,7.255267701282482662
0.333000000000000185,7.194659600529915267
0.334000000000000186,7.135108767918405981
0.335000000000000187,7.076581974475672610
0.336000000000000187,7.019046266217431551
0.337000000000000188,6.962469002722611933
0.338000000000000189,6.906817893926437080
0.339000000000000190,6.852061035091007390
0.340000000000000191,6.798166939923025787
0.341000000000000192,6.745104571817402750
0.342000000000000193,6.692843373214290459
0.343000000000000194,6.641353293064845786
0.344000000000000195,6.590604812408736635
0.345000000000000195,6.540568968072821399
0.346000000000000196,6.491217374506976334
0.347000000000000197,6.442522243778553204
0.348000000000000198,6.394456403752176499
0.349000000000000199,6.346993314486260473
0.350000000000000200,6.300107082881746479
0.351000000000000201,6.253772475622414895
0.352000000000000202,6.207964930449323404
0.353000000000000203,6.162660565814864988
0.354000000000000203,6.117836188964454358
0.355000000000000204,6.073469302496015132
0.356000000000000205,6.029538109449224415
0.357000000000000206,5.986021516977930723
0.358000000000000207,5.942899138660457936
0.359000000000000208,5.900151295503319737
0.360000000000000209,5.857759015694530724
0.361000000000000210,5.815704033163203945
0.362000000000000210,5.773968785002170812
0.363000000000000211,5.732536407810469470
0.364000000000000212,5.691390733012275049
0.365000000000000213,5.650516281208474823
0.366000000000000214,5.609898255616584173
0.367000000000000215,5.569522534654002932
0.368000000000000216,5.529375663718761658
0.369000000000000217,5.489444846221088525
0.370000000000000218,5.449717933917992418
0.371000000000000218,5.410183416602022177
0.372000000000000219,5.370830411194092768
0.373000000000000220,5.331648650289049662
0.374000000000000221,5.292628470201290902
0.375000000000000222,5.253760798556447398
0.376000000000000223,5.215037141473516158
0.377000000000000224,5.176449570380646570
0.378000000000000225,5.137990708506059434
0.379000000000000226,5.099653717084244420
0.380000000000000226,5.061432281315899395
0.381000000000000227,5.023320596118709069
0.382000000000000228,4.985313351704424356
0.383000000000000229,4.947405719016193082
0.384000000000000230,4.909593335058605845
0.385000000000000231,4.871872288151360308
0.386000000000000232,4.834239103136016347
0.387000000000000233,4.796690726563754836
0.388000000000000234,4.759224511890672638
0.389000000000000234,4.721838204705670172
0.390000000000000235,4.684529928014618427
0.391000000000000236,4.647298167603052477
0.392000000000000237,4.610141757498379178
0.393000000000000238,4.573059865551196701
0.394000000000000239,4.536051979154112956
0.395000000000000240,4.499117891115128387
0.396000000000000241,4.462257685701517929
0.397000000000000242,4.425471724868913270
0.398000000000000242,4.388760634689206519
0.399000000000000243,4.352125291989745293
0.400000000000000244,4.315566811215281184
0.401000000000000245,4.279086531523049963
0.402000000000000246,4.242686004120506560
0.403000000000000247,4.206366979854081478
0.404000000000000248,4.170131397056673350
0.405000000000000249,4.133981369660502558
0.406000000000000250,4.097919175581281159
0.407000000000000250,4.061947245378751070
0.408000000000000251,4.026068151197952361
0.409000000000000252,3.990284595994831651
0.410000000000000253,3.954599403049125605
0.411000000000000254,3.919015505766796359
0.412000000000000255,3.883535937773686442
0.413000000000000256,3.848163823301450126
0.414000000000000257,3.812902367866334963
0.415000000000000258,3.777754849240722024
0.416000000000000258,3.742724608717061585
0.417000000000000259,3.707815042663132665
0.418000000000000260,3.673029594367328343
0.419000000000000261,3.638371746172116783
0.420000000000000262,3.603845011893579198
0.421000000000000263,3.569452929524410401
0.422000000000000264,3.535199054217643688
0.423000000000000265,3.501086951547855541
0.424000000000000266,3.467120191046471067
0.425000000000000266,3.433302340007491349
0.426000000000000267,3.399636957559658335
0.427000000000000268,3.366127589000990294
0.428000000000000269,3.332777760391311794
0.429000000000000270,3.299590973398272897
0.430000000000000271,3.266570700392191107
0.431000000000000272,3.233720379784899901
0.432000000000000273,3.201043411607680689
0.433000000000000274,3.168543153323211570
0.434000000000000274,3.136222915866390792
0.435000000000000275,3.104085959908855052
0.436000000000000276,3.072135492341844021
0.437000000000000277,3.040374662972103792
0.438000000000000278,3.008806561425454440
0.439000000000000279,2.977434214252567379
0.440000000000000280,2.946260582231550629
0.441000000000000281,2.915288557861898777
0.442000000000000282,2.884520963044310271
0.443000000000000282,2.853960546941010978
0.444000000000000283,2.823609984011092422
0.445000000000000284,2.793471872215516072
0.446000000000000285,2.763548731386394230
0.447000000000000286,2.733843001755217550
0.448000000000000287,2.704357042634776498
0.449000000000000288,2.675093131249497880
0.450000000000000289,2.646053461709074739
0.451000000000000290,2.617240144120235090
0.452000000000000290,2.588655203831607743
0.453000000000000291,2.560300580806736281
0.454000000000000292,2.532178129120284282
0.455000000000000293,2.504289616572646260
0.456000000000000294,2.476636724418205926
0.457000000000000295,2.449221047202543744
0.458000000000000296,2.422044092704072504
0.459000000000000297,2.395107281975547675
0.460000000000000298,2.368411949481087575
0.461000000000000298,2.341959343324369947
0.462000000000000299,2.315750625563799403
0.463000000000000300,2.289786872610505952
0.464000000000000301,2.264069075705137823
0.465000000000000302,2.238598141469537062
0.466000000000000303,2.213374892529423654
0.467000000000000304,2.188400068204351179
0.468000000000000305,2.163674325261306208
0.469000000000000306,2.139198238728366341
0.470000000000000306,2.114972302764967615
0.471000000000000307,2.090996931585442642
0.472000000000000308,2.067272460432529435
0.473000000000000309,2.043799146597687688
0.474000000000000310,2.020577170485171603
0.475000000000000311,1.997606636716820372
0.476000000000000312,1.974887575274752338
0.477000000000000313,1.952419942679056275
0.478000000000000314,1.930203623197886298
0.479000000000000314,1.908238430087242588
0.480000000000000315,1.886524106857963456
0.481000000000000316,1.865060328567457404
0.482000000000000317,1.843846703133820597
0.483000000000000318,1.822882772670065821
0.484000000000000319,1.802168014836262655
0.485000000000000320,1.781701844207491003
0.486000000000000321,1.761483613655552061
0.487000000000000322,1.741512615742501380
0.488000000000000322,1.721788084124131091
0.489000000000000323,1.702309194961577177
0.490000000000000324,1.683075068339341174
0.491000000000000325,1.664084769688066956
0.492000000000000326,1.645337311210483433
0.493000000000000327,1.626831653308994818
0.494000000000000328,1.608566706013480729
0.495000000000000329,1.590541330407894582
0.496000000000000330,1.572754340054388855
0.497000000000000330,1.555204502413631618
0.498000000000000331,1.537890540260216321
0.499000000000000332,1.520811133091938938
0.500000000000000333,1.503964918531900619
0.501000000000000334,1.487350493722426004
0.502000000000000335,1.470966416709779345
0.503000000000000336,1.454811207818821339
0.504000000000000337,1.438883351016674084
0.505000000000000338,1.423181295264638546
0.506000000000000338,1.407703455857555852
0.507000000000000339,1.392448215749890528
0.508000000000000340,1.377413926867902871
0.509000000000000341,1.362598911407201907
0.510000000000000342,1.348001463115172216
0.511000000000000343,1.333619848557646481
0.512000000000000344,1.319452308369377214
0.513000000000000345,1.305497058487798290
0.514000000000000346,1.291752291369635763
0.515000000000000346,1.278216177190001801
0.516000000000000347,1.264886865023582052
0.517000000000000348,1.251762484007576059
0.518000000000000349,1.238841144486110712
0.519000000000000350,1.226120939135840526
0.520000000000000351,1.213599944072512926
0.521000000000000352,1.201276219938240075
0.522000000000000353,1.189147812969368445
0.523000000000000353,1.177212756044694775
0.524000000000000354,1.165469069713970685
0.525000000000000355,1.153914763206533856
0.526000000000000356,1.142547835420016256
0.527000000000000357,1.131366275889022166
0.528000000000000358,1.120368065733766683
0.529000000000000359,1.109551178588620735
0.530000000000000360,1.098913581510591708
0.531000000000000361,1.088453235867702373
0.532000000000000361,1.078168098207344716
0.533000000000000362,1.068056121104614675
0.534000000000000363,1.058115253990733695
0.535000000000000364,1.048343443961572197
0.536000000000000365,1.038738636566432172
0.537000000000000366,1.029298776577131092
0.538000000000000367,1.020021808737566538
0.539000000000000368,1.010905678493810411
0.540000000000000369,1.001948332704959199
0.541000000000000369,0.993147720334806139
0.542000000000000370,0.984501793124581637
0.543000000000000371,0.976008506246842211
0.544000000000000372,0.967665818940756983
0.545000000000000373,0.959471695128941371
0.546000000000000374,0.951424104016034278
0.547000000000000375,0.943521020669241928
0.548000000000000376,0.935760426581023097
0.549000000000000377,0.928140310214163100
0.550000000000000377,0.920658667529416497
0.551000000000000378,0.913313502495997520
0.552000000000000379,0.906102827585084647
0.553000000000000380,0.899024664246624639
0.554000000000000381,0.892077043369654099
0.555000000000000382,0.885258005726355934
0.556000000000000383,0.878565602400155798
0.557000000000000384,0.871997895198026285
0.558000000000000385,0.865552957047329707
0.559000000000000385,0.859228872377384767
0.560000000000000386,0.853023737486047873
0.561000000000000387,0.846935660891550812
0.562000000000000388,0.840962763669869218
0.563000000000000389,0.835103179777834770
0.564000000000000390,0.829355056362308773
0.565000000000000391,0.823716554055627492
0.566000000000000392,0.818185847257608123
0.567000000000000393,0.812761124404342894
0.568000000000000393,0.807440588224083933
0.569000000000000394,0.802222455980428961
0.570000000000000395,0.797104959703098692
0.571000000000000396,0.792086346406556063
0.572000000000000397,0.787164878296697235
0.573000000000000398,0.782338832965915665
0.574000000000000399,0.777606503576738106
0.575000000000000400,0.772966199034337276
0.576000000000000401,0.768416244148132921
0.577000000000000401,0.763954979782727639
0.578000000000000402,0.759580762998461556
0.579000000000000403,0.755291967181798030
0.580000000000000404,0.751086982165771522
0.581000000000000405,0.746964214340786747
0.582000000000000406,0.742922086755943178
0.583000000000000407,0.738959039211183111
0.584000000000000408,0.735073528340437821
0.585000000000000409,0.731264027686046258
0.586000000000000409,0.727529027764654446
0.587000000000000410,0.723867036124805074
0.588000000000000411,0.720276577396491313
0.589000000000000412,0.716756193332811486
0.590000000000000413,0.713304442844030939
0.591000000000000414,0.709919902024200966
0.592000000000000415,0.706601164170561291
0.593000000000000416,0.703346839795950807
0.594000000000000417,0.700155556634417087
0.595000000000000417,0.697025959640206971
0.596000000000000418,0.693956710980389357
0.597000000000000419,0.690946490021236093
0.598000000000000420,0.687993993308623208
0.599000000000000421,0.685097934542580056
0.600000000000000422,0.682257044546210167
0.601000000000000423,0.679470071229168138
0.602000000000000424,0.676735779545835969
0.603000000000000425,0.674052951448407378
0.604000000000000425,0.671420385835058919
0.605000000000000426,0.668836898493347487
0.606000000000000427,0.666301322039011490
0.607000000000000428,0.663812505850381540
0.608000000000000429,0.661369315998465046
0.609000000000000430,0.658970635172991925
0.610000000000000431,0.656615362604447417
0.611000000000000432,0.654302413982334685
0.612000000000000433,0.652030721369781907
0.613000000000000433,0.649799233114624619
0.614000000000000434,0.647606913757132530
0.615000000000000435,0.645452743934513462
0.616000000000000436,0.643335720282326107
0.617000000000000437,0.641254855332916152
0.618000000000000438,0.639209177411048435
0.619000000000000439,0.637197730526839923
0.620000000000000440,0.635219574266101650
