# ZnO10m10NB_BUTENE13-AC
# h[nm],U(h)[kJ/mol]
0.200000000000000011,50.481852839080737283
0.201000000000000012,49.562494016269369013
0.202000000000000013,48.723389340466987107
0.203000000000000014,47.918942773149886705
0.204000000000000015,47.126284555398214593
0.205000000000000016,46.335948755359240181
0.206000000000000016,45.545828131056794064
0.207000000000000017,44.757385705505171813
0.208000000000000018,43.973391507095762165
0.209000000000000019,43.196665960781011506
0.210000000000000020,42.429467301173346527
0.211000000000000021,41.673273510560591149
0.212000000000000022,40.928790602217745231
0.213000000000000023,40.196076856307840330
0.214000000000000024,39.474713120181711190
0.215000000000000024,38.763977198185543216
0.216000000000000025,38.062999182408809418
0.217000000000000026,37.370886917595832699
0.218000000000000027,36.686818570533851869
0.219000000000000028,36.010103891989764691
0.220000000000000029,35.340218237158104841
0.221000000000000030,34.676814480184354750
0.222000000000000031,34.019718137801348234
0.223000000000000032,33.368910667546423099
0.224000000000000032,32.724505273871862698
0.225000000000000033,32.086718804370754299
0.226000000000000034,31.455842552863281014
0.227000000000000035,30.832214069230065689
0.228000000000000036,30.216191441987547250
0.229000000000000037,29.608130983756002053
0.230000000000000038,29.008368814535351987
0.231000000000000039,28.417206497918897412
0.232000000000000040,27.834900631506826585
0.233000000000000040,27.261656113209227215
0.234000000000000041,26.697622687655513829
0.235000000000000042,26.142894309744917791
0.236000000000000043,25.597510834627097864
0.237000000000000044,25.061461545494307046
0.238000000000000045,24.534690054265702486
0.239000000000000046,24.017100148684047412
0.240000000000000047,23.508562206941171269
0.241000000000000048,23.008919853281209811
0.242000000000000048,22.517996581698138669
0.243000000000000049,22.035602127317737597
0.244000000000000050,21.561538414539494823
0.245000000000000051,21.095604956307379751
0.246000000000000052,20.637603619264542232
0.247000000000000053,20.187342704676972005
0.248000000000000054,19.744640324827543054
0.249000000000000055,19.309327079235075075
0.250000000000000056,18.881248054842220796
0.251000000000000056,18.460264189639705279
0.252000000000000057,18.046253050507566229
0.253000000000000058,17.639109083841272962
0.254000000000000059,17.238743402277126648
0.255000000000000060,16.845083173011659028
0.256000000000000061,16.458070673270036366
0.257000000000000062,16.077662076831479965
0.258000000000000063,15.703826032539970114
0.259000000000000064,15.336542091747386252
0.260000000000000064,14.975799036944710707
0.261000000000000065,14.621593158685538327
0.262000000000000066,14.273926522503497694
0.263000000000000067,13.932805262049635431
0.264000000000000068,13.598237929265923896
0.265000000000000069,13.270233927181468658
0.266000000000000070,12.948802045954158402
0.267000000000000071,12.633949118145213930
0.268000000000000071,12.325678804952126200
0.269000000000000072,12.023990521262808429
0.270000000000000073,11.728878503943889200
0.271000000000000074,11.440331024741052346
0.272000000000000075,11.158329746540729843
0.273000000000000076,10.882849219506777416
0.274000000000000077,10.613856511742049804
0.275000000000000078,10.351310967609521185
0.276000000000000079,10.095164085654044328
0.277000000000000079,9.845359507165152735
0.278000000000000080,9.601833105785710032
0.279000000000000081,9.364513168169979807
0.280000000000000082,9.133320655501020013
0.281000000000000083,8.908169535662533889
0.282000000000000084,8.688967175999176007
0.283000000000000085,8.475614786866858097
0.284000000000000086,8.268007906548287878
0.285000000000000087,8.066036918568089575
0.286000000000000087,7.869587592967180356
0.287000000000000088,7.678541643670921069
0.288000000000000089,7.492777294694451307
0.289000000000000090,7.312169848558437657
0.290000000000000091,7.136592250927724201
0.291000000000000092,6.965915646123404414
0.292000000000000093,6.800009918788147090
0.293000000000000094,6.638744217597400521
0.294000000000000095,6.481987457499718275
0.295000000000000095,6.329608797533419207
0.296000000000000096,6.181478091800495456
0.297000000000000097,6.037466311679144937
0.298000000000000098,5.897445937822240580
0.299000000000000099,5.761291320918628500
0.300000000000000100,5.628879010587665377
0.301000000000000101,5.500088052133998318
0.302000000000000102,5.374800251210734459
0.303000000000000103,5.252900406724593907
0.304000000000000103,5.134276512568679784
0.305000000000000104,5.018819928987579893
0.306000000000000105,4.906425524567817220
0.307000000000000106,4.796991790005765033
0.308000000000000107,4.690420924936755220
0.309000000000000108,4.586618899215434197
0.310000000000000109,4.485495490119882689
0.311000000000000110,4.386964297013435043
0.312000000000000111,4.290942735039086742
0.313000000000000111,4.197352009445369347
0.314000000000000112,4.106117072149847225
0.315000000000000113,4.017166562139976804
0.316000000000000114,3.930432731291694015
0.317000000000000115,3.845851357156034656
0.318000000000000116,3.763361644224398894
0.319000000000000117,3.682906115135385683
0.320000000000000118,3.604430493231641996
0.321000000000000119,3.527883577815143834
0.322000000000000119,3.453217113384846382
0.323000000000000120,3.380385654072915802
0.324000000000000121,3.309346424425166244
0.325000000000000122,3.240059177599486695
0.326000000000000123,3.172486051983127275
0.327000000000000124,3.106591427156530472
0.328000000000000125,3.042341780058631873
0.329000000000000126,2.979705542136760421
0.330000000000000127,2.918652958193663771
0.331000000000000127,2.859155947575400258
0.332000000000000128,2.801187968277162987
0.333000000000000129,2.744723884479583376
0.334000000000000130,2.689739837966373059
0.335000000000000131,2.636213123814855841
0.336000000000000132,2.584122070694968798
0.337000000000000133,2.533445926058832232
0.338000000000000134,2.484164746452895312
0.339000000000000135,2.436259293137573501
0.340000000000000135,2.389710933155112738
0.341000000000000136,2.344501545945603116
0.342000000000000137,2.300613435573022336
0.343000000000000138,2.258029248588330429
0.344000000000000139,2.216731897524509165
0.345000000000000140,2.176704489989330860
0.346000000000000141,2.137930263295118039
0.347000000000000142,2.100392524541022876
0.348000000000000143,2.064074596041934662
0.349000000000000143,2.028959765979408747
0.350000000000000144,1.995031244133306902
0.351000000000000145,1.962272122538566865
0.352000000000000146,1.930665340899061944
0.353000000000000147,1.900193656580238866
0.354000000000000148,1.870839618993527242
0.355000000000000149,1.842585548178674149
0.356000000000000150,1.815413517384846243
0.357000000000000151,1.789305339447411214
0.358000000000000151,1.764242556754860747
0.359000000000000152,1.740206434599015139
0.360000000000000153,1.717177957701433444
0.361000000000000154,1.695137829709941091
0.362000000000000155,1.674066475460831871
0.363000000000000156,1.653944045805014529
0.364000000000000157,1.634750424799757296
0.365000000000000158,1.616465239071575466
0.366000000000000159,1.599067869160618827
0.367000000000000159,1.582537462661849359
0.368000000000000160,1.566852948983955329
0.369000000000000161,1.551993055552833400
0.370000000000000162,1.537936325292702744
0.371000000000000163,1.524661135224379516
0.372000000000000164,1.512145716026962905
0.373000000000000165,1.500368172415946333
0.374000000000000166,1.489306504197720482
0.375000000000000167,1.478938627867490752
0.376000000000000167,1.469242398624513113
0.377000000000000168,1.460195632685684641
0.378000000000000169,1.451776129785436131
0.379000000000000170,1.443961695756753816
0.380000000000000171,1.436730165094997069
0.381000000000000172,1.430059423412857633
0.382000000000000173,1.423927429701348002
0.383000000000000174,1.418312238318091500
0.384000000000000175,1.413192020630457124
0.385000000000000175,1.408545086247134037
0.386000000000000176,1.404349903777511788
0.387000000000000177,1.400585121064070737
0.388000000000000178,1.397229584838220351
0.389000000000000179,1.394262359755493730
0.390000000000000180,1.391662746770835790
0.391000000000000181,1.389410300819667210
0.392000000000000182,1.387484847774925090
0.393000000000000183,1.385866500654664435
0.394000000000000183,1.384535675058965243
0.395000000000000184,1.383473103818765315
0.396000000000000185,1.382659850843033222
0.397000000000000186,1.382077324154103559
0.398000000000000187,1.381707288104327525
0.399000000000000188,1.381531874770267176
0.400000000000000189,1.381533594523539410
0.401000000000000190,1.381695345780072914
0.402000000000000191,1.382000423932046029
0.403000000000000191,1.382432529469111326
0.404000000000000192,1.382975775297554444
0.405000000000000193,1.383614693268077955
0.406000000000000194,1.384334239924624566
0.407000000000000195,1.385119801488283731
0.408000000000000196,1.385957198091834597
0.409000000000000197,1.386832687281760679
0.410000000000000198,1.387732966805742540
0.411000000000000199,1.388645176704756734
0.412000000000000199,1.389556900729724598
0.413000000000000200,1.390456167103543361
0.414000000000000201,1.391331448649938629
0.415000000000000202,1.392171662311239677
0.416000000000000203,1.392966168077543365
0.417000000000000204,1.393704767350213203
0.418000000000000205,1.394377700762862826
0.419000000000000206,1.394975645483209403
0.420000000000000207,1.395489712019332362
0.421000000000000207,1.395911440553805338
0.422000000000000208,1.396232796829326217
0.423000000000000209,1.396446167609184830
0.424000000000000210,1.396544355735906739
0.425000000000000211,1.396520574811166870
0.426000000000000212,1.396368443519752089
0.427000000000000213,1.396081979620190650
0.428000000000000214,1.395655593624165913
0.429000000000000214,1.395084082186605512
0.430000000000000215,1.394362621227815735
0.431000000000000216,1.393486758808642811
0.432000000000000217,1.392452407779165569
0.433000000000000218,1.391255838220951002
0.434000000000000219,1.389893669702327639
0.435000000000000220,1.388362863365677713
0.436000000000000221,1.386660713865162098
0.437000000000000222,1.384784841172735481
0.438000000000000222,1.382733182269751504
0.439000000000000223,1.380503982740851843
0.440000000000000224,1.378095788286300971
0.441000000000000225,1.375507436168297737
0.442000000000000226,1.372738046606190476
0.443000000000000227,1.369787014135014802
0.444000000000000228,1.366653998941057768
0.445000000000000229,1.363338918187689153
0.446000000000000230,1.359841937344035578
0.447000000000000230,1.356163461528518965
0.448000000000000231,1.352304126878709045
0.449000000000000232,1.348264791958392106
0.450000000000000233,1.344046529212149510
0.451000000000000234,1.339650616477255252
0.452000000000000235,1.335078528562100519
0.453000000000000236,1.330331928899899818
0.454000000000000237,1.325412661285803484
0.455000000000000238,1.320322741705177272
0.456000000000000238,1.315064350260179982
0.457000000000000239,1.309639823201381059
0.458000000000000240,1.304051645070643417
0.459000000000000241,1.298302440961072390
0.460000000000000242,1.292394968899336583
0.461000000000000243,1.286332112355312862
0.462000000000000244,1.280116872883495294
0.463000000000000245,1.273752362900339330
0.464000000000000246,1.267241798601133285
0.465000000000000246,1.260588493019822121
0.466000000000000247,1.253795849234684567
0.467000000000000248,1.246867353722498795
0.468000000000000249,1.239806569863477259
0.469000000000000250,1.232617131598912064
0.470000000000000251,1.225302737243197493
0.471000000000000252,1.217867143451587308
0.472000000000000253,1.210314159344701324
0.473000000000000254,1.202647640790672323
0.474000000000000254,1.194871484845391407
0.475000000000000255,1.186989624351200368
0.476000000000000256,1.179006022694073064
0.477000000000000257,1.170924668719135919
0.478000000000000258,1.162749571804147397
0.479000000000000259,1.154484757090400437
0.480000000000000260,1.146134260870253607
0.481000000000000261,1.137702126130396785
0.482000000000000262,1.129192398249729390
0.483000000000000262,1.120609120850606377
0.484000000000000263,1.111956331802061992
0.485000000000000264,1.103238059373456093
0.486000000000000265,1.094458318536879027
0.487000000000000266,1.085621107416557818
0.488000000000000267,1.076730403883336074
0.489000000000000268,1.067790162292243217
0.490000000000000269,1.058804310361081136
0.491000000000000270,1.049776746187819798
0.492000000000000270,1.040711335404579163
0.493000000000000271,1.031611908465847938
0.494000000000000272,1.022482258068571737
0.495000000000000273,1.013326136701634850
0.496000000000000274,1.004147254322263816
0.497000000000000275,0.994949276156804507
0.498000000000000276,0.985735820623258818
0.499000000000000277,0.976510457373013785
0.500000000000000222,0.967276705449071406
0.501000000000000334,0.958038031558139047
0.502000000000000224,0.948797848453884263
0.503000000000000336,0.939559513428637749
0.504000000000000226,0.930326326910867918
0.505000000000000338,0.921101531165663068
0.506000000000000227,0.911888309095555627
0.507000000000000339,0.902689783138913571
0.508000000000000229,0.893509014263258239
0.509000000000000341,0.884349001050735994
0.510000000000000231,0.875212678873110383
0.511000000000000343,0.866102919153560746
0.512000000000000233,0.857022528712677256
0.513000000000000345,0.847974249195957874
0.514000000000000234,0.838960756580248157
0.515000000000000346,0.829984660756500681
0.516000000000000236,0.821048505186329436
0.517000000000000348,0.812154766629773150
0.518000000000000238,0.803305854941840258
0.519000000000000350,0.794504112935284779
0.520000000000000240,0.785751816307278306
0.521000000000000352,0.777051173627463787
0.522000000000000242,0.768404326385156877
0.523000000000000353,0.759813349093243384
0.524000000000000243,0.751280249446619863
0.525000000000000355,0.742806968532799594
0.526000000000000245,0.734395381092607713
0.527000000000000357,0.726047295828694095
0.528000000000000247,0.717764455759834274
0.529000000000000359,0.709548538618867242
0.530000000000000249,0.701401157292296018
0.531000000000000361,0.693323860299509875
0.532000000000000250,0.685318132309732264
0.533000000000000362,0.677385394694721255
0.534000000000000252,0.669527006115474888
0.535000000000000364,0.661744263140973343
0.536000000000000254,0.654038400897344885
0.537000000000000366,0.646410593745613715
0.538000000000000256,0.638861955986409824
0.539000000000000368,0.631393542589967938
0.540000000000000258,0.624006349949853045
0.541000000000000369,0.616701316658819776
0.542000000000000259,0.609479324305349124
0.543000000000000371,0.602341198289341184
0.544000000000000261,0.595287708655594661
0.545000000000000373,0.588319570943640069
0.546000000000000263,0.581437447052643996
0.547000000000000375,0.574641946120030167
0.548000000000000265,0.567933625412604171
0.549000000000000377,0.561312991228936853
0.550000000000000266,0.554780499811853067
0.551000000000000378,0.548336558269853280
0.552000000000000268,0.541981525506418760
0.553000000000000380,0.535715713156078022
0.554000000000000270,0.529539386526269196
0.555000000000000382,0.523452765543964249
0.556000000000000272,0.517456025706129141
0.557000000000000384,0.511549299033104754
0.558000000000000274,0.505732675024002987
0.559000000000000385,0.500006201613302004
0.560000000000000275,0.494369886127808134
0.561000000000000387,0.488823696243195993
0.562000000000000277,0.483367560939416019
0.563000000000000389,0.478001371454190083
0.564000000000000279,0.472724982233975966
0.565000000000000391,0.467538211881682042
0.566000000000000281,0.462440844100562021
0.567000000000000393,0.457432628633635208
0.568000000000000282,0.452513282198109656
0.569000000000000394,0.447682489414222673
0.570000000000000284,0.442939903728032713
0.571000000000000396,0.438285148327604290
0.572000000000000286,0.433717817052178933
0.573000000000000398,0.429237475293866022
0.574000000000000288,0.424843660891439323
0.575000000000000400,0.420535885015825783
0.576000000000000290,0.416313633046968945
0.577000000000000401,0.412176365441639991
0.578000000000000291,0.408123518591947287
0.579000000000000403,0.404154505674169773
0.580000000000000293,0.400268717487682057
0.581000000000000405,0.396465523283651755
0.582000000000000295,0.392744271583311932
0.583000000000000407,0.389104290985523571
0.584000000000000297,0.385544890963477382
0.585000000000000409,0.382065362650265805
0.586000000000000298,0.378664979613222874
0.587000000000000410,0.375342998616795265
0.588000000000000300,0.372098660373862855
0.589000000000000412,0.368931190285319399
0.590000000000000302,0.365839799167845980
0.591000000000000414,0.362823683969715982
0.592000000000000304,0.359882028474597271
0.593000000000000416,0.357014003993239071
0.594000000000000306,0.354218770042981135
0.595000000000000417,0.351495475015035974
0.596000000000000307,0.348843256829516002
0.597000000000000419,0.346261243578141253
0.598000000000000309,0.343748554154630181
0.599000000000000421,0.341304298872773582
0.600000000000000311,0.338927580072153622
0.601000000000000423,0.336617492711548782
0.602000000000000313,0.334373124950037515
0.603000000000000425,0.332193558715808135
0.604000000000000314,0.330077870262728501
0.605000000000000426,0.328025130714708346
0.606000000000000316,0.326034406597911164
0.607000000000000428,0.324104760360857058
0.608000000000000318,0.322235250882493329
0.609000000000000430,0.320424933968301018
0.610000000000000320,0.318672862834506243
0.611000000000000432,0.316978088580480266
0.612000000000000322,0.315339660649423537
0.613000000000000433,0.313756627277410549
0.614000000000000323,0.312228035930904313
0.615000000000000435,0.310752933732831527
0.616000000000000325,0.309330367877346579
0.617000000000000437,0.307959386033359150
0.618000000000000327,0.306639036736966908
0.619000000000000439,0.305368369772906711
0.620000000000000329,0.304146436545131960
0.621000000000000441,0.302972290436647529
0.622000000000000330,0.301844987158738642
0.623000000000000442,0.300763585089696361
0.624000000000000332,0.299727145603211009
0.625000000000000444,0.298734733386520457
0.626000000000000334,0.297785416748490517
0.627000000000000446,0.296878267917739858
0.628000000000000336,0.296012363330961870
0.629000000000000448,0.295186783911570494
0.630000000000000338,0.294400615338837990
0.631000000000000449,0.293652948307629447
0.632000000000000339,0.292942878778922389
0.633000000000000451,0.292269508221220164
0.634000000000000341,0.291631943843032704
0.635000000000000453,0.291029298816540050
0.636000000000000343,0.290460692492633121
0.637000000000000455,0.289925250607422247
0.638000000000000345,0.289422105480408587
0.639000000000000457,0.288950396204443571
0.640000000000000346,0.288509268827625065
0.641000000000000458,0.288097876527286967
0.642000000000000348,0.287715379776217361
0.643000000000000460,0.287360946501266312
0.644000000000000350,0.287033752234480188
0.645000000000000462,0.286732980256912240
0.646000000000000352,0.286457821735254303
0.647000000000000464,0.286207475851439741
0.648000000000000353,0.285981149925347955
0.649000000000000465,0.285778059530775841
0.650000000000000355,0.285597428604796422
0.651000000000000467,0.285438489550667696
0.652000000000000357,0.285300483334404553
0.653000000000000469,0.285182659575194175
0.654000000000000359,0.285084276629744782
0.655000000000000471,0.285004601670750590
0.656000000000000361,0.284942910759574120
0.657000000000000473,0.284898488913307435
0.658000000000000362,0.284870630166322858
0.659000000000000474,0.284858637626466293
0.660000000000000364,0.284861823526005697
0.661000000000000476,0.284879509267480402
0.662000000000000366,0.284911025464566592
0.663000000000000478,0.284955711978093829
0.664000000000000368,0.285012917947334687
0.665000000000000480,0.285082001816686137
0.666000000000000369,0.285162331357879162
0.667000000000000481,0.285253283687814829
0.668000000000000371,0.285354245282170682
0.669000000000000483,0.285464611984878103
0.670000000000000373,0.285583789013581280
0.671000000000000485,0.285711190961222217
0.672000000000000375,0.285846241793815903
