# ZnO10m10NB_CS-387-AC
# h[nm],U(h)[kJ/mol]
0.200000000000000011,114.061090008046150501
0.201000000000000012,112.085386578573206862
0.202000000000000013,110.363324843723944468
0.203000000000000014,108.775206477058347332
0.204000000000000015,107.250161191564274077
0.205000000000000016,105.749303405820754165
0.206000000000000016,104.253954729100286158
0.207000000000000017,102.757565732923879409
0.208000000000000018,101.260309074023695075
0.209000000000000019,99.765576071508434097
0.210000000000000020,98.277807649908908161
0.211000000000000021,96.801241790804056109
0.212000000000000022,95.339274019574588692
0.213000000000000023,93.894213406507276432
0.214000000000000024,92.467280667276952499
0.215000000000000024,91.058742343952374654
0.216000000000000025,89.668109730150476366
0.217000000000000026,88.294356270804485121
0.218000000000000027,86.936125011013359654
0.219000000000000028,85.591910130038982629
0.220000000000000029,84.260205084610944937
0.221000000000000030,82.939615473082042740
0.222000000000000031,81.628938230526344455
0.223000000000000032,80.327210784673638955
0.224000000000000032,79.033734798282864631
0.225000000000000033,77.748079430697686121
0.226000000000000034,76.470068914575634267
0.227000000000000035,75.199758838991385801
0.228000000000000036,73.937404981334921672
0.229000000000000037,72.683427923089993783
0.230000000000000038,71.438376075569834711
0.231000000000000039,70.202889167079888466
0.232000000000000040,68.977663723873803292
0.233000000000000040,67.763421624233529883
0.234000000000000041,66.560882421346462934
0.235000000000000042,65.370739814885055807
0.236000000000000043,64.193642398808748339
0.237000000000000044,63.030178617667708352
0.238000000000000045,61.880865718530252195
0.239000000000000046,60.746142383324546188
0.240000000000000047,59.626364659837314264
0.241000000000000048,58.521804772285101137
0.242000000000000048,57.432652378331148668
0.243000000000000049,56.359017843417930749
0.244000000000000050,55.300937120800234936
0.245000000000000051,54.258377852845612210
0.246000000000000052,53.231246342835333962
0.247000000000000053,52.219395084033102705
0.248000000000000054,51.222630572109366653
0.249000000000000055,50.240721166489521465
0.250000000000000056,49.273404804594846951
0.251000000000000056,48.320396409364221313
0.252000000000000057,47.381394864250715671
0.253000000000000058,46.456089460682314041
0.254000000000000059,45.544165750531988124
0.255000000000000060,44.645310760390159999
0.256000000000000061,43.759217545398250593
0.257000000000000062,42.885589078207878799
0.258000000000000063,42.024141483447472467
0.259000000000000064,41.174606640127471735
0.260000000000000064,40.336734183935838871
0.261000000000000065,39.510292948624893938
0.262000000000000066,38.695071890922598357
0.263000000000000067,37.890880546875571611
0.264000000000000068,37.097549069485921791
0.265000000000000069,36.314927898172207676
0.266000000000000070,35.542887110181965227
0.267000000000000071,34.781315502800637773
0.268000000000000071,34.030119453221843173
0.269000000000000072,33.289221600420759728
0.270000000000000073,32.558559390448081672
0.271000000000000074,31.838083523357909144
0.272000000000000075,31.127756336603237486
0.273000000000000076,30.427550156268051040
0.274000000000000077,29.737445644029300240
0.275000000000000078,29.057430164316627952
0.276000000000000079,28.387496192814968055
0.277000000000000079,27.727639784269417333
0.278000000000000080,27.077859114539954533
0.279000000000000081,26.438153109030679389
0.280000000000000082,25.808520167004264323
0.281000000000000083,25.188956988893686173
0.282000000000000084,24.579457511544624992
0.283000000000000085,23.980011954363476434
0.284000000000000086,23.390605977601818921
0.285000000000000087,22.811219952475855877
0.286000000000000087,22.241828341485270215
0.287000000000000088,21.682399186154341919
0.288000000000000089,21.132893698454022768
0.289000000000000090,20.593265951366952038
0.290000000000000091,20.063462663414735943
0.291000000000000092,19.543423071463671192
0.292000000000000093,19.033078885751528730
0.293000000000000094,18.532354320818416937
0.294000000000000095,18.041166195868765243
0.295000000000000095,17.559424098025125716
0.296000000000000096,17.087030601949717123
0.297000000000000097,16.623881539391668127
0.298000000000000098,16.169866312360589689
0.299000000000000099,15.724868243818329816
0.300000000000000100,15.288764960014017191
0.301000000000000101,14.861428798852927002
0.302000000000000102,14.442727238983030347
0.303000000000000103,14.032523344593993642
0.304000000000000103,13.630676221250396907
0.305000000000000104,13.237041478415624951
0.306000000000000105,12.851471694662023992
0.307000000000000106,12.473816881903161402
0.308000000000000107,12.103924945320454043
0.309000000000000108,11.741642135987680362
0.310000000000000109,11.386813493518783247
0.311000000000000110,11.039283276377579668
0.312000000000000111,10.698895377786339367
0.313000000000000111,10.365493725458124530
0.314000000000000112,10.038922663648763844
0.315000000000000113,9.719027316281474427
0.316000000000000114,9.405653930137750862
0.317000000000000115,9.098650197333311596
0.318000000000000116,8.797865556506163642
0.319000000000000117,8.503151472336694994
0.320000000000000118,8.214361693196250869
0.321000000000000119,7.931352486881363184
0.322000000000000119,7.653982854536957703
0.323000000000000120,7.382114723002979773
0.324000000000000121,7.115613115935495614
0.325000000000000122,6.854346304157092895
0.326000000000000123,6.598185935782157507
0.327000000000000124,6.347007146740696548
0.328000000000000125,6.100688652391646372
0.329000000000000126,5.859112820972906199
0.330000000000000127,5.622165729681334767
0.331000000000000127,5.389737204213181698
0.332000000000000128,5.161720842623600092
0.333000000000000129,4.938014024384254519
0.334000000000000130,4.718517905531475876
0.335000000000000131,4.503137400803465695
0.336000000000000132,4.291781153666414994
0.337000000000000133,4.084361495123951968
0.338000000000000134,3.880794392194929721
0.339000000000000135,3.680999386931214534
0.340000000000000135,3.484899526828664218
0.341000000000000136,3.292421287464417645
0.342000000000000137,3.103494488169455057
0.343000000000000138,2.918052201519623967
0.344000000000000139,2.736030657399825206
0.345000000000000140,2.557369142366761938
0.346000000000000141,2.382009895004264077
0.347000000000000142,2.209897997933357949
0.348000000000000143,2.040981267106289465
0.349000000000000143,1.875210138980625940
0.350000000000000144,1.712537556135887984
0.351000000000000145,1.552918851861946337
0.352000000000000146,1.396311634214659758
0.353000000000000147,1.242675670001614607
0.354000000000000148,1.091972769127998344
0.355000000000000149,0.944166669700779004
0.356000000000000150,0.799222924258222722
0.357000000000000151,0.657108787461236910
0.358000000000000151,0.517793105553631228
0.359000000000000152,0.381246207869826215
0.360000000000000153,0.247439800640812002
0.361000000000000154,0.116346863323218835
0.362000000000000155,-0.012058452349613624
0.363000000000000156,-0.137800920419417328
0.364000000000000157,-0.260904335705643753
0.365000000000000158,-0.381391605629229247
0.366000000000000159,-0.499284838747824922
0.367000000000000159,-0.614605429913189449
0.368000000000000160,-0.727374141979229782
0.369000000000000161,-0.837611184006930243
0.370000000000000162,-0.945336285928458642
0.371000000000000163,-1.050568769647791445
0.372000000000000164,-1.153327616569403968
0.373000000000000165,-1.253631531559434631
0.374000000000000166,-1.351499003356050554
0.375000000000000167,-1.446948361456210197
0.376000000000000167,-1.539997829516876582
0.377000000000000168,-1.630665575317392424
0.378000000000000169,-1.718969757338268067
0.379000000000000170,-1.804928568019201318
0.380000000000000171,-1.888560273765918396
0.381000000000000172,-1.969883251781196831
0.382000000000000173,-2.048916023800977371
0.383000000000000174,-2.125677286820969236
0.384000000000000175,-2.200185940903067738
0.385000000000000175,-2.272461114154242345
0.386000000000000176,-2.342522184973685473
0.387000000000000177,-2.410388801665647840
0.388000000000000178,-2.476080899517905110
0.389000000000000179,-2.539618715446436692
0.390000000000000180,-2.601022800308250282
0.391000000000000181,-2.660314028984598345
0.392000000000000182,-2.717513608336776354
0.393000000000000183,-2.772643083136824060
0.394000000000000183,-2.825724340074533991
0.395000000000000184,-2.876779609941636728
0.396000000000000185,-2.925831468092733090
0.397000000000000186,-2.972902833281275470
0.398000000000000187,-3.018016964967463522
0.399000000000000188,-3.061197459193063075
0.400000000000000189,-3.102468243116156099
0.401000000000000190,-3.141853568297146460
0.402000000000000191,-3.179378002824693628
0.403000000000000191,-3.215066422368229038
0.404000000000000192,-3.248944000241303254
0.405000000000000193,-3.281036196557308493
0.406000000000000194,-3.311368746556863307
0.407000000000000195,-3.339967648183268523
0.408000000000000196,-3.366859148979952643
0.409000000000000197,-3.392069732381048031
0.410000000000000198,-3.415626103463679009
0.411000000000000199,-3.437555174227483690
0.412000000000000199,-3.457884048464708204
0.413000000000000200,-3.476640006280893314
0.414000000000000201,-3.493850488324035553
0.415000000000000202,-3.509543079776977326
0.416000000000000203,-3.523745494165436476
0.417000000000000204,-3.536485557031332494
0.418000000000000205,-3.547791189518504584
0.419000000000000206,-3.557690391915470762
0.420000000000000207,-3.566211227197208622
0.421000000000000207,-3.573381804605824552
0.422000000000000208,-3.579230263307159987
0.423000000000000209,-3.583784756158572726
0.424000000000000210,-3.587073433620454388
0.425000000000000211,-3.589124427842025788
0.426000000000000212,-3.589965836949958966
0.427000000000000213,-3.589625709565930300
0.428000000000000214,-3.588132029577680182
0.429000000000000214,-3.585512701185809448
0.430000000000000215,-3.581795534246938750
0.431000000000000216,-3.577008229932008732
0.432000000000000217,-3.571178366716662111
0.433000000000000218,-3.564333386719078955
0.434000000000000219,-3.556500582399095833
0.435000000000000220,-3.547707083630810221
0.436000000000000221,-3.537979845159418435
0.437000000000000222,-3.527345634451690692
0.438000000000000222,-3.515831019948158165
0.439000000000000223,-3.503462359723778174
0.440000000000000224,-3.490265790562657511
0.441000000000000225,-3.476267217451221914
0.442000000000000226,-3.461492303493303613
0.443000000000000227,-3.445966460249290098
0.444000000000000228,-3.429714838500878216
0.445000000000000229,-3.412762319441727588
0.446000000000000230,-3.395133506293606551
0.447000000000000230,-3.376852716346895988
0.448000000000000231,-3.357943973423373585
0.449000000000000232,-3.338431000758523393
0.450000000000000233,-3.318337214300227433
0.451000000000000234,-3.297685716419556989
0.452000000000000235,-3.276499290029434519
0.453000000000000236,-3.254800393105781176
0.454000000000000237,-3.232611153605879473
0.455000000000000238,-3.209953364777702767
0.456000000000000238,-3.186848480853918364
0.457000000000000239,-3.163317613123748373
0.458000000000000240,-3.139381526375556231
0.459000000000000241,-3.115060635702635139
0.460000000000000242,-3.090375003664672882
0.461000000000000243,-3.065344337796710228
0.462000000000000244,-3.039987988457678814
0.463000000000000245,-3.014324947009840550
0.464000000000000246,-2.988373844320981298
0.465000000000000246,-2.962152949580409533
0.466000000000000247,-2.935680169420152197
0.467000000000000248,-2.908973047332453099
0.468000000000000249,-2.882048763374668088
0.469000000000000250,-2.854924134152583282
0.470000000000000251,-2.827615613073162226
0.471000000000000252,-2.800139290857669661
0.472000000000000253,-2.772510896306320749
0.473000000000000254,-2.744745797305243595
0.474000000000000254,-2.716859002067040230
0.475000000000000255,-2.688865160595874215
0.476000000000000256,-2.660778566368357190
0.477000000000000257,-2.632613158221440930
0.478000000000000258,-2.604382522438613456
0.479000000000000259,-2.576099895025864672
0.480000000000000260,-2.547778164168923443
0.481000000000000261,-2.519429872863374165
0.482000000000000262,-2.491067221709450497
0.483000000000000262,-2.462702071863402953
0.484000000000000263,-2.434345948137365490
0.485000000000000264,-2.406010042240007252
0.486000000000000265,-2.377705216150193923
0.487000000000000266,-2.349442005616086515
0.488000000000000267,-2.321230623772382540
0.489000000000000268,-2.293080964868384086
0.490000000000000269,-2.265002608099824677
0.491000000000000270,-2.237004821537617261
0.492000000000000270,-2.209096566146649288
0.493000000000000271,-2.181286499888188235
0.494000000000000272,-2.153582981899407223
0.495000000000000273,-2.125994076743773942
0.496000000000000274,-2.098527558726329012
0.497000000000000275,-2.071190916267839022
0.498000000000000276,-2.043991356332209186
0.499000000000000277,-2.016935808901536564
0.500000000000000222,-1.990030931493400601
0.501000000000000334,-1.963283113715258654
0.502000000000000224,-1.936698481850827047
0.503000000000000336,-1.910282903473580429
0.504000000000000226,-1.884041992082718053
0.505000000000000338,-1.857981111756918269
0.506000000000000227,-1.832105381821682588
0.507000000000000339,-1.806419681525844867
0.508000000000000229,-1.780928654723347604
0.509000000000000341,-1.755636714556216393
0.510000000000000231,-1.730548048135188255
0.511000000000000343,-1.705666621214132039
0.512000000000000233,-1.680996182855036380
0.513000000000000345,-1.656540270080072208
0.514000000000000234,-1.632302212507776407
0.515000000000000346,-1.608285136970052376
0.516000000000000236,-1.584491972107390012
0.517000000000000348,-1.560925452939332825
0.518000000000000238,-1.537588125407747697
0.519000000000000350,-1.514482350890245854
0.520000000000000240,-1.491610310681512619
0.521000000000000352,-1.468974010440289746
0.522000000000000242,-1.446575284599836975
0.523000000000000353,-1.424415800739931459
0.524000000000000243,-1.402497063918469733
0.525000000000000355,-1.380820420960957584
0.526000000000000245,-1.359387064706182757
0.527000000000000357,-1.338198038206482865
0.528000000000000247,-1.317254238881236272
0.529000000000000359,-1.296556422622113125
0.530000000000000249,-1.276105207848911238
0.531000000000000361,-1.255901079514752272
0.532000000000000250,-1.235944393059594137
0.533000000000000362,-1.216235378311038229
0.534000000000000252,-1.196774143331540863
0.535000000000000364,-1.177560678211211131
0.536000000000000254,-1.158594858805465089
0.537000000000000366,-1.139876450416774656
0.538000000000000256,-1.121405111420084033
0.539000000000000368,-1.103180396831177745
0.540000000000000258,-1.085201761817739641
0.541000000000000369,-1.067468565152500659
0.542000000000000259,-1.049980072608383663
0.543000000000000371,-1.032735460295161500
0.544000000000000261,-1.015733817937575889
0.545000000000000373,-0.998974152094698198
0.546000000000000263,-0.982455389320464390
0.547000000000000375,-0.966176379265260898
0.548000000000000265,-0.950135897718753730
0.549000000000000377,-0.934332649593749620
0.550000000000000266,-0.918765271851447296
0.551000000000000378,-0.903432336368011568
0.552000000000000268,-0.888332352742793652
0.553000000000000380,-0.873463771048326842
0.554000000000000270,-0.858824984522438717
0.555000000000000382,-0.844414332202653384
0.556000000000000272,-0.830230101503384277
0.557000000000000384,-0.816270530736052380
0.558000000000000274,-0.802533811572772038
0.559000000000000385,-0.789018091453770998
0.560000000000000275,-0.775721475939198934
0.561000000000000387,-0.762642031005652976
0.562000000000000277,-0.749777785287966458
0.563000000000000389,-0.737126732266791485
0.564000000000000279,-0.724686832402481107
0.565000000000000391,-0.712456015215827354
0.566000000000000281,-0.700432181316255620
0.567000000000000393,-0.688613204378027755
0.568000000000000282,-0.676996933065113993
0.569000000000000394,-0.665581192905276064
0.570000000000000284,-0.654363788114080025
0.571000000000000396,-0.643342503369407126
0.572000000000000286,-0.632515105537218791
0.573000000000000398,-0.621879345349093504
0.574000000000000288,-0.611432959032369161
0.575000000000000400,-0.601173669893486862
0.576000000000000290,-0.591099189855232465
0.577000000000000401,-0.581207220948600556
0.578000000000000291,-0.571495456759962606
0.579000000000000403,-0.561961583834264089
0.580000000000000293,-0.552603283034948212
0.581000000000000405,-0.543418230861310692
0.582000000000000295,-0.534404100724056419
0.583000000000000407,-0.525558564179699372
0.584000000000000297,-0.516879292124569956
0.585000000000000409,-0.508363955949171165
0.586000000000000298,-0.500010228653536837
0.587000000000000410,-0.491815785924385906
0.588000000000000300,-0.483778307174741684
0.589000000000000412,-0.475895476546726925
0.590000000000000302,-0.468164983878281871
0.591000000000000414,-0.460584525634528230
0.592000000000000304,-0.453151805804411723
0.593000000000000416,-0.445864536763386166
0.594000000000000306,-0.438720440102869147
0.595000000000000417,-0.431717247427064355
0.596000000000000307,-0.424852701117930942
0.597000000000000419,-0.418124555068954518
0.598000000000000309,-0.411530575388403208
0.599000000000000421,-0.405068541072702737
0.600000000000000311,-0.398736244650693794
0.601000000000000423,-0.392531492799322035
0.602000000000000313,-0.386452106931510719
0.603000000000000425,-0.380495923756773824
0.604000000000000314,-0.374660795815336067
0.605000000000000426,-0.368944591986231085
0.606000000000000316,-0.363345197970162015
0.607000000000000428,-0.357860516747633806
0.608000000000000318,-0.352488469013047534
0.609000000000000430,-0.347226993585277310
0.610000000000000320,-0.342074047795427272
0.611000000000000432,-0.337027607852257216
0.612000000000000322,-0.332085669185927246
0.613000000000000433,-0.327246246770607208
0.614000000000000323,-0.322507375426510035
0.615000000000000435,-0.317867110101925143
0.616000000000000325,-0.313323526135767416
0.617000000000000437,-0.308874719501205486
0.618000000000000327,-0.304518807030911831
0.619000000000000439,-0.300253926624399203
0.620000000000000329,-0.296078237438018088
0.621000000000000441,-0.291989920058107255
0.622000000000000330,-0.287987176657742483
0.623000000000000442,-0.284068231137657334
0.624000000000000332,-0.280231329251720396
0.625000000000000444,-0.276474738717527369
0.626000000000000334,-0.272796749312504638
0.627000000000000446,-0.269195672956002940
0.628000000000000336,-0.265669843777829262
0.629000000000000448,-0.262217618173653910
0.630000000000000338,-0.258837374847696422
0.631000000000000449,-0.255527514843156112
0.632000000000000339,-0.252286461560735087
0.633000000000000451,-0.249112660765727606
0.634000000000000341,-0.246004580584001070
0.635000000000000453,-0.242960711487333642
0.636000000000000343,-0.239979566268386429
0.637000000000000455,-0.237059680005783091
0.638000000000000345,-0.234199610019602822
0.639000000000000457,-0.231397935817626715
0.640000000000000346,-0.228653259032755740
0.641000000000000458,-0.225964203351843251
0.642000000000000348,-0.223329414436372803
0.643000000000000460,-0.220747559835223595
0.644000000000000350,-0.218217328889888484
0.645000000000000462,-0.215737432632441578
0.646000000000000352,-0.213306603676549800
0.647000000000000464,-0.210923596101825483
0.648000000000000353,-0.208587185331839953
0.649000000000000465,-0.206296168006010527
0.650000000000000355,-0.204049361845714733
0.651000000000000467,-0.201845605514826693
0.652000000000000357,-0.199683758475010409
0.653000000000000469,-0.197562700835939298
0.654000000000000359,-0.195481333200781510
0.655000000000000471,-0.193438576507097143
0.656000000000000361,-0.191433371863484358
0.657000000000000473,-0.189464680382092243
0.658000000000000362,-0.187531483007337796
0.659000000000000474,-0.185632780340940190
0.660000000000000364,-0.183767592463565332
0.661000000000000476,-0.181934958753224407
0.662000000000000366,-0.180133937700666019
0.663000000000000478,-0.178363606721943901
