# ZnO10m10NB_CS-3320-AC
# h[nm],U(h)[kJ/mol]
0.200000000000000011,65.366910539735229690
0.201000000000000012,64.263418643737082903
0.202000000000000013,63.135802544359975741
0.203000000000000014,62.008344549765752163
0.204000000000000015,60.892945527179200838
0.205000000000000016,59.794191579314009743
0.206000000000000016,58.712654351267119068
0.207000000000000017,57.646970605384431963
0.208000000000000018,56.595093150932576975
0.209000000000000019,55.554991860058478892
0.210000000000000020,54.525000394360098710
0.211000000000000021,53.503943817278887707
0.212000000000000022,52.491138703093170648
0.213000000000000023,51.486326297478385072
0.214000000000000024,50.489577433425168351
0.215000000000000024,49.501192776160600317
0.216000000000000025,48.521611703861694309
0.217000000000000026,47.551336345598016919
0.218000000000000027,46.590872972880831071
0.219000000000000028,45.640690327299481055
0.220000000000000029,44.701193019188607991
0.221000000000000030,43.772707458942576864
0.222000000000000031,42.855477604680679349
0.223000000000000032,41.949667932267288961
0.224000000000000032,41.055371322146399393
0.225000000000000033,40.172619922302644113
0.226000000000000034,39.301397429871649081
0.227000000000000035,38.441651599858559507
0.228000000000000036,37.593306117980105796
0.229000000000000037,36.756271256251615398
0.230000000000000038,35.930452961932374478
0.231000000000000039,35.115760214495978175
0.232000000000000040,34.312110625606031533
0.233000000000000040,33.519434359137513013
0.234000000000000041,32.737676518029047656
0.235000000000000042,31.966798188040520756
0.236000000000000043,31.206776350776841866
0.237000000000000044,30.457602884498264473
0.238000000000000045,29.719282865481755351
0.239000000000000046,28.991832368575877865
0.240000000000000047,28.275275946005706373
0.241000000000000048,27.569643940762432521
0.242000000000000048,26.874969766856189324
0.243000000000000049,26.191287264682642899
0.244000000000000050,25.518628216742332171
0.245000000000000051,24.857020087628239224
0.246000000000000052,24.206484032995991384
0.247000000000000053,23.567033205378500327
0.248000000000000054,22.938671370285540263
0.249000000000000055,22.321391834006483634
0.250000000000000056,21.715176674796879297
0.251000000000000056,21.119996261509356827
0.252000000000000057,20.535809038023455031
0.253000000000000058,19.962561547818630459
0.254000000000000059,19.400188670491903764
0.255000000000000060,18.848614040726424435
0.256000000000000061,18.307750619956721039
0.257000000000000062,17.777501391554142884
0.258000000000000063,17.257760151592833608
0.259000000000000064,16.748412368992184440
0.260000000000000064,16.249336090925567078
0.261000000000000065,15.760402871717341000
0.262000000000000066,15.281478705914802063
0.263000000000000067,14.812424948737852759
0.264000000000000068,14.353099209603390918
0.265000000000000069,13.903356206840319587
0.266000000000000070,13.463048574012415060
0.267000000000000071,13.032027610416941243
0.268000000000000071,12.610143970307237993
0.269000000000000072,12.197248287181727378
0.270000000000000073,11.793191731084203155
0.271000000000000074,11.397826498269427731
0.272000000000000075,11.011006233806195809
0.273000000000000076,10.632586388724948989
0.274000000000000077,10.262424514177190815
0.275000000000000078,9.900380495770932043
0.276000000000000079,9.546316731793080379
0.277000000000000079,9.200098259438153292
0.278000000000000080,8.861592833449266848
0.279000000000000081,8.530670961752393922
0.280000000000000082,8.207205902745089432
0.281000000000000083,7.891073628896952741
0.282000000000000084,7.582152761244778105
0.283000000000000085,7.280324479231867763
0.284000000000000086,6.985472410158060086
0.285000000000000087,6.697482502286926653
0.286000000000000087,6.416242885405320173
0.287000000000000088,6.141643722358224977
0.288000000000000089,5.873577054794982821
0.289000000000000090,5.611936646067106516
0.290000000000000091,5.356617823920126753
0.291000000000000092,5.107517325324498536
0.292000000000000093,4.864533145499835065
0.293000000000000094,4.627564392904251811
0.294000000000000095,4.396511151689736607
0.295000000000000095,4.171274352866865875
0.296000000000000096,3.951755655180174021
0.297000000000000097,3.737857336469154745
0.298000000000000098,3.529482196081139111
0.299000000000000099,3.326533468710340280
0.300000000000000100,3.128914749863731970
0.301000000000000101,2.936529932997355097
0.302000000000000102,2.749283158227727952
0.303000000000000103,2.567078772399549624
0.304000000000000103,2.389821300184629571
0.305000000000000104,2.217415425794958317
0.306000000000000105,2.049765984815748787
0.307000000000000106,1.886777965600687113
0.308000000000000107,1.728356519620385168
0.309000000000000108,1.574406980115843790
0.310000000000000109,1.424834888379567177
0.311000000000000110,1.279546026968640504
0.312000000000000111,1.138446459143055423
0.313000000000000111,1.001442573820977788
0.314000000000000112,0.868441135346847526
0.315000000000000113,0.739349337379319183
0.316000000000000114,0.614074860222038277
0.317000000000000115,0.492525930941256740
0.318000000000000116,0.374611385638822625
0.319000000000000117,0.260240733277099290
0.320000000000000118,0.149324220482963288
0.321000000000000119,0.041772896790444582
0.322000000000000119,-0.062501320184025072
0.323000000000000120,-0.163585580104625483
0.324000000000000121,-0.261566036252537437
0.325000000000000122,-0.356527783234453222
0.326000000000000123,-0.448554796425910229
0.327000000000000124,-0.537729873476339826
0.328000000000000125,-0.624134578167651610
0.329000000000000126,-0.707849186883679149
0.330000000000000127,-0.788952637914616894
0.331000000000000127,-0.867522483788373266
0.332000000000000128,-0.943634846789943915
0.333000000000000129,-1.017364377800555664
0.334000000000000130,-1.088784218560226558
0.335000000000000131,-1.157965967431394905
0.336000000000000132,-1.224979648716043368
0.337000000000000133,-1.289893685555995706
0.338000000000000134,-1.352774876424461814
0.339000000000000135,-1.413688375196864966
0.340000000000000135,-1.472697674771052290
0.341000000000000136,-1.529864594190071481
0.342000000000000137,-1.585249269205704969
0.343000000000000138,-1.638910146207280150
0.344000000000000139,-1.690903979428249659
0.345000000000000140,-1.741285831332187950
0.346000000000000141,-1.790109076070512062
0.347000000000000142,-1.837425405896062625
0.348000000000000143,-1.883284840409948258
0.349000000000000143,-1.927735738513108199
0.350000000000000144,-1.970824812929611536
0.351000000000000145,-2.012597147164862932
0.352000000000000146,-2.053096214759437377
0.353000000000000147,-2.092363900697239210
0.354000000000000148,-2.130440524825899296
0.355000000000000149,-2.167364867146965857
0.356000000000000150,-2.203174194833950050
0.357000000000000151,-2.237904290837428256
0.358000000000000151,-2.271589483937994647
0.359000000000000152,-2.304262680110046091
0.360000000000000153,-2.335955395062164541
0.361000000000000154,-2.366697787822642063
0.362000000000000155,-2.396518695242385810
0.363000000000000156,-2.425445667290996088
0.364000000000000157,-2.453505003025771458
0.365000000000000158,-2.480721787117877497
0.366000000000000159,-2.507119926823905054
0.367000000000000159,-2.532722189296038096
0.368000000000000160,-2.557550239128423275
0.369000000000000161,-2.581624676042260980
0.370000000000000162,-2.604965072616932886
0.371000000000000163,-2.627590011979341167
0.372000000000000164,-2.649517125368477277
0.373000000000000165,-2.670763129497168098
0.374000000000000166,-2.691343863637777112
0.375000000000000167,-2.711274326363239062
0.376000000000000167,-2.730568711879806099
0.377000000000000168,-2.749240445892291440
0.378000000000000169,-2.767302220947149394
0.379000000000000170,-2.784766031203270931
0.380000000000000171,-2.801643206584599533
0.381000000000000172,-2.817944446272827363
0.382000000000000173,-2.833679851502538760
0.383000000000000174,-2.848858957625136856
0.384000000000000175,-2.863490765411509376
0.385000000000000175,-2.877583771567122195
0.386000000000000176,-2.891145998436785103
0.387000000000000177,-2.904185022879398392
0.388000000000000178,-2.916708004296518109
0.389000000000000179,-2.928721711801270278
0.390000000000000180,-2.940232550517239307
0.391000000000000181,-2.951246586999605181
0.392000000000000182,-2.961769573773320730
0.393000000000000183,-2.971806972985640449
0.394000000000000183,-2.981363979172517720
0.395000000000000184,-2.990445541140564156
0.396000000000000185,-2.999056382968243728
0.397000000000000186,-3.007201024131791023
0.398000000000000187,-3.014883798763194456
0.399000000000000188,-3.022108874049053817
0.400000000000000189,-3.028880267780595492
0.401000000000000190,-3.035201865066651905
0.402000000000000191,-3.041077434222420273
0.403000000000000191,-3.046510641848070744
0.404000000000000192,-3.051505067112312730
0.405000000000000193,-3.056064215256812489
0.406000000000000194,-3.060191530338338683
0.407000000000000195,-3.063890407226081969
0.408000000000000196,-3.067164202872322054
0.409000000000000197,-3.070016246875110433
0.410000000000000198,-3.072449851352170747
0.411000000000000199,-3.074468320145453681
0.412000000000000199,-3.076074957376326857
0.413000000000000200,-3.077273075371386390
0.414000000000000201,-3.078066001979269828
0.415000000000000202,-3.078457087298790640
0.416000000000000203,-3.078449709838914305
0.417000000000000204,-3.078047282131049833
0.418000000000000205,-3.077253255814090149
0.419000000000000206,-3.076071126212569062
0.420000000000000207,-3.074504436428133314
0.421000000000000207,-3.072556780964508683
0.422000000000000208,-3.070231808905640403
0.423000000000000209,-3.067533226666843582
0.424000000000000210,-3.064464800338200234
0.425000000000000211,-3.061030357639292099
0.426000000000000212,-3.057233789504118171
0.427000000000000213,-3.053079051314472991
0.428000000000000214,-3.048570163799983579
0.429000000000000214,-3.043711213622381173
0.430000000000000215,-3.038506353661352133
0.431000000000000216,-3.032959803018839828
0.432000000000000217,-3.027075846758251476
0.433000000000000218,-3.020858835394581554
0.434000000000000219,-3.014313184151090841
0.435000000000000220,-3.007443371997680082
0.436000000000000221,-3.000253940485638093
0.437000000000000222,-2.992749492393032007
0.438000000000000222,-2.984934690194543716
0.439000000000000223,-2.976814254369102297
0.440000000000000224,-2.968392961558160792
0.441000000000000225,-2.959675642587069611
0.442000000000000226,-2.950667180361564057
0.443000000000000227,-2.941372507650795498
0.444000000000000228,-2.931796604768110992
0.445000000000000229,-2.921944497160132492
0.446000000000000230,-2.911821252914355007
0.447000000000000230,-2.901431980195087412
0.448000000000000231,-2.890781824617047580
0.449000000000000232,-2.879875966565513146
0.450000000000000233,-2.868719618471661015
0.451000000000000234,-2.857318022051078543
0.452000000000000235,-2.845676445513318775
0.453000000000000236,-2.833800180749701525
0.454000000000000237,-2.821694540506480386
0.455000000000000238,-2.809364855549838058
0.456000000000000238,-2.796816471829060013
0.457000000000000239,-2.784054747643718297
0.458000000000000240,-2.771085050820476514
0.459000000000000241,-2.757912755904667002
0.460000000000000242,-2.744543241371659281
0.461000000000000243,-2.730981886862495323
0.462000000000000244,-2.717234070448241834
0.463000000000000245,-2.703305165926867648
0.464000000000000246,-2.689200540156596375
0.465000000000000246,-2.674925550429031240
0.466000000000000247,-2.660485541885314831
0.467000000000000248,-2.645885844978264068
0.468000000000000249,-2.631131772983180017
0.469000000000000250,-2.616228619559798574
0.470000000000000251,-2.601181656367643313
0.471000000000000252,-2.585996130736750498
0.472000000000000253,-2.570677263395732659
0.473000000000000254,-2.555230246258619609
0.474000000000000254,-2.539660240272090252
0.475000000000000255,-2.523972373324224527
0.476000000000000256,-2.508171738215954072
0.477000000000000257,-2.492263390696076719
0.478000000000000258,-2.476252347560630618
0.479000000000000259,-2.460143584817233275
0.480000000000000260,-2.443942035914883348
0.481000000000000261,-2.427652590039528935
0.482000000000000262,-2.411280090475650617
0.483000000000000262,-2.394829333033976049
0.484000000000000263,-2.378305064545231495
0.485000000000000264,-2.361711981419897910
0.486000000000000265,-2.345054728273700650
0.487000000000000266,-2.328337896618495328
0.488000000000000267,-2.311566023618188304
0.489000000000000268,-2.294743590909183784
0.490000000000000269,-2.277875023484759343
0.491000000000000270,-2.260964688642792986
0.492000000000000270,-2.244016894996053502
0.493000000000000271,-2.227035891544359991
0.494000000000000272,-2.210025866807743711
0.495000000000000273,-2.192990948019711617
0.496000000000000274,-2.175935200379748746
0.497000000000000275,-2.158862626364000281
0.498000000000000276,-2.141777165093188273
0.499000000000000277,-2.124682691756684783
0.500000000000000222,-2.107583017091628541
0.501000000000000334,-2.090481886916022880
0.502000000000000224,-2.073382981714645190
0.503000000000000336,-2.056289916276572427
0.504000000000000226,-2.039206239383226649
0.505000000000000338,-2.022135433545618977
0.506000000000000227,-2.005080914789701296
0.507000000000000339,-1.988046032488481218
0.508000000000000229,-1.971034069239761211
0.509000000000000341,-1.954048240788151869
0.510000000000000231,-1.937091695990263984
0.511000000000000343,-1.920167516821629672
0.512000000000000233,-1.903278718424278093
0.513000000000000345,-1.886428249193577544
0.514000000000000234,-1.869618990903237243
0.515000000000000346,-1.852853758867036404
0.516000000000000236,-1.836135302136241876
0.517000000000000348,-1.819466303731320567
0.518000000000000238,-1.802849380906850429
0.519000000000000350,-1.786287085448305278
0.520000000000000240,-1.769781903999601225
0.521000000000000352,-1.753336258420181482
0.522000000000000242,-1.736952506170452493
0.523000000000000353,-1.720632940724436066
0.524000000000000243,-1.704379792008471339
0.525000000000000355,-1.688195226864853238
0.526000000000000245,-1.672081349539304540
0.527000000000000357,-1.656040202191127353
0.528000000000000247,-1.640073765425061669
0.529000000000000359,-1.624183958843672615
0.530000000000000249,-1.608372641619339349
0.531000000000000361,-1.592641613084727847
0.532000000000000250,-1.576992613340841398
0.533000000000000362,-1.561427323881576790
0.534000000000000252,-1.545947368233900665
0.535000000000000364,-1.530554312612663725
0.536000000000000254,-1.515249666589179700
0.537000000000000366,-1.500034883772582983
0.538000000000000256,-1.484911362503229082
0.539000000000000368,-1.469880446557125575
0.540000000000000258,-1.454943425860723227
0.541000000000000369,-1.440101537215081162
0.542000000000000259,-1.425355965028797467
0.543000000000000371,-1.410707842058774197
0.544000000000000261,-1.396158250158185066
0.545000000000000373,-1.381708221030854666
0.546000000000000263,-1.367358736991388435
0.547000000000000375,-1.353110731730284177
0.548000000000000265,-1.338965091083517134
0.549000000000000377,-1.324922653805756134
0.550000000000000266,-1.310984212346768985
0.551000000000000378,-1.297150513630286550
0.552000000000000268,-1.283422259834810841
0.553000000000000380,-1.269800109175769576
0.554000000000000270,-1.256284676688511404
0.555000000000000382,-1.242876535011533834
0.556000000000000272,-1.229576215169576603
0.557000000000000384,-1.216384207355908575
0.558000000000000274,-1.203300961713539063
0.559000000000000385,-1.190326889114710296
0.560000000000000275,-1.177462361938396596
0.561000000000000387,-1.164707714845281128
0.562000000000000277,-1.152063245549864945
0.563000000000000389,-1.139529215589314193
0.564000000000000279,-1.127105851088675337
0.565000000000000391,-1.114793343522102242
0.566000000000000281,-1.102591850469770929
0.567000000000000393,-1.090501496370144707
0.568000000000000282,-1.078522373267325474
0.569000000000000394,-1.066654541553121005
0.570000000000000284,-1.054898030703651735
0.571000000000000396,-1.043252840010142846
0.572000000000000286,-1.031718939303745808
0.573000000000000398,-1.020296269674034972
0.574000000000000288,-1.008984744181084192
0.575000000000000400,-0.997784248560824372
0.576000000000000290,-0.986694641923525517
0.577000000000000401,-0.975715757445199117
0.578000000000000291,-0.964847403051761310
0.579000000000000403,-0.954089362095783655
0.580000000000000293,-0.943441394025692714
0.581000000000000405,-0.932903235047245927
0.582000000000000295,-0.922474598777218269
0.583000000000000407,-0.912155176889091868
0.584000000000000297,-0.901944639750714594
0.585000000000000409,-0.891842637053781528
0.586000000000000298,-0.881848798435073356
0.587000000000000410,-0.871962734089341773
0.588000000000000300,-0.862184035373804614
0.589000000000000412,-0.852512275404132103
0.590000000000000302,-0.842947009641919265
0.591000000000000414,-0.833487776473572639
0.592000000000000304,-0.824134097780557795
0.593000000000000416,-0.814885479500969678
0.594000000000000306,-0.805741412182441885
0.595000000000000417,-0.796701371526307822
0.596000000000000307,-0.787764818923042620
0.597000000000000419,-0.778931201978961929
0.598000000000000309,-0.770199955034185035
0.599000000000000421,-0.761570499671828882
0.600000000000000311,-0.753042245218503603
0.601000000000000423,-0.744614589236046953
0.602000000000000313,-0.736286918004598556
0.603000000000000425,-0.728058606996935476
0.604000000000000314,-0.719929021344229758
0.605000000000000426,-0.711897516293104826
0.606000000000000316,-0.703963437654171797
0.607000000000000428,-0.696126122241972345
0.608000000000000318,-0.688384898306466875
0.609000000000000430,-0.680739085956019285
0.610000000000000320,-0.673187997572031627
0.611000000000000432,-0.665730938215185697
0.612000000000000322,-0.658367206023430462
0.613000000000000433,-0.651096092601717080
0.614000000000000323,-0.643916883403585993
0.615000000000000435,-0.636828858104646955
0.616000000000000325,-0.629831290968027147
0.617000000000000437,-0.622923451201863321
0.618000000000000327,-0.616104603308920362
0.619000000000000439,-0.609374007428370668
0.620000000000000329,-0.602730919669869691
0.621000000000000441,-0.596174592439966400
0.622000000000000330,-0.589704274760939784
0.623000000000000442,-0.583319212582147140
0.624000000000000332,-0.577018649083965496
0.625000000000000444,-0.570801824974414562
0.626000000000000334,-0.564667978778544244
0.627000000000000446,-0.558616347120672208
0.628000000000000336,-0.552646164999567646
0.629000000000000448,-0.546756666056662177
0.630000000000000338,-0.540947082837391013
0.631000000000000449,-0.535216647045736904
0.632000000000000339,-0.529564589792084872
0.633000000000000451,-0.523990141834472456
0.634000000000000341,-0.518492533813328937
0.635000000000000453,-0.513070996479806585
0.636000000000000343,-0.507724760917771745
0.637000000000000455,-0.502453058759581239
0.638000000000000345,-0.497255122395725391
0.639000000000000457,-0.492130185178408674
0.640000000000000346,-0.487077481619215102
0.641000000000000458,-0.482096247580886872
0.642000000000000348,-0.477185720463379481
0.643000000000000460,-0.472345139384217294
0.644000000000000350,-0.467573745353307590
0.645000000000000462,-0.462870781442254742
0.646000000000000352,-0.458235492948310064
0.647000000000000464,-0.453667127553004756
0.648000000000000353,-0.449164935475620475
0.649000000000000465,-0.444728169621509295
0.650000000000000355,-0.440356085725443491
0.651000000000000467,-0.436047942489998341
0.652000000000000357,-0.431803001719143154
0.653000000000000469,-0.427620528447048287
0.654000000000000359,-0.423499791062279585
0.655000000000000471,-0.419440061427386379
0.656000000000000361,-0.415440614994051660
0.657000000000000473,-0.411500730913816226
0.658000000000000362,-0.407619692144533752
0.659000000000000474,-0.403796785552576698
0.660000000000000364,-0.400031302010943446
0.661000000000000476,-0.396322536493286637
0.662000000000000366,-0.392669788163999056
0.663000000000000478,-0.389072360464409850
0.664000000000000368,-0.385529561195180726
