# ZnO10m10NB_CS-12144-AC
# h[nm],U(h)[kJ/mol]
0.200000000000000011,95.801320825492709332
0.201000000000000012,94.125677520269249499
0.202000000000000013,92.566724786669311698
0.203000000000000014,91.075278002985882608
0.204000000000000015,89.620888242883680164
0.205000000000000016,88.185867794694701161
0.206000000000000016,86.760966817141039087
0.207000000000000017,85.342294235643649358
0.208000000000000018,83.929167416561625714
0.209000000000000019,82.522647539841443631
0.210000000000000020,81.124574646823489843
0.211000000000000021,79.736961105259268834
0.212000000000000022,78.361637176592537912
0.213000000000000023,77.000069492941676685
0.214000000000000024,75.653294171284073855
0.215000000000000024,74.321922314455989067
0.216000000000000025,73.006187820692218793
0.217000000000000026,71.706016584679559855
0.218000000000000027,70.421102992971185586
0.219000000000000028,69.150984627205303923
0.220000000000000029,67.895109711036383260
0.221000000000000030,66.652894402819683251
0.222000000000000031,65.423768806017591260
0.223000000000000032,64.207211745813964399
0.224000000000000032,63.002775100649770934
0.225000000000000033,61.810098902217383454
0.226000000000000034,60.628918619111722421
0.227000000000000035,59.459066087579877546
0.228000000000000036,58.300465499758708177
0.229000000000000037,57.153125743892928767
0.230000000000000038,56.017130240158245158
0.231000000000000039,54.892625249657953646
0.232000000000000040,53.779807466554984785
0.233000000000000040,52.678911543161731856
0.234000000000000041,51.590198050741683744
0.235000000000000042,50.513942247878929948
0.236000000000000043,49.450423914868146369
0.237000000000000044,48.399918416751873451
0.238000000000000045,47.362689078633451345
0.239000000000000046,46.338980893462398569
0.240000000000000047,45.329015533053336640
0.241000000000000048,44.332987595969981953
0.242000000000000048,43.351061999362173083
0.243000000000000049,42.383372404228829566
0.244000000000000050,41.430020553349990564
0.245000000000000051,40.491076396868081133
0.246000000000000052,39.566578880955020736
0.247000000000000053,38.656537279071315538
0.248000000000000054,37.760932952062319146
0.249000000000000055,36.879721431948709665
0.250000000000000056,36.012834734082538546
0.251000000000000056,35.160183812816988791
0.252000000000000057,34.321661086540864005
0.253000000000000058,33.497142968515611017
0.254000000000000059,32.686492350164321863
0.255000000000000060,31.889560993108226228
0.256000000000000061,31.106191795193772975
0.257000000000000062,30.336220903917258340
0.258000000000000063,29.579479657990304986
0.259000000000000064,28.835796344280630876
0.260000000000000064,28.104997763020968193
0.261000000000000065,27.386910599032383118
0.262000000000000066,26.681362600795342388
0.263000000000000067,25.988183572579487191
0.264000000000000068,25.307206187563402011
0.265000000000000069,24.638266632002107315
0.266000000000000070,23.981205092095134290
0.267000000000000071,23.335866096330978081
0.268000000000000071,22.702098726796954509
0.269000000000000072,22.079756713301911475
0.270000000000000073,21.468698424217400600
0.271000000000000074,20.868786767750314937
0.272000000000000075,20.279889016961270443
0.273000000000000076,19.701876571280674710
0.274000000000000077,19.134624666583334829
0.275000000000000078,18.578012045097363369
0.276000000000000079,18.031920595571225618
0.277000000000000079,17.496234973228055765
0.278000000000000080,16.970842208123656292
0.279000000000000081,16.455631309606335577
0.280000000000000082,15.950492873673322691
0.281000000000000083,15.455318699137819749
0.282000000000000084,14.970001417675490529
0.283000000000000085,14.494434142015705902
0.284000000000000086,14.028510135785740687
0.285000000000000087,13.572122507812494518
0.286000000000000087,13.125163933035199904
0.287000000000000088,12.687526401587586378
0.288000000000000089,12.259100997069031891
0.289000000000000090,11.839777704539514502
0.290000000000000091,11.429445248344034525
0.291000000000000092,11.027990959493056522
0.292000000000000093,10.635300671998066946
0.293000000000000094,10.251258647279938074
0.294000000000000095,9.875747525531419768
0.295000000000000095,9.508648302718976097
0.296000000000000096,9.149840331752738365
0.297000000000000097,8.799201346230379528
0.298000000000000098,8.456607505070797615
0.299000000000000099,8.121933456291385411
0.300000000000000100,7.795052418147376372
0.301000000000000101,7.475836275837991707
0.302000000000000102,7.164155691992253772
0.303000000000000103,6.859880229170808086
0.304000000000000103,6.562878482660932988
0.305000000000000104,6.273018221893734925
0.306000000000000105,5.990166538875928204
0.307000000000000106,5.714190002100721699
0.308000000000000107,5.444954814480817085
0.309000000000000108,5.182326973931287384
0.310000000000000109,4.926172435317417886
0.311000000000000110,4.676357272574307444
0.312000000000000111,4.432747839895919029
0.313000000000000111,4.195210930984675457
0.314000000000000112,3.963613935444059599
0.315000000000000113,3.737824991487563864
0.316000000000000114,3.517713134225762595
0.317000000000000115,3.303148438879718096
0.318000000000000116,3.094002158351798926
0.319000000000000117,2.890146854664876752
0.320000000000000118,2.691456523857056027
0.321000000000000119,2.497806713990965655
0.322000000000000119,2.309074636004960546
0.323000000000000120,2.125139267197633242
0.324000000000000121,1.945881447196138980
0.325000000000000122,1.771183966314727964
0.326000000000000123,1.600931646260761898
0.327000000000000124,1.435011413192433416
0.328000000000000125,1.273312363175093109
0.329000000000000126,1.115725820122099199
0.330000000000000127,0.962145386340757414
0.331000000000000127,0.812466985835207489
0.332000000000000128,0.666588900545664109
0.333000000000000129,0.524411799727460215
0.334000000000000130,0.385838762694470261
0.335000000000000131,0.250775295168881140
0.336000000000000132,0.119129339494824071
0.337000000000000133,-0.009188721014900559
0.338000000000000134,-0.134266063319930684
0.339000000000000135,-0.256187431194504711
0.340000000000000135,-0.375035146779294171
0.341000000000000136,-0.490889126847724566
0.342000000000000137,-0.603826903490635281
0.343000000000000138,-0.713923648923027399
0.344000000000000139,-0.821252204118833262
0.345000000000000140,-0.925883110982382518
0.346000000000000141,-1.027884647769832238
0.347000000000000142,-1.127322867479036095
0.348000000000000143,-1.224261638932917950
0.349000000000000143,-1.318762690288333150
0.350000000000000144,-1.410885654710542392
0.351000000000000145,-1.500688117961633816
0.352000000000000146,-1.588225667660540186
0.353000000000000147,-1.673551943981393508
0.354000000000000148,-1.756718691566943047
0.355000000000000149,-1.837775812443581014
0.356000000000000150,-1.916771419734730753
0.357000000000000151,-1.993751891979628210
0.358000000000000151,-2.068761927874765316
0.359000000000000152,-2.141844601265612269
0.360000000000000153,-2.213041416226585234
0.361000000000000154,-2.282392362077036552
0.362000000000000155,-2.349935968191483759
0.363000000000000156,-2.415709358471776369
0.364000000000000157,-2.479748305358601357
0.365000000000000158,-2.542087283269360842
0.366000000000000159,-2.602759521358084083
0.367000000000000159,-2.661797055502480358
0.368000000000000160,-2.719230779431319078
0.369000000000000161,-2.775090494913863726
0.370000000000000162,-2.829404960940983038
0.371000000000000163,-2.882201941835106584
0.372000000000000164,-2.933508254233577084
0.373000000000000165,-2.983349812896875175
0.374000000000000166,-3.031751675299948268
0.375000000000000167,-3.078738084970841449
0.376000000000000167,-3.124332513547285028
0.377000000000000168,-3.168557701527146442
0.378000000000000169,-3.211435697694096092
0.379000000000000170,-3.252987897204904222
0.380000000000000171,-3.293235078329408871
0.381000000000000172,-3.332197437838538612
0.382000000000000173,-3.369894625039916214
0.383000000000000174,-3.406345774464394793
0.384000000000000175,-3.441569537210289020
0.385000000000000175,-3.475584110955320938
0.386000000000000176,-3.508407268649493371
0.387000000000000177,-3.540056385904374991
0.388000000000000178,-3.570548467097359513
0.389000000000000179,-3.599900170211136619
0.390000000000000180,-3.628127830431053802
0.391000000000000181,-3.655247482524745628
0.392000000000000182,-3.681274882029867079
0.393000000000000183,-3.706225525277474731
0.394000000000000183,-3.730114668279628010
0.395000000000000184,-3.752957344510976068
0.396000000000000185,-3.774768381614918233
0.397000000000000186,-3.795562417065759142
0.398000000000000187,-3.815353912818886251
0.399000000000000188,-3.834157168981468633
0.400000000000000189,-3.851986336536429523
0.401000000000000190,-3.868855429152954883
0.402000000000000191,-3.884778334116616882
0.403000000000000191,-3.899768822412393199
0.404000000000000192,-3.913840557993837788
0.405000000000000193,-3.927007106271299453
0.406000000000000194,-3.939281941852137869
0.407000000000000195,-3.950678455565328928
0.408000000000000196,-3.961209960802617669
0.409000000000000197,-3.970889699207917456
0.410000000000000198,-3.979730845746206391
0.411000000000000199,-3.987746513182474306
0.412000000000000199,-3.994949756000983232
0.413000000000000200,-4.001353573794166785
0.414000000000000201,-4.006970914150132401
0.415000000000000202,-4.011814675066797342
0.416000000000000203,-4.015897706920171117
0.417000000000000204,-4.019232814013481203
0.418000000000000205,-4.021832755733084852
0.419000000000000206,-4.023710247336429013
0.420000000000000207,-4.024877960396345600
0.421000000000000207,-4.025348522925595418
0.422000000000000208,-4.025134519204161876
0.423000000000000209,-4.024248489331709422
0.424000000000000210,-4.022702928526284083
0.425000000000000211,-4.020510286189736604
0.426000000000000212,-4.017682964759751840
0.427000000000000213,-4.014233318367141479
0.428000000000000214,-4.010173651316786270
0.429000000000000214,-4.005516216409447772
0.430000000000000215,-4.000273213121126048
0.431000000000000216,-3.994456785655875031
0.432000000000000217,-3.988079020887171033
0.433000000000000218,-3.981151946202230452
0.434000000000000219,-3.973687527263085606
0.435000000000000220,-3.965697665697390129
0.436000000000000221,-3.957194196731296021
0.437000000000000222,-3.948188886776113460
0.438000000000000222,-3.938693430979798737
0.439000000000000223,-3.928719450753733522
0.440000000000000224,-3.918278491284543641
0.441000000000000225,-3.907382019040210430
0.442000000000000226,-3.896041419279205886
0.443000000000000227,-3.884267993570587940
0.444000000000000228,-3.872072957332827858
0.445000000000000229,-3.859467437398240719
0.446000000000000230,-3.846462469609626567
0.447000000000000230,-3.833068996455254673
0.448000000000000231,-3.819297864747697613
0.449000000000000232,-3.805159823351675463
0.450000000000000233,-3.790665520965751600
0.451000000000000234,-3.775825503962013219
0.452000000000000235,-3.760650214287850623
0.453000000000000236,-3.745149987433184613
0.454000000000000237,-3.729335050466526358
0.455000000000000238,-3.713215520142527648
0.456000000000000238,-3.696801401083648297
0.457000000000000239,-3.680102584038092317
0.458000000000000240,-3.663128844215930879
0.459000000000000241,-3.645889839704972157
0.460000000000000242,-3.628395109967837762
0.461000000000000243,-3.610654074421188575
0.462000000000000244,-3.592676031098156475
0.463000000000000245,-3.574470155394315007
0.464000000000000246,-3.556045498897932866
0.465000000000000246,-3.537410988304458215
0.466000000000000247,-3.518575424415374187
0.467000000000000248,-3.499547481221241263
0.468000000000000249,-3.480335705068605900
0.469000000000000250,-3.460948513910275359
0.470000000000000251,-3.441394196638353442
0.471000000000000252,-3.421680912499209803
0.472000000000000253,-3.401816690589641645
0.473000000000000254,-3.381809429433018099
0.474000000000000254,-3.361666896634491586
0.475000000000000255,-3.341396728613893252
0.476000000000000256,-3.321006430415158750
0.477000000000000257,-3.300503375590790434
0.478000000000000258,-3.279894806159957987
0.479000000000000259,-3.259187832638680504
0.480000000000000260,-3.238389434140537926
0.481000000000000261,-3.217506458546201653
0.482000000000000262,-3.196545622740173176
0.483000000000000262,-3.175513512912972569
0.484000000000000263,-3.154416584926948985
0.485000000000000264,-3.133261164744025162
0.486000000000000265,-3.112053448913472575
0.487000000000000266,-3.090799505117859169
0.488000000000000267,-3.069505272775377769
0.489000000000000268,-3.048176563696640251
0.490000000000000269,-3.026819062794020798
0.491000000000000270,-3.005438328841747886
0.492000000000000270,-2.984039795284759045
0.493000000000000271,-2.962628771094512281
0.494000000000000272,-2.941210441669841913
0.495000000000000273,-2.919789869780966995
0.496000000000000274,-2.898371996554853780
0.497000000000000275,-2.876961642500007521
0.498000000000000276,-2.855563508568948805
0.499000000000000277,-2.834182177256509672
0.500000000000000222,-2.812822113732157625
0.501000000000000334,-2.791487667004623585
0.502000000000000224,-2.770183071117067630
0.503000000000000336,-2.748912446371023499
0.504000000000000226,-2.727679800577548441
0.505000000000000338,-2.706489030333754098
0.506000000000000227,-2.685343922323266685
0.507000000000000339,-2.664248154638853894
0.508000000000000229,-2.643205298125782754
0.509000000000000341,-2.622218817744229380
0.510000000000000231,-2.601292073949454497
0.511000000000000343,-2.580428324087999492
0.512000000000000233,-2.559630723808722141
0.513000000000000345,-2.538902328487071980
0.514000000000000234,-2.518246094661454215
0.515000000000000346,-2.497664881480088361
0.516000000000000236,-2.477161452157326416
0.517000000000000348,-2.456738475437990843
0.518000000000000238,-2.436398527068641240
0.519000000000000350,-2.416144091274457839
0.520000000000000240,-2.395977562240692471
0.521000000000000352,-2.375901245597556333
0.522000000000000242,-2.355917359907410802
0.523000000000000353,-2.336028038153294073
0.524000000000000243,-2.316235329227700923
0.525000000000000355,-2.296541199420717216
0.526000000000000245,-2.276947533906529042
0.527000000000000357,-2.257456138227381448
0.528000000000000247,-2.238068739774198068
0.529000000000000359,-2.218786989262905962
0.530000000000000249,-2.199612462205793317
0.531000000000000361,-2.180546660377010060
0.532000000000000250,-2.161591013271570105
0.533000000000000362,-2.142746879557073214
0.534000000000000252,-2.124015548517502516
0.535000000000000364,-2.105398241488454225
0.536000000000000254,-2.086896113283205345
0.537000000000000366,-2.068510253608916383
0.538000000000000256,-2.050241688472616453
0.539000000000000368,-2.032091381576198064
0.540000000000000258,-2.014060235700157797
0.541000000000000369,-1.996149094075371666
0.542000000000000259,-1.978358741742675786
0.543000000000000371,-1.960689906899647950
0.544000000000000261,-1.943143262234296786
0.545000000000000373,-1.925719426245249055
0.546000000000000263,-1.908418964548100449
0.547000000000000375,-1.891242391167508696
0.548000000000000265,-1.874190169814935247
0.549000000000000377,-1.857262715151460686
0.550000000000000266,-1.840460394035694947
0.551000000000000378,-1.823783526756319828
0.552000000000000268,-1.807232388249172761
0.553000000000000380,-1.790807209298606040
0.554000000000000270,-1.774508177722986080
0.555000000000000382,-1.758335439544069789
0.556000000000000272,-1.742289100140276048
0.557000000000000384,-1.726369225383495465
0.558000000000000274,-1.710575842759575860
0.559000000000000385,-1.694908942472135749
0.560000000000000275,-1.679368478529835951
0.561000000000000387,-1.663954369816880829
0.562000000000000277,-1.648666501146784258
0.563000000000000389,-1.633504724299326583
0.564000000000000279,-1.618468859040685270
0.565000000000000391,-1.603558694126702822
0.566000000000000281,-1.588773988289320593
0.567000000000000393,-1.574114471206143895
0.568000000000000282,-1.559579844453234498
0.569000000000000394,-1.545169782441035533
0.570000000000000284,-1.530883933333612168
0.571000000000000396,-1.516721919951137476
0.572000000000000286,-1.502683340655797339
0.573000000000000398,-1.488767770221041342
0.574000000000000288,-1.474974760684398367
0.575000000000000400,-1.461303842183868440
0.576000000000000290,-1.447754523777979418
0.577000000000000401,-1.434326294249644196
0.578000000000000291,-1.421018622893902350
0.579000000000000403,-1.407830960289660593
0.580000000000000293,-1.394762739055583012
0.581000000000000405,-1.381813374590185939
0.582000000000000295,-1.368982265796385267
0.583000000000000407,-1.356268795790499748
0.584000000000000297,-1.343672332595955865
0.585000000000000409,-1.331192229821791084
0.586000000000000298,-1.318827827326130686
0.587000000000000410,-1.306578451864765178
0.588000000000000300,-1.294443417725030798
0.589000000000000412,-1.282422027345091475
0.590000000000000302,-1.270513571918853835
0.591000000000000414,-1.258717331986664689
0.592000000000000304,-1.247032578011933790
0.593000000000000416,-1.235458570943867462
0.594000000000000306,-1.223994562766541394
0.595000000000000417,-1.212639797034404721
0.596000000000000307,-1.201393509394461656
0.597000000000000419,-1.190254928095277220
0.598000000000000309,-1.179223274483033101
0.599000000000000421,-1.168297763484733132
0.600000000000000311,-1.157477604078866573
0.601000000000000423,-1.146761999753584504
0.602000000000000313,-1.136150148952699501
0.603000000000000425,-1.125641245509569455
0.604000000000000314,-1.115234479069210582
0.605000000000000426,-1.104929035498638523
0.606000000000000316,-1.094724097285813658
0.607000000000000428,-1.084618843927223297
0.608000000000000318,-1.074612452304422039
0.609000000000000430,-1.064704097049585574
0.610000000000000320,-1.054892950900402582
0.611000000000000432,-1.045178185044360886
0.612000000000000322,-1.035558969452720746
0.613000000000000433,-1.026034473204291420
0.614000000000000323,-1.016603864799233925
0.615000000000000435,-1.007266312463059865
0.616000000000000325,-0.998020984441000736
0.617000000000000437,-0.988867049282941557
0.618000000000000327,-0.979803676119122890
0.619000000000000439,-0.970830034926710939
0.620000000000000329,-0.961945296787520499
0.621000000000000441,-0.953148634136987916
0.622000000000000330,-0.944439221004596652
0.623000000000000442,-0.935816233245936102
0.624000000000000332,-0.927278848766549202
0.625000000000000444,-0.918826247737752011
0.626000000000000334,-0.910457612804595917
0.627000000000000446,-0.902172129286119229
0.628000000000000336,-0.893968985368075009
0.629000000000000448,-0.885847372288294799
0.630000000000000338,-0.877806484514842444
0.631000000000000449,-0.869845519917121224
0.632000000000000339,-0.861963679930092264
0.633000000000000451,-0.854160169711760231
0.634000000000000341,-0.846434198294081286
0.635000000000000453,-0.838784978727451835
0.636000000000000343,-0.831211728218901991
0.637000000000000455,-0.823713668264176468
0.638000000000000345,-0.816290024773843492
0.639000000000000457,-0.808940028193521732
0.640000000000000346,-0.801662913618471529
0.641000000000000458,-0.794457920902567949
0.642000000000000348,-0.787324294761913124
0.643000000000000460,-0.780261284873114302
0.644000000000000350,-0.773268145966450771
0.645000000000000462,-0.766344137913995804
0.646000000000000352,-0.759488525812876514
0.647000000000000464,-0.752700580063732638
0.648000000000000353,-0.745979576444601111
0.649000000000000465,-0.739324796180214960
0.650000000000000355,-0.732735526006981219
0.651000000000000467,-0.726211058233624862
0.652000000000000357,-0.719750690797734682
0.653000000000000469,-0.713353727318213338
0.654000000000000359,-0.707019477143859709
0.655000000000000471,-0.700747255398074809
0.656000000000000361,-0.694536383019917714
0.657000000000000473,-0.688386186801509203
0.658000000000000362,-0.682295999421989596
0.659000000000000474,-0.676265159478040889
0.660000000000000364,-0.670293011511160275
0.661000000000000476,-0.664378906031700800
0.662000000000000366,-0.658522199539848585
0.663000000000000478,-0.652722254543588898
0.664000000000000368,-0.646978439573762332
