# ZnO10m10NB_CS-28994-AC
# h[nm],U(h)[kJ/mol]
0.200000000000000011,43.338333915699038812
0.201000000000000012,42.484259533031988099
0.202000000000000013,41.713880107987066026
0.203000000000000014,40.977438088398429272
0.204000000000000015,40.249601137695904640
0.205000000000000016,39.519713690834336717
0.206000000000000016,38.785378152365524329
0.207000000000000017,38.048356339728918840
0.208000000000000018,37.312060885271719712
0.209000000000000019,36.580113539887882723
0.210000000000000020,35.855600193288175603
0.211000000000000021,35.140764368643985449
0.212000000000000022,34.436962221803270268
0.213000000000000023,33.744760490112923890
0.214000000000000024,33.064100321152338324
0.215000000000000024,32.394478947255379353
0.216000000000000025,31.735121127629167148
0.217000000000000026,31.085125678321549714
0.218000000000000027,30.443581127751372151
0.219000000000000028,29.809649958746980758
0.220000000000000029,29.182624043834920258
0.221000000000000030,28.561955487571644596
0.222000000000000031,27.947267688776566530
0.223000000000000032,27.338351402878807050
0.224000000000000032,26.735150182558072629
0.225000000000000033,26.137738982433205592
0.226000000000000034,25.546299049393102365
0.227000000000000035,24.961091559795299588
0.228000000000000036,24.382431853315342352
0.229000000000000037,23.810665574866231253
0.230000000000000038,23.246147580741684635
0.231000000000000039,22.689224093809155391
0.232000000000000040,22.140218300372318083
0.233000000000000040,21.599419360232737120
0.234000000000000041,21.067074642004747886
0.235000000000000042,20.543384887998946908
0.236000000000000043,20.028501947451836429
0.237000000000000044,19.522528684773785557
0.238000000000000045,19.025520663034040325
0.239000000000000046,18.537489215400377418
0.240000000000000047,18.058405543070790600
0.241000000000000048,17.588205512763313010
0.242000000000000048,17.126794866370527615
0.243000000000000049,16.674054597056787941
0.244000000000000050,16.229846287697675677
0.245000000000000051,15.794017247538207016
0.246000000000000052,15.366405320177189964
0.247000000000000053,14.946843269757801309
0.248000000000000054,14.535162682162262371
0.249000000000000055,14.131197343917303755
0.250000000000000056,13.734786083443760063
0.251000000000000056,13.345775077388731589
0.252000000000000057,12.964019639314006582
0.253000000000000058,12.589385519291910853
0.254000000000000059,12.221749751321912214
0.255000000000000060,11.861001091287430853
0.256000000000000061,11.507040091775641244
0.257000000000000062,11.159778861827311047
0.258000000000000063,10.819140559889069308
0.259000000000000064,10.485058667203679406
0.260000000000000064,10.157476086861024100
0.261000000000000065,9.836344110982429001
0.262000000000000066,9.521621295228650084
0.263000000000000067,9.213272276189144350
0.264000000000000068,8.911266563375255245
0.265000000000000069,8.615577333630294987
0.266000000000000070,8.326180251887397077
0.267000000000000071,8.043052338432598702
0.268000000000000071,7.766170899230134594
0.269000000000000072,7.495512532485643753
0.270000000000000073,7.231052221494863375
0.271000000000000074,6.972762520971443223
0.272000000000000075,6.720612841479292499
0.273000000000000076,6.474568834315952870
0.274000000000000077,6.234591877200296395
0.275000000000000078,6.000638659401895225
0.276000000000000079,5.772660863498626505
0.277000000000000079,5.550604939746823341
0.278000000000000080,5.334411968078660138
0.279000000000000081,5.124017601983568149
0.280000000000000082,4.919352087966409215
0.281000000000000083,4.720340353883909934
0.282000000000000084,4.526902159223463507
0.283000000000000085,4.338952300285821018
0.284000000000000086,4.156400863246600963
0.285000000000000087,3.979153518184882721
0.286000000000000087,3.807111847363080503
0.287000000000000088,3.640173701306865350
0.288000000000000089,3.478233576553264150
0.289000000000000090,3.321183009296544419
0.290000000000000091,3.168910979554985019
0.291000000000000092,3.021304320895842999
0.292000000000000093,2.878248131183826608
0.293000000000000094,2.739626180251204079
0.294000000000000095,2.605321310819899594
0.295000000000000095,2.475215829431162806
0.296000000000000096,2.349191884553090581
0.297000000000000097,2.227131829435657462
0.298000000000000098,2.108918567664796573
0.299000000000000099,1.994435879728446492
0.300000000000000100,1.883568729247355744
0.301000000000000101,1.776203547839698249
0.302000000000000102,1.672228497881526055
0.303000000000000103,1.571533712693175655
0.304000000000000103,1.474011513926403838
0.305000000000000104,1.379556606147125386
0.306000000000000105,1.288066248805703973
0.307000000000000106,1.199440405961206491
0.308000000000000107,1.113581874278542605
0.309000000000000108,1.030396389949518321
0.310000000000000109,0.949792715301016721
0.311000000000000110,0.871682705947785075
0.312000000000000111,0.795981359423766022
0.313000000000000111,0.722606846287176863
0.314000000000000112,0.651480524740565059
0.315000000000000113,0.582526939840073310
0.316000000000000114,0.515673808388739330
0.317000000000000115,0.450851990618464982
0.318000000000000116,0.387995449765098310
0.319000000000000117,0.327041200632255447
0.320000000000000118,0.267929248223026051
0.321000000000000119,0.210602517495382807
0.322000000000000119,0.155006775268275915
0.323000000000000120,0.101090545271545040
0.324000000000000121,0.048805017294757794
0.325000000000000122,-0.001896048651035542
0.326000000000000123,-0.051056422288524139
0.327000000000000124,-0.098717506322100593
0.328000000000000125,-0.144918442201694475
0.329000000000000126,-0.189696217673688883
0.330000000000000127,-0.233085775438914899
0.331000000000000127,-0.275120122286364732
0.332000000000000128,-0.315830438119658163
0.333000000000000129,-0.355246184341058091
0.334000000000000130,-0.393395211104569875
0.335000000000000131,-0.430303862995463249
0.336000000000000132,-0.465997082737638735
0.337000000000000133,-0.500498512573186338
0.338000000000000134,-0.533830592999521514
0.339000000000000135,-0.566014658588696706
0.340000000000000135,-0.597071030651093237
0.341000000000000136,-0.627019106541053417
0.342000000000000137,-0.655877445435660400
0.343000000000000138,-0.683663850449330424
0.344000000000000139,-0.710395446976566314
0.345000000000000140,-0.736088757182685072
0.346000000000000141,-0.760759770587998263
0.347000000000000142,-0.784424010714561692
0.348000000000000143,-0.807096597786480352
0.349000000000000143,-0.828792307494597535
0.350000000000000144,-0.849525625854694710
0.351000000000000145,-0.869310800204658340
0.352000000000000146,-0.888161886401002243
0.353000000000000147,-0.906092792288263893
0.354000000000000148,-0.923117317526594983
0.355000000000000149,-0.939249189873111900
0.356000000000000150,-0.954502098021552614
0.357000000000000151,-0.968889721112435764
0.358000000000000151,-0.982425755032400261
0.359000000000000152,-0.995123935626727296
0.360000000000000153,-1.006998058953421538
0.361000000000000154,-1.018061998710431570
0.362000000000000155,-1.028329720970146299
0.363000000000000156,-1.037815296356808137
0.364000000000000157,-1.046532909803305378
0.365000000000000158,-1.054496868024062284
0.366000000000000159,-1.061721604840014210
0.367000000000000159,-1.068221684490793466
0.368000000000000160,-1.074011803067493886
0.369000000000000161,-1.079106788197367717
0.370000000000000162,-1.083521597109310175
0.371000000000000163,-1.087271313206155110
0.372000000000000164,-1.090371141266567090
0.373000000000000165,-1.092836401395955948
0.374000000000000166,-1.094682521842106349
0.375000000000000167,-1.095925030787282983
0.376000000000000167,-1.096579547224649787
0.377000000000000168,-1.096661771022540144
0.378000000000000169,-1.096187472275904407
0.379000000000000170,-1.095172480039894536
0.380000000000000171,-1.093632670536155871
0.381000000000000172,-1.091583954917954680
0.382000000000000173,-1.089042266675853687
0.383000000000000174,-1.086023548761286595
0.384000000000000175,-1.082543740500923946
0.385000000000000175,-1.078618764370466554
0.386000000000000176,-1.074264512692266083
0.387000000000000177,-1.069496834316864708
0.388000000000000178,-1.064331521344649145
0.389000000000000179,-1.058784295939617648
0.390000000000000180,-1.052870797283509408
0.391000000000000181,-1.046606568714707031
0.392000000000000182,-1.040007045092666171
0.393000000000000183,-1.033087540425090101
0.394000000000000183,-1.025863235791669270
0.395000000000000184,-1.018349167594923887
0.396000000000000185,-1.010560216165505620
0.397000000000000186,-1.002511094746336484
0.398000000000000187,-0.994216338877087602
0.399000000000000188,-0.985690296197710425
0.400000000000000189,-0.976947116687149175
0.401000000000000190,-0.968000743350889592
0.402000000000000191,-0.958864903368649046
0.403000000000000191,-0.949553099711251236
0.404000000000000192,-0.940078603233720167
0.405000000000000193,-0.930454445249563000
0.406000000000000194,-0.920693410589466965
0.407000000000000195,-0.910808031145832309
0.408000000000000196,-0.900810579902997732
0.409000000000000197,-0.890713065451494423
0.410000000000000198,-0.880527226983324085
0.411000000000000199,-0.870264529763890904
0.412000000000000199,-0.859936161075133598
0.413000000000000200,-0.849553026623253382
0.414000000000000201,-0.839125747403493660
0.415000000000000202,-0.828664657013469252
0.416000000000000203,-0.818179799405821973
0.417000000000000204,-0.807680927070157373
0.418000000000000205,-0.797177499633642705
0.419000000000000206,-0.786678682869036749
0.420000000000000207,-0.776193348098389801
0.421000000000000207,-0.765730071980337934
0.422000000000000208,-0.755297136668338864
0.423000000000000209,-0.744902530327122725
0.424000000000000210,-0.734553947994191825
0.425000000000000211,-0.724258792773074700
0.426000000000000212,-0.714024177344938060
0.427000000000000213,-0.703856925784928533
0.428000000000000214,-0.693763575669716581
0.429000000000000214,-0.683750380462546881
0.430000000000000215,-0.673823312162227239
0.431000000000000216,-0.663988064202500450
0.432000000000000217,-0.654250054588322638
0.433000000000000218,-0.644614429255698562
0.434000000000000219,-0.635086065641894848
0.435000000000000220,-0.625669576452990817
0.436000000000000221,-0.616369313615922065
0.437000000000000222,-0.607189372402403782
0.438000000000000222,-0.598133595712347033
0.439000000000000223,-0.589205578504641725
0.440000000000000224,-0.580408672363405764
0.441000000000000225,-0.571745990188122222
0.442000000000000226,-0.563220410996386756
0.443000000000000227,-0.554834584828202138
0.444000000000000228,-0.546590937741190608
0.445000000000000229,-0.538491676886300619
0.446000000000000230,-0.530538795653961226
0.447000000000000230,-0.522734078880963460
0.448000000000000231,-0.515079108108663641
0.449000000000000232,-0.507575266883417586
0.450000000000000233,-0.500223746090546428
0.451000000000000234,-0.493025549313397704
0.452000000000000235,-0.485981498209461626
0.453000000000000236,-0.479092237895762885
0.454000000000000237,-0.472358242336189782
0.455000000000000238,-0.465779819723602384
0.456000000000000238,-0.459357117850028474
0.457000000000000239,-0.453090129458478152
0.458000000000000240,-0.446978697570279304
0.459000000000000241,-0.441022520782097582
0.460000000000000242,-0.435221158527192842
0.461000000000000243,-0.429574036295646777
0.462000000000000244,-0.424080450808735965
0.463000000000000245,-0.418739575142731746
0.464000000000000246,-0.413550463797906498
0.465000000000000246,-0.408512057708601273
0.466000000000000247,-0.403623189190601916
0.467000000000000248,-0.398882586822286667
0.468000000000000249,-0.394288880256277730
0.469000000000000250,-0.389840604958553327
0.470000000000000251,-0.385536206872250875
0.471000000000000252,-0.381374047003566308
0.472000000000000253,-0.377352405927490975
0.473000000000000254,-0.373469488211174205
0.474000000000000254,-0.369723426753091444
0.475000000000000255,-0.366112287036252926
0.476000000000000256,-0.362634071293982951
0.477000000000000257,-0.359286722586924123
0.478000000000000258,-0.356068128790133387
0.479000000000000259,-0.352976126489297271
0.480000000000000260,-0.350008504785264241
0.481000000000000261,-0.347163009006240586
0.482000000000000262,-0.344437344327160333
0.483000000000000262,-0.341829179295886298
0.484000000000000263,-0.339336149266004528
0.485000000000000264,-0.336955859736158214
0.486000000000000265,-0.334685889595956632
0.487000000000000266,-0.332523794278600238
0.488000000000000267,-0.330467108820522659
0.489000000000000268,-0.328513350828423201
0.490000000000000269,-0.326660023354150453
0.491000000000000270,-0.324904617678048013
0.492000000000000270,-0.323244616001380769
0.493000000000000271,-0.321677494048641210
0.494000000000000272,-0.320200723580513436
0.495000000000000273,-0.318811774818428539
0.496000000000000274,-0.317508118781667736
0.497000000000000275,-0.316287229538031678
0.498000000000000276,-0.315146586369198511
0.499000000000000277,-0.314083675851883737
0.500000000000000222,-0.313095993856014887
0.501000000000000334,-0.312181047461159378
0.502000000000000224,-0.311336356792492164
0.503000000000000336,-0.310559456777616039
0.504000000000000226,-0.309847898825606038
0.505000000000000338,-0.309199252429651239
0.506000000000000227,-0.308611106694725745
0.507000000000000339,-0.308081071791716954
0.508000000000000229,-0.307606780339470365
0.509000000000000341,-0.307185888716243194
0.510000000000000231,-0.306816078302064421
0.511000000000000343,-0.306495056653487530
0.512000000000000233,-0.306220558612273652
0.513000000000000345,-0.305990347349524794
0.514000000000000234,-0.305802215346817896
0.515000000000000346,-0.305653985315827714
0.516000000000000236,-0.305543511058024797
0.517000000000000348,-0.305468678265959415
0.518000000000000238,-0.305427405267663987
0.519000000000000350,-0.305417643715709008
0.520000000000000240,-0.305437379222417538
0.521000000000000352,-0.305484631942787688
0.522000000000000242,-0.305557457106570507
0.523000000000000353,-0.305653945501065227
0.524000000000000243,-0.305772223906037532
0.525000000000000355,-0.305910455482304000
0.526000000000000245,-0.306066840115373329
0.527000000000000357,-0.306239614715622888
0.528000000000000247,-0.306427053476410971
0.529000000000000359,-0.306627468091537181
0.530000000000000249,-0.306839207933431779
0.531000000000000361,-0.307060660193449686
0.532000000000000250,-0.307290249985598618
0.533000000000000362,-0.307526440415058555
0.534000000000000252,-0.307767732612741096
0.535000000000000364,-0.308012665737257940
0.536000000000000254,-0.308259816945475662
0.537000000000000366,-0.308507801332945031
0.538000000000000256,-0.308755271845416790
0.539000000000000368,-0.309000919162621401
0.540000000000000258,-0.309243471555502469
0.541000000000000369,-0.309481694718036660
0.542000000000000259,-0.309714391574770320
0.543000000000000371,-0.309940402065174037
0.544000000000000261,-0.310158602905884262
0.545000000000000373,-0.310367907331895343
0.546000000000000263,-0.310567264817714628
0.547000000000000375,-0.310755660779490184
0.548000000000000265,-0.310932116259107771
0.549000000000000377,-0.311095687591177450
0.550000000000000266,-0.311245466053874709
0.551000000000000378,-0.311380577504530298
0.552000000000000268,-0.311500182000842785
0.553000000000000380,-0.311603473408599285
0.554000000000000270,-0.311689678996720954
0.555000000000000382,-0.311758059020450007
0.556000000000000272,-0.311807906293490089
0.557000000000000384,-0.311838545749825058
0.558000000000000274,-0.311849333996024103
0.559000000000000385,-0.311839658854690616
0.560000000000000275,-0.311808938899809929
0.561000000000000387,-0.311756622984651122
0.562000000000000277,-0.311682189762871875
0.563000000000000389,-0.311585147203501778
0.564000000000000279,-0.311465032100374295
0.565000000000000391,-0.311321409576647778
0.566000000000000281,-0.311153872584951141
0.567000000000000393,-0.310962041403746725
0.568000000000000282,-0.310745563130428004
0.569000000000000394,-0.310504111171670316
0.570000000000000284,-0.310237384731537558
0.571000000000000396,-0.309945108297832617
0.572000000000000286,-0.309627031127149621
0.573000000000000398,-0.309282926729057772
0.574000000000000288,-0.308912592349869675
0.575000000000000400,-0.308515848456400177
0.576000000000000290,-0.308092538220083978
0.577000000000000401,-0.307642527001873611
0.578000000000000291,-0.307165701838238103
0.579000000000000403,-0.306661970928638894
0.580000000000000293,-0.306131263124796438
0.581000000000000405,-0.305573527422076219
0.582000000000000295,-0.304988732453286060
0.583000000000000407,-0.304376865985188316
0.584000000000000297,-0.303737934417972699
0.585000000000000409,-0.303071962287991492
0.586000000000000298,-0.302378991773966377
0.587000000000000410,-0.301659082206929996
0.588000000000000300,-0.300912309584108195
0.589000000000000412,-0.300138766086962439
0.590000000000000302,-0.299338559603583187
0.591000000000000414,-0.298511813255646463
0.592000000000000304,-0.297658664930073091
0.593000000000000416,-0.296779266815581366
0.594000000000000306,-0.295873784944293283
0.595000000000000417,-0.294942398738523404
0.596000000000000307,-0.293985300562889351
0.597000000000000419,-0.293002695281884828
0.598000000000000309,-0.291994799823022733
0.599000000000000421,-0.290961842745641630
0.600000000000000311,-0.289904063815512703
0.601000000000000423,-0.288821713585299733
0.602000000000000313,-0.287715052980982877
0.603000000000000425,-0.286584352894301009
0.604000000000000314,-0.285429893781310617
0.605000000000000426,-0.284251965267080631
0.606000000000000316,-0.283050865756619696
0.607000000000000428,-0.281826902052047634
0.608000000000000318,-0.280580388976086392
0.609000000000000430,-0.279311649001867779
0.610000000000000320,-0.278021011889121594
0.611000000000000432,-0.276708814326740327
0.612000000000000322,-0.275375399581754221
0.613000000000000433,-0.274021117154720439
0.614000000000000323,-0.272646322441538358
0.615000000000000435,-0.271251376401692279
0.616000000000000325,-0.269836645232906958
0.617000000000000437,-0.268402500052229764
0.618000000000000327,-0.266949316583516782
0.619000000000000439,-0.265477474851295248
0.620000000000000329,-0.263987358881006662
0.621000000000000441,-0.262479356405592501
0.622000000000000330,-0.260953858578394926
0.623000000000000442,-0.259411259692350016
0.624000000000000332,-0.257851956905428503
0.625000000000000444,-0.256276349972302975
0.626000000000000334,-0.254684840982185134
0.627000000000000446,-0.253077834102803600
0.628000000000000336,-0.251455735330467722
0.629000000000000448,-0.249818952246179282
0.630000000000000338,-0.248167893777730603
0.631000000000000449,-0.246502969967751728
0.632000000000000339,-0.244824591747632742
0.633000000000000451,-0.243133170717288127
0.634000000000000341,-0.241429118930680808
0.635000000000000453,-0.239712848687073654
0.636000000000000343,-0.237984772327913013
0.637000000000000455,-0.236245302039317956
0.638000000000000345,-0.234494849660083882
0.639000000000000457,-0.232733826495141433
0.640000000000000346,-0.230962643134416279
0.641000000000000458,-0.229181709277002099
0.642000000000000348,-0.227391433560597711
0.643000000000000460,-0.225592223396119756
0.644000000000000350,-0.223784484807437151
0.645000000000000462,-0.221968622276142863
0.646000000000000352,-0.220145038591300801
0.647000000000000464,-0.218314134704083951
0.648000000000000353,-0.216476309587252530
0.649000000000000465,-0.214631960099362529
0.650000000000000355,-0.212781480853674099
0.651000000000000467,-0.210925264091642362
0.652000000000000357,-0.209063699560960797
0.653000000000000469,-0.207197174398033784
0.654000000000000359,-0.205326073014853894
0.655000000000000471,-0.203450776990163895
0.656000000000000361,-0.201571664964865727
0.657000000000000473,-0.199689112541570513
0.658000000000000362,-0.197803492188244251
0.659000000000000474,-0.195915173145847360
0.660000000000000364,-0.194024521339918765
0.661000000000000476,-0.192131899296007991
0.662000000000000366,-0.190237666058899357
0.663000000000000478,-0.188342177115544018
0.664000000000000368,-0.186445784321631003
