# ZnO10m10NB_CS-8373112-AC
# h[nm],U(h)[kJ/mol]
0.149999999999999994,94.342955425260242919
0.150999999999999995,92.860396580157797075
0.151999999999999996,91.426498744196493362
0.152999999999999997,90.027247620799627725
0.153999999999999998,88.650883503858906920
0.154999999999999999,87.290115104133434443
0.156000000000000000,85.941840874785029314
0.157000000000000001,84.605944234515021662
0.158000000000000002,83.283964258229119082
0.159000000000000002,81.977998536283948283
0.160000000000000003,80.689949646977154885
0.161000000000000004,79.421102605716868084
0.162000000000000005,78.171967437832478254
0.163000000000000006,76.942307045827121215
0.164000000000000007,75.731276444455559727
0.165000000000000008,74.537613784154217456
0.166000000000000009,73.359839969399075699
0.167000000000000010,72.196438809872049092
0.168000000000000010,71.046002087682410320
0.169000000000000011,69.907333313896032223
0.170000000000000012,68.779510472991006509
0.171000000000000013,67.661912160493898227
0.172000000000000014,66.554213730517716385
0.173000000000000015,65.456360890719025747
0.174000000000000016,64.368528051025279524
0.175000000000000017,63.291068005324561341
0.176000000000000018,62.224458475153326731
0.177000000000000018,61.169249869721326718
0.178000000000000019,60.126017453289776427
0.179000000000000020,59.095320045090055316
0.180000000000000021,58.077666456894668556
0.181000000000000022,57.073490119721739688
0.182000000000000023,56.083131765638214006
0.183000000000000024,55.106829602553567327
0.184000000000000025,54.144716131373307633
0.185000000000000026,53.196820584527529263
0.186000000000000026,52.263075890440632065
0.187000000000000027,51.343329068565324746
0.188000000000000028,50.437354014688608572
0.189000000000000029,49.544865729352132178
0.190000000000000030,48.665535159146998012
0.191000000000000031,47.799003949777905120
0.192000000000000032,46.944898542094641414
0.193000000000000033,46.102843170973528686
0.194000000000000034,45.272471447167006886
0.195000000000000034,44.453436310829616218
0.196000000000000035,43.645418240514977981
0.197000000000000036,42.848131682213292493
0.198000000000000037,42.061329729457803239
0.199000000000000038,41.284807138256283565
0.200000000000000039,40.518401800591746564
0.201000000000000040,39.761994828736035856
0.202000000000000041,39.015509421024880510
0.203000000000000042,38.278908689496645934
0.204000000000000042,37.552192632326352850
0.205000000000000043,36.835394430649486708
0.206000000000000044,36.128576241424099180
0.207000000000000045,35.431824646562773751
0.208000000000000046,34.745245904678384363
0.209000000000000047,34.068961136301432191
0.210000000000000048,33.403101557071671834
0.211000000000000049,32.747803856798036293
0.212000000000000050,32.103205805900827841
0.213000000000000050,31.469442154994084149
0.214000000000000051,30.846640878515593442
0.215000000000000052,30.234919799582137045
0.216000000000000053,29.634383620773583345
0.217000000000000054,29.045121374410211246
0.218000000000000055,28.467204296114619666
0.219000000000000056,27.900684117032206188
0.220000000000000057,27.345591762980557604
0.221000000000000058,26.801936442949294559
0.222000000000000058,26.269705104688359398
0.223000000000000059,25.748862231520519117
0.224000000000000060,25.239349951885742485
0.225000000000000061,24.741088431371967005
0.226000000000000062,24.253976516003046271
0.227000000000000063,23.777892595239087825
0.228000000000000064,23.312695653400911766
0.229000000000000065,22.858226478963590722
0.230000000000000066,22.414309002292817752
0.231000000000000066,21.980751733838559403
0.232000000000000067,21.557349276485584966
0.233000000000000068,21.143883887623406537
0.234000000000000069,20.740127068483154460
0.235000000000000070,20.345841160346456178
0.236000000000000071,19.960780929318346466
0.237000000000000072,19.584695123435857056
0.238000000000000073,19.217327987926296373
0.239000000000000073,18.858420726409779178
0.240000000000000074,18.507712897736656288
0.241000000000000075,18.164943739950377477
0.242000000000000076,17.829853414554595048
0.243000000000000077,17.502184165834343332
0.244000000000000078,17.181681391427979122
0.245000000000000079,16.868094621668046074
0.246000000000000080,16.561178406404152952
0.247000000000000081,16.260693109090571085
0.248000000000000081,15.966405608869797206
0.249000000000000082,15.678089912213774682
0.250000000000000111,15.395527676402631201
0.251000000000000112,15.118508647733028383
0.252000000000000113,14.846831017859576818
0.253000000000000114,14.580301702092771876
0.254000000000000115,14.318736543809169603
0.255000000000000115,14.061960449384532268
0.256000000000000116,13.809807458243065881
0.257000000000000117,13.562120752733852314
0.258000000000000118,13.318752612606001406
0.259000000000000119,13.079564318862656691
0.260000000000000120,12.844426011737516191
0.261000000000000121,12.613216507462109206
0.262000000000000122,12.385823078382603768
0.263000000000000123,12.162141200847225164
0.264000000000000123,11.942074275123365723
0.265000000000000124,11.725533321422924260
0.266000000000000125,11.512436655917541728
0.267000000000000126,11.302709550417741724
0.268000000000000127,11.096283879173146403
0.269000000000000128,10.893097756029257894
0.270000000000000129,10.693095164951355258
0.271000000000000130,10.496225586700798971
0.272000000000000131,10.302443624225169572
0.273000000000000131,10.111708629103189239
0.274000000000000132,9.923984331169414475
0.275000000000000133,9.739238473234003379
0.276000000000000134,9.557442452609830497
0.277000000000000135,9.378570970964769771
0.278000000000000136,9.202601693830228413
0.279000000000000137,9.029514920920078680
0.280000000000000138,8.859293268246462461
0.281000000000000139,8.691921362860787426
0.282000000000000139,8.527385550900302036
0.283000000000000140,8.365673619482214107
0.284000000000000141,8.206774532859167692
0.285000000000000142,8.050678183131044108
0.286000000000000143,7.897375155698917126
0.287000000000000144,7.746856509547424885
0.288000000000000145,7.599113572350427503
0.289000000000000146,7.454137750313385880
0.290000000000000147,7.311920352591272376
0.291000000000000147,7.172452430055597183
0.292000000000000148,7.035724628125260338
0.293000000000000149,6.901727053325170225
0.294000000000000150,6.770449153191857583
0.295000000000000151,6.641879609107317783
0.296000000000000152,6.516006241610151406
0.297000000000000153,6.392815927706381629
0.298000000000000154,6.272294529680843667
0.299000000000000155,6.154426834893192755
0.300000000000000155,6.039196506030205747
0.301000000000000156,5.926586041277650985
0.302000000000000157,5.816576743870032651
0.303000000000000158,5.709148700475288329
0.304000000000000159,5.604280767872776181
0.305000000000000160,5.501950567387261515
0.306000000000000161,5.402134486548074044
0.307000000000000162,5.304807687451288167
0.308000000000000163,5.209944121313420773
0.309000000000000163,5.117516548717270020
0.310000000000000164,5.027496565064025980
0.311000000000000165,4.939854630760653897
0.312000000000000166,4.854560105687218297
0.313000000000000167,4.771581287505394009
0.314000000000000168,4.690885453386687054
0.315000000000000169,4.612438904756484881
0.316000000000000170,4.536207014668228510
0.317000000000000171,4.462154277440208539
0.318000000000000171,4.390244360206037477
0.319000000000000172,4.320440156048063862
0.320000000000000173,4.252703838401589387
0.321000000000000174,4.186996916435778537
0.322000000000000175,4.123280291135146491
0.323000000000000176,4.061514311823203549
0.324000000000000177,4.001658832887083683
0.325000000000000178,3.943673270478940562
0.326000000000000179,3.887516658986245766
0.327000000000000179,3.833147707079196387
0.328000000000000180,3.780524853158885090
0.329000000000000181,3.729606320044635659
0.330000000000000182,3.680350168753592222
0.331000000000000183,3.632714351239063610
0.332000000000000184,3.586656761967675688
0.333000000000000185,3.542135288227823420
0.334000000000000186,3.499107859073988802
0.335000000000000187,3.457532492823009562
0.336000000000000187,3.417367343029157123
0.337000000000000188,3.378570742875310007
0.338000000000000189,3.341101247927074525
0.339000000000000190,3.304917677205950532
0.340000000000000191,3.269979152546296230
0.341000000000000192,3.236245136208780959
0.342000000000000193,3.203675466730699473
0.343000000000000194,3.172230393000404547
0.344000000000000195,3.141870606549907574
0.345000000000000195,3.112557272065429093
0.346000000000000196,3.084252056121565833
0.347000000000000197,3.056917154149799920
0.348000000000000198,3.030515315656761910
0.349000000000000199,3.005009867712109095
0.350000000000000200,2.980364736729684161
0.351000000000000201,2.956544468569313189
0.352000000000000202,2.933514246989757712
0.353000000000000203,2.911239910486181248
0.354000000000000203,2.889687967548107750
0.355000000000000204,2.868825610376110724
0.356000000000000205,2.848620727097391558
0.357000000000000206,2.829041912522080260
0.358000000000000207,2.810058477483723394
0.359000000000000208,2.791640456808376136
0.360000000000000209,2.773758615957873097
0.361000000000000210,2.756384456393626614
0.362000000000000210,2.739490219707787499
0.363000000000000211,2.723048890569118363
0.364000000000000212,2.707034198531062419
0.365000000000000213,2.691420618749678528
0.366000000000000214,2.676183371658964916
0.367000000000000215,2.661298421650949209
0.368000000000000216,2.646742474807551204
0.369000000000000217,2.632492975730893914
0.370000000000000218,2.618528103518098504
0.371000000000000218,2.604826766926099602
0.372000000000000219,2.591368598771188303
0.373000000000000220,2.578133949607333886
0.374000000000000221,2.565103880726395058
0.375000000000000222,2.552260156522589973
0.376000000000000223,2.539585236262371204
0.377000000000000224,2.527062265300187960
0.378000000000000225,2.514675065779326424
0.379000000000000226,2.502408126856105586
0.380000000000000226,2.490246594484504250
0.381000000000000227,2.478176260797325448
0.382000000000000228,2.466183553118702410
0.383000000000000229,2.454255522641751064
0.384000000000000230,2.442379832803978967
0.385000000000000231,2.430544747391818472
0.386000000000000232,2.418739118404682920
0.387000000000000233,2.406952373707575532
0.388000000000000234,2.395174504500328094
0.389000000000000234,2.383396052630238682
0.390000000000000235,2.371608097773884705
0.391000000000000236,2.359802244512660518
0.392000000000000237,2.347970609325574998
0.393000000000000238,2.336105807521666300
0.394000000000000239,2.324200940133434479
0.395000000000000240,2.312249580791514436
0.396000000000000241,2.300245762599893773
0.397000000000000242,2.288183965029914724
0.398000000000000242,2.276059100850303718
0.399000000000000243,2.263866503109578154
0.400000000000000244,2.251601912186186105
0.401000000000000245,2.239261462920781209
0.402000000000000246,2.226841671844329795
0.403000000000000247,2.214339424514629950
0.404000000000000248,2.201751962973218291
0.405000000000000249,2.189076873333676510
0.406000000000000250,2.176312073511675216
0.407000000000000250,2.163455801106242582
0.408000000000000251,2.150506601441109389
0.409000000000000252,2.137463315774190242
0.410000000000000253,2.124325069682667877
0.411000000000000254,2.111091261630411609
0.412000000000000255,2.097761551723938744
0.413000000000000256,2.084335850662383027
0.414000000000000257,2.070814308886550048
0.415000000000000258,2.057197305931362408
0.416000000000000258,2.043485439985704755
0.417000000000000259,2.029679517662961175
0.418000000000000260,2.015780543985222550
0.419000000000000261,2.001789712583573966
0.420000000000000262,1.987708396116504961
0.421000000000000263,1.973538136907999174
0.422000000000000264,1.959280637806575909
0.423000000000000265,1.944937753266059888
0.424000000000000266,1.930511480648552380
0.425000000000000266,1.916003951749809087
0.426000000000000267,1.901417424546784529
0.427000000000000268,1.886754275166903527
0.428000000000000269,1.872016990078321896
0.429000000000000270,1.857208158500121886
0.430000000000000271,1.842330465031234210
0.431000000000000272,1.827386682496541015
0.432000000000000273,1.812379665008502005
0.433000000000000274,1.797312341242361056
0.434000000000000274,1.782187707922845643
0.435000000000000275,1.767008823520105576
0.436000000000000276,1.751778802152450298
0.437000000000000277,1.736500807693295290
0.438000000000000278,1.721178048079648359
0.439000000000000279,1.705813769819248593
0.440000000000000280,1.690411252693444055
0.441000000000000281,1.674973804652766685
0.442000000000000282,1.659504756902001166
0.443000000000000282,1.644007459171622942
0.444000000000000283,1.628485275172201430
0.445000000000000284,1.612941578228483053
0.446000000000000285,1.597379747089719748
0.447000000000000286,1.581803161912725519
0.448000000000000287,1.566215200414244446
0.449000000000000288,1.550619234189003715
0.450000000000000289,1.535018625189942254
0.451000000000000290,1.519416722367011863
0.452000000000000290,1.503816858460928385
0.453000000000000291,1.488222346948304464
0.454000000000000292,1.472636479134520560
0.455000000000000293,1.457062521390737331
0.456000000000000294,1.441503712531448489
0.457000000000000295,1.425963261328970555
0.458000000000000296,1.410444344161318364
0.459000000000000297,1.394950102789887181
0.460000000000000298,1.379483642263412690
0.461000000000000298,1.364048028944730095
0.462000000000000299,1.348646288656807135
0.463000000000000300,1.333281404944667070
0.464000000000000301,1.317956317449740400
0.465000000000000302,1.302673920393318641
0.466000000000000303,1.287437061165756624
0.467000000000000304,1.272248539018143720
0.468000000000000305,1.257111103853211231
0.469000000000000306,1.242027455112277190
0.470000000000000306,1.227000240755059979
0.471000000000000307,1.212032056329306329
0.472000000000000308,1.197125444127153049
0.473000000000000309,1.182282892425224663
0.474000000000000310,1.167506834805563276
0.475000000000000311,1.152799649554440808
0.476000000000000312,1.138163659136288031
0.477000000000000313,1.123601129739888238
0.478000000000000314,1.109114270894186349
0.479000000000000314,1.094705235150969624
0.480000000000000315,1.080376117831876259
0.481000000000000316,1.066128956837117281
0.482000000000000317,1.051965732513460372
0.483000000000000318,1.037888367578995608
0.484000000000000319,1.023898727102319661
0.485000000000000320,1.009998618533801240
0.486000000000000321,0.996189791786647461
0.487000000000000322,0.982473939365551940
0.488000000000000322,0.968852696540793756
0.489000000000000323,0.955327641565625330
0.490000000000000324,0.941900295934942067
0.491000000000000325,0.928572124683212152
0.492000000000000326,0.915344536719739921
0.493000000000000327,0.902218885199348897
0.494000000000000328,0.889196467926669287
0.495000000000000329,0.876278527792222817
0.496000000000000330,0.863466253238603931
0.497000000000000330,0.850760778755007996
0.498000000000000331,0.838163185398570043
0.499000000000000332,0.825674501340836642
0.500000000000000333,0.813295702437877188
0.501000000000000334,0.801027712822568461
0.502000000000000335,0.788871405517552859
0.503000000000000336,0.776827603067540839
0.504000000000000337,0.764897078189548552
0.505000000000000338,0.753080554439818695
0.506000000000000338,0.741378706896121398
0.507000000000000339,0.729792162854240423
0.508000000000000340,0.718321502537475509
0.509000000000000341,0.706967259817987026
0.510000000000000342,0.695729922948949975
0.511000000000000343,0.684609935306390804
0.512000000000000344,0.673607696139763013
0.513000000000000345,0.662723561330232136
0.514000000000000346,0.651957844155734323
0.515000000000000346,0.641310816061933631
0.516000000000000347,0.630782707438186541
0.517000000000000348,0.620373708397659152
0.518000000000000349,0.610083969560837991
0.519000000000000350,0.599913602841632199
0.520000000000000351,0.589862682235344882
0.521000000000000352,0.579931244607785223
0.522000000000000353,0.570119290484894514
0.523000000000000353,0.560426784842172121
0.524000000000000354,0.550853657893343840
0.525000000000000355,0.541399805877637474
0.526000000000000356,0.532065091845144833
0.527000000000000357,0.522849346439688167
0.528000000000000358,0.513752368678717319
0.529000000000000359,0.504773926729727762
0.530000000000000360,0.495913758682764105
0.531000000000000361,0.487171573318531226
0.532000000000000361,0.478547050871736990
0.533000000000000362,0.470039843789245460
0.534000000000000363,0.461649577482692641
0.535000000000000364,0.453375851075177916
0.536000000000000365,0.445218238141744937
0.537000000000000366,0.437176287443296174
0.538000000000000367,0.429249523653693732
0.539000000000000368,0.421437448079710009
0.540000000000000369,0.413739539373647769
0.541000000000000369,0.406155254238304397
0.542000000000000370,0.398684028124148326
0.543000000000000371,0.391325275918410875
0.544000000000000372,0.384078392625960607
0.545000000000000373,0.376942754041761863
0.546000000000000374,0.369917717414747826
0.547000000000000375,0.363002622102975903
0.548000000000000376,0.356196790219899473
0.549000000000000377,0.349499527271671828
0.550000000000000377,0.342910122785324456
0.551000000000000378,0.336427850927765282
0.552000000000000379,0.330051971115469300
0.553000000000000380,0.323781728614806252
0.554000000000000381,0.317616355132941397
0.555000000000000382,0.311555069399215567
0.556000000000000383,0.305597077737020162
0.557000000000000384,0.299741574626051777
0.558000000000000385,0.293987743254994771
0.559000000000000385,0.288334756064541453
0.560000000000000386,0.282781775280784409
0.561000000000000387,0.277327953438949892
0.562000000000000388,0.271972433897495647
0.563000000000000389,0.266714351342544620
0.564000000000000390,0.261552832282720971
0.565000000000000391,0.256486995534366380
0.566000000000000392,0.251515952697195733
0.567000000000000393,0.246638808620393307
0.568000000000000393,0.241854661859234682
0.569000000000000394,0.237162605122231362
0.570000000000000395,0.232561725708877620
0.571000000000000396,0.228051105938058718
0.572000000000000397,0.223629823567136482
0.573000000000000398,0.219296952201838369
0.574000000000000399,0.215051561696961047
0.575000000000000400,0.210892718547996572
0.576000000000000401,0.206819486273743636
0.577000000000000401,0.202830925789960481
0.578000000000000402,0.198926095774178802
0.579000000000000403,0.195104053021749657
0.580000000000000404,0.191363852793168671
0.581000000000000405,0.187704549152844374
0.582000000000000406,0.184125195299324057
0.583000000000000407,0.180624843887131459
0.584000000000000408,0.177202547340268357
0.585000000000000409,0.173857358157507802
0.586000000000000409,0.170588329209565792
0.587000000000000410,0.167394514028233521
0.588000000000000411,0.164274967087627732
0.589000000000000412,0.161228744077579450
0.590000000000000413,0.158254902169356115
0.591000000000000414,0.155352500273752497
0.592000000000000415,0.152520599291686043
0.593000000000000416,0.149758262357411354
0.594000000000000417,0.147064555074448267
0.595000000000000417,0.144438545744318303
0.596000000000000418,0.141879305588247351
0.597000000000000419,0.139385908961875943
0.598000000000000420,0.136957433563156539
0.599000000000000421,0.134592960633485137
0.600000000000000422,0.132291575152220231
0.601000000000000423,0.130052366024690280
0.602000000000000424,0.127874426263779151
0.603000000000000425,0.125756853165209542
0.604000000000000425,0.123698748476665094
0.605000000000000426,0.121699218560810118
0.606000000000000427,0.119757374552325782
0.607000000000000428,0.117872332509140004
0.608000000000000429,0.116043213557817729
0.609000000000000430,0.114269144033395692
0.610000000000000431,0.112549255613601989
0.611000000000000432,0.110882685447683024
0.612000000000000433,0.109268576279898125
0.613000000000000433,0.107706076567769843
0.614000000000000434,0.106194340595233250
0.615000000000000435,0.104732528580768133
0.616000000000000436,0.103319806780615212
0.617000000000000437,0.101955347587165152
0.618000000000000438,0.100638329622655398
0.619000000000000439,0.099367937828254801
0.620000000000000440,0.098143363548619439
0.621000000000000441,0.096963804612045582
