# ZnO10m10NB_METHANAL-AC
# h[nm],U(h)[kJ/mol]
0.149999999999999994,57.048845586733001767
0.150999999999999995,56.427132099053991965
0.151999999999999996,55.670846101878851186
0.152999999999999997,54.850143896353031892
0.153999999999999998,54.000063219252467661
0.154999999999999999,53.138472933452320035
0.156000000000000000,52.275206921229823820
0.157000000000000001,51.416382488695354880
0.158000000000000002,50.566239798933096949
0.159000000000000002,49.727814152340521048
0.160000000000000003,48.903137809279037640
0.161000000000000004,48.093311009456513716
0.162000000000000005,47.298584030753218599
0.163000000000000006,46.518489926169621640
0.164000000000000007,45.752020722281656617
0.165000000000000008,44.997823417486131348
0.166000000000000009,44.254391057785582575
0.167000000000000010,43.520229775343366896
0.168000000000000010,42.793990166429686894
0.169000000000000011,42.074558361623203950
0.170000000000000012,41.361107596439225631
0.171000000000000013,40.653114789225696768
0.172000000000000014,39.950348728126463982
0.173000000000000015,39.252837276328797600
0.174000000000000016,38.560820877776890825
0.175000000000000017,37.874698909012820991
0.176000000000000018,37.194974345334152588
0.177000000000000018,36.522200995829074088
0.178000000000000019,35.856936356931093712
0.179000000000000020,35.199702031781740175
0.180000000000000021,34.550952716305097567
0.181000000000000022,33.911053985634829644
0.182000000000000023,33.280268528291593100
0.183000000000000024,32.658750058281555084
0.184000000000000025,32.046543866911711973
0.185000000000000026,31.443592832536364057
0.186000000000000026,30.849747662703986606
0.187000000000000027,30.264780175421151398
0.188000000000000028,29.688398512959508935
0.189000000000000029,29.120263304234914159
0.190000000000000030,28.560003934895469513
0.191000000000000031,28.007234235600776628
0.192000000000000032,27.461567049187209477
0.193000000000000033,26.922627279678074785
0.194000000000000034,26.390063155785860260
0.195000000000000034,25.863555555837201894
0.196000000000000035,25.342825338539878288
0.197000000000000036,24.827638704422909655
0.198000000000000037,24.317810676649383339
0.199000000000000038,23.813206838338427218
0.200000000000000039,23.313743498015021771
0.201000000000000040,22.819386477025531690
0.202000000000000041,22.330148724483919409
0.203000000000000042,21.846086968311734466
0.204000000000000042,21.367297606883944638
0.205000000000000043,20.893912036251908404
0.206000000000000044,20.426091594283565911
0.207000000000000045,19.964022286575108467
0.208000000000000046,19.507909440706200144
0.209000000000000047,19.057972416224039591
0.210000000000000048,18.614439478377882153
0.211000000000000049,18.177542924669165103
0.212000000000000050,17.747514535178062545
0.213000000000000050,17.324581400709156753
0.214000000000000051,16.908962167293339007
0.215000000000000052,16.500863721634807746
0.216000000000000053,16.100478329772492714
0.217000000000000054,15.707981230547668261
0.218000000000000055,15.323528676402480286
0.219000000000000056,14.947256406510154747
0.220000000000000057,14.579278531162429999
0.221000000000000058,14.219686801604751736
0.222000000000000058,13.868550235988928776
0.223000000000000059,13.525915069681058611
0.224000000000000060,13.191804996688556884
0.225000000000000061,12.866221668326044636
0.226000000000000062,12.549145415304085560
0.227000000000000063,12.240536160080299766
0.228000000000000064,11.940334487452302525
0.229000000000000065,11.648462842895890290
0.230000000000000066,11.364826829972844990
0.231000000000000066,11.089316580168606663
0.232000000000000067,10.821808170702706065
0.233000000000000068,10.562165068122123301
0.234000000000000069,10.310239577788228971
0.235000000000000070,10.065874281657325895
0.236000000000000071,9.828903448997532877
0.237000000000000072,9.599154406849962129
0.238000000000000073,9.376448859108467815
0.239000000000000073,9.160604145040881718
0.240000000000000074,8.951434429892845657
0.241000000000000075,8.748751821895488945
0.242000000000000076,8.552367411534577357
0.243000000000000077,8.362092230330045339
0.244000000000000078,8.177738127621763553
0.245000000000000079,7.999118564963057842
0.246000000000000080,7.826049328692718632
0.247000000000000081,7.658349162094319595
0.248000000000000081,7.495840319266909191
0.249000000000000082,7.338349043430180352
0.250000000000000111,7.185705972878889902
0.251000000000000112,7.037746478194131683
0.252000000000000113,6.894310934621325160
0.253000000000000114,6.755244933745792935
0.254000000000000115,6.620399438743900689
0.255000000000000115,6.489630887570259077
0.256000000000000116,6.362801248466189108
0.257000000000000117,6.239778032149666309
0.258000000000000118,6.120434264978993788
0.259000000000000119,6.004648427277810008
0.260000000000000120,5.892304360874041080
0.261000000000000121,5.783291149745432236
0.262000000000000122,5.677502977484359725
0.263000000000000123,5.574838965099366384
0.264000000000000123,5.475202992464186735
0.265000000000000124,5.378503506510979193
0.266000000000000125,5.284653319045651720
0.267000000000000126,5.193569396843205510
0.268000000000000127,5.105172646461449304
0.269000000000000128,5.019387695995213505
0.270000000000000129,4.936142675781602485
0.271000000000000130,4.855368999861259915
0.272000000000000131,4.777001149802918789
0.273000000000000131,4.700976462308871895
0.274000000000000132,4.627234921838769388
0.275000000000000133,4.555718959318530992
0.276000000000000134,4.486373257840797990
0.277000000000000135,4.419144566113272887
0.278000000000000136,4.353981520271710259
0.279000000000000137,4.290834474545166088
0.280000000000000138,4.229655341142392722
0.281000000000000139,4.170397439619522473
0.282000000000000139,4.113015355890470737
0.283000000000000140,4.057464810952227552
0.284000000000000141,4.003702539317133713
0.285000000000000142,3.951686177072992301
0.286000000000000143,3.901374159428777855
0.287000000000000144,3.852725627548797771
0.288000000000000145,3.805700344430230864
0.289000000000000146,3.760258619538475955
0.290000000000000147,3.716361241880159927
0.291000000000000147,3.673969421165621974
0.292000000000000148,3.633044736689673648
0.293000000000000149,3.593549093541834161
0.294000000000000150,3.555444685744191702
0.295000000000000151,3.518693965906032339
0.296000000000000152,3.483259620979492155
0.297000000000000153,3.449104553698670195
0.298000000000000154,3.416191869286193228
0.299000000000000155,3.384484867015227216
0.300000000000000155,3.353947036221445188
0.301000000000000156,3.324542056368051668
0.302000000000000157,3.296233800777235157
0.303000000000000158,3.268986343653328852
0.304000000000000159,3.242763970036015131
0.305000000000000160,3.217531188336182790
0.306000000000000161,3.193252745121957670
0.307000000000000162,3.169893641838085419
0.308000000000000163,3.147419153158060645
0.309000000000000163,3.125794846684724959
0.310000000000000164,3.104986603731753725
0.311000000000000165,3.084960640935099363
0.312000000000000166,3.065683532460060867
0.313000000000000167,3.047122232586107593
0.314000000000000168,3.029244098467801738
0.315000000000000169,3.012016912886030795
0.316000000000000170,2.995408906819251094
0.317000000000000171,2.979388781679483067
0.318000000000000171,2.963925731072437841
0.319000000000000172,2.948989461955074276
0.320000000000000173,2.934550215077417867
0.321000000000000174,2.920578784608444334
0.322000000000000175,2.907046536857964991
0.323000000000000176,2.893925428018291335
0.324000000000000177,2.881188020860441679
0.325000000000000178,2.868807500330132321
0.326000000000000179,2.856757687998618955
0.327000000000000179,2.845013055332652030
0.328000000000000180,2.833548735756521886
0.329000000000000181,2.822340535486990376
0.330000000000000182,2.811364943129597727
0.331000000000000183,2.800599138031477864
0.332000000000000184,2.790020997392288926
0.333000000000000185,2.779609102140612187
0.334000000000000186,2.769342741588416423
0.335000000000000187,2.759201916881056871
0.336000000000000187,2.749167343264521168
0.337000000000000188,2.739220451195572004
0.338000000000000189,2.729343386323839216
0.339000000000000190,2.719519008377929481
0.340000000000000191,2.709730888990415032
0.341000000000000192,2.699963308498630532
0.342000000000000193,2.690201251760384160
0.343000000000000194,2.680430403025144237
0.344000000000000195,2.670637139902757529
0.345000000000000195,2.660808526472611124
0.346000000000000196,2.650932305577157422
0.347000000000000197,2.640996890344094350
0.348000000000000198,2.630991354981925046
0.349000000000000199,2.620905424893712254
0.350000000000000200,2.610729466153756562
0.351000000000000201,2.600454474391728610
0.352000000000000202,2.590072063128364910
0.353000000000000203,2.579574451606304386
0.354000000000000203,2.568954452158978441
0.355000000000000204,2.558205457159698604
0.356000000000000205,2.547321425592198540
0.357000000000000206,2.536296869282888888
0.358000000000000207,2.525126838834102383
0.359000000000000208,2.513806909296421033
0.360000000000000209,2.502333165617014465
0.361000000000000210,2.490702187899759501
0.362000000000000210,2.478911036511533439
0.363000000000000211,2.466957237067883835
0.364000000000000212,2.454838765329889760
0.365000000000000213,2.442554032042711931
0.366000000000000214,2.430101867744987043
0.367000000000000215,2.417481507576859645
0.368000000000000216,2.404692576113046876
0.369000000000000217,2.391735072246074623
0.370000000000000218,2.378609354143373267
0.371000000000000218,2.365316124300677281
0.372000000000000219,2.351856414712794496
0.373000000000000220,2.338231572181563855
0.374000000000000221,2.324443243779525048
0.375000000000000222,2.310493362486611524
0.376000000000000223,2.296384133015890505
0.377000000000000224,2.282118017843275393
0.378000000000000225,2.267697723454924486
0.379000000000000226,2.253126186824933264
0.380000000000000226,2.238406562134814592
0.381000000000000227,2.223542207745276222
0.382000000000000228,2.208536673429695174
0.383000000000000229,2.193393687877772003
0.384000000000000230,2.178117146476896249
0.385000000000000231,2.162711099377801371
0.386000000000000232,2.147179739850286317
0.387000000000000233,2.131527392933880716
0.388000000000000234,2.115758504387599270
0.389000000000000234,2.099877629942085822
0.390000000000000235,2.083889424856840034
0.391000000000000236,2.067798633784414530
0.392000000000000237,2.051610080942892544
0.393000000000000238,2.035328660597325090
0.394000000000000239,2.018959327850196495
0.395000000000000240,2.002507089740475976
0.396000000000000241,1.985976996650264947
0.397000000000000242,1.969374134017573441
0.398000000000000242,1.952703614353313410
0.399000000000000243,1.935970569560163002
0.400000000000000244,1.919180143550564877
0.401000000000000245,1.902337485160723762
0.402000000000000246,1.885447741357213491
0.403000000000000247,1.868516050732361933
0.404000000000000248,1.851547537284426337
0.405000000000000249,1.834547304478192142
0.406000000000000250,1.817520429581483299
0.407000000000000250,1.800471958272779061
0.408000000000000251,1.783406899514995203
0.409000000000000252,1.766330220690248920
0.410000000000000253,1.749246842990342277
0.411000000000000254,1.732161637057496817
0.412000000000000255,1.715079418869809302
0.413000000000000256,1.698004945865716930
0.414000000000000257,1.680942913301804342
0.415000000000000258,1.663897950838031603
0.416000000000000258,1.646874619344615098
0.417000000000000259,1.629877407924560817
0.418000000000000260,1.612910731145949628
0.419000000000000261,1.595978926477991333
0.420000000000000262,1.579086251924894269
0.421000000000000263,1.562236883851549241
0.422000000000000264,1.545434914995139408
0.423000000000000265,1.528684352656693335
0.424000000000000266,1.511989117066710353
0.425000000000000266,1.495353039919027349
0.426000000000000267,1.478779863067092304
0.427000000000000268,1.462273237376926938
0.428000000000000269,1.445836721731086794
0.429000000000000270,1.429473782178002583
0.430000000000000271,1.413187791221171219
0.431000000000000272,1.396982027242730906
0.432000000000000273,1.380859674056055919
0.433000000000000274,1.364823820582069080
0.434000000000000274,1.348877460644078097
0.435000000000000275,1.333023492876052929
0.436000000000000276,1.317264720739315553
0.437000000000000277,1.301603852642752468
0.438000000000000278,1.286043502161753782
0.439000000000000279,1.270586188351171986
0.440000000000000280,1.255234336147708518
0.441000000000000281,1.239990276857279694
0.442000000000000282,1.224856248722916430
0.443000000000000282,1.209834397569027109
0.444000000000000283,1.194926777517778760
0.445000000000000284,1.180135351773616614
0.446000000000000285,1.165461993471955449
0.447000000000000286,1.150908486588217539
0.448000000000000287,1.136476526903522632
0.449000000000000288,1.122167723023405062
0.450000000000000289,1.107983597446063229
0.451000000000000290,1.093925587676773503
0.452000000000000290,1.079995047385150064
0.453000000000000291,1.066193247602114536
0.454000000000000292,1.052521377953475445
0.455000000000000293,1.038980547927166320
0.456000000000000294,1.025571788171273591
0.457000000000000295,1.012296051820089637
0.458000000000000296,0.999154215845530991
0.459000000000000297,0.986147082431353517
0.460000000000000298,0.973275380367689680
0.461000000000000298,0.960539766463549660
0.462000000000000299,0.947940826974977724
0.463000000000000300,0.935479079046702466
0.464000000000000301,0.923154972165150189
0.465000000000000302,0.910968889620834887
0.466000000000000303,0.898921149978169298
0.467000000000000304,0.887012008550869147
0.468000000000000305,0.875241658881181328
0.469000000000000306,0.863610234221251383
0.470000000000000306,0.852117809015017991
0.471000000000000307,0.840764400379119037
0.472000000000000308,0.829549969581334978
0.473000000000000309,0.818474423515188176
0.474000000000000310,0.807537616169401451
0.475000000000000311,0.796739350090930332
0.476000000000000312,0.786079377840436355
0.477000000000000313,0.775557403439029791
0.478000000000000314,0.765173083805283261
0.479000000000000314,0.754926030181467089
0.480000000000000315,0.744815809548118102
0.481000000000000316,0.734841946026020265
0.482000000000000317,0.725003922264809475
0.483000000000000318,0.715301180817397131
0.484000000000000319,0.705733125499518388
0.485000000000000320,0.696299122733718745
0.486000000000000321,0.686998502877155581
0.487000000000000322,0.677830561532643650
0.488000000000000322,0.668794560842412511
0.489000000000000323,0.659889730764075755
0.490000000000000324,0.651115270328368800
0.491000000000000325,0.642470348878249276
0.492000000000000326,0.633954107288985491
0.493000000000000327,0.625565659168892396
0.494000000000000328,0.617304092040432018
0.495000000000000329,0.609168468501387950
0.496000000000000330,0.601157827365914388
0.497000000000000330,0.593271184785210570
0.498000000000000331,0.585507535347705610
0.499000000000000332,0.577865853158561094
0.500000000000000333,0.570345092898391526
0.501000000000000334,0.562944190861127014
0.502000000000000335,0.555662065970923824
0.503000000000000336,0.548497620778103490
0.504000000000000337,0.541449742434082615
0.505000000000000338,0.534517303645313580
0.506000000000000338,0.527699163606237365
0.507000000000000339,0.520994168911300237
0.508000000000000340,0.514401154446102571
0.509000000000000341,0.507918944257725546
0.510000000000000342,0.501546352404372175
0.511000000000000343,0.495282183784384267
0.512000000000000344,0.489125234944801091
0.513000000000000345,0.483074294869568654
0.514000000000000346,0.477128145747549026
0.515000000000000346,0.471285563720514666
0.516000000000000347,0.465545319611281427
0.517000000000000348,0.459906179632161738
0.518000000000000349,0.454366906073948029
0.519000000000000350,0.448926257975615139
0.520000000000000351,0.443582991774967350
0.521000000000000352,0.438335861940424121
0.522000000000000353,0.433183621584213863
0.523000000000000353,0.428125023057162046
0.524000000000000354,0.423158818525350700
0.525000000000000355,0.418283760528873727
0.526000000000000356,0.413498602522955672
0.527000000000000357,0.408802099401670394
0.528000000000000358,0.404193008004534893
0.529000000000000359,0.399670087606236790
0.530000000000000360,0.395232100389764862
0.531000000000000361,0.390877811903204975
0.532000000000000361,0.386605991500484081
0.533000000000000362,0.382415412766326290
0.534000000000000363,0.378304853925711781
0.535000000000000364,0.374273098238094071
0.536000000000000365,0.370318934376680897
0.537000000000000366,0.366441156793030909
0.538000000000000367,0.362638566067277512
0.539000000000000368,0.358909969244217697
0.540000000000000369,0.355254180155596289
0.541000000000000369,0.351670019728811400
0.542000000000000370,0.348156316282374756
0.543000000000000371,0.344711905808357477
0.544000000000000372,0.341335632242124931
0.545000000000000373,0.338026347719632636
0.546000000000000374,0.334782912822547019
0.547000000000000375,0.331604196811482954
0.548000000000000376,0.328489077847601396
0.549000000000000377,0.325436443202868131
0.550000000000000377,0.322445189459206027
0.551000000000000378,0.319514222696841321
0.552000000000000379,0.316642458672071081
0.553000000000000380,0.313828822984736688
0.554000000000000381,0.311072251235653685
0.555000000000000382,0.308371689174231967
0.556000000000000383,0.305726092836583807
0.557000000000000384,0.303134428674304235
0.558000000000000385,0.300595673674236896
0.559000000000000385,0.298108815469411037
0.560000000000000386,0.295672852441420608
0.561000000000000387,0.293286793814472091
0.562000000000000388,0.290949659741337352
0.563000000000000389,0.288660481381424472
0.564000000000000390,0.286418300971220341
0.565000000000000391,0.284222171887300756
0.566000000000000392,0.282071158702145552
0.567000000000000393,0.279964337232955385
0.568000000000000393,0.277900794583706978
0.569000000000000394,0.275879629180630082
0.570000000000000395,0.273899950801324121
0.571000000000000396,0.271960880597721777
0.572000000000000397,0.270061551113072396
0.573000000000000398,0.268201106293172675
0.574000000000000399,0.266378701492003100
0.575000000000000400,0.264593503471984903
0.576000000000000401,0.262844690399022085
0.577000000000000401,0.261131451832507744
0.578000000000000402,0.259452988710486721
0.579000000000000403,0.257808513330138322
0.580000000000000404,0.256197249323735110
0.581000000000000405,0.254618431630272091
0.582000000000000406,0.253071306462898493
0.583000000000000407,0.251555131272336807
0.584000000000000408,0.250069174706421649
0.585000000000000409,0.248612716565928815
0.586000000000000409,0.247185047756835585
0.587000000000000410,0.245785470239145987
0.588000000000000411,0.244413296972455951
0.589000000000000412,0.243067851858347422
0.590000000000000413,0.241748469679800959
0.591000000000000414,0.240454496037720122
0.592000000000000415,0.239185287284705062
0.593000000000000416,0.237940210456215995
0.594000000000000417,0.236718643199239187
0.595000000000000417,0.235519973698558344
0.596000000000000418,0.234343600600790986
0.597000000000000419,0.233188932936252036
0.598000000000000420,0.232055390038802128
0.599000000000000421,0.230942401463750530
0.600000000000000422,0.229849406903944897
0.601000000000000423,0.228775856104141390
0.602000000000000424,0.227721208773747075
0.603000000000000425,0.226684934498034979
0.604000000000000425,0.225666512647943740
0.605000000000000426,0.224665432288526923
0.606000000000000427,0.223681192086147534
0.607000000000000428,0.222713300214534005
0.608000000000000429,0.221761274259717922
0.609000000000000430,0.220824641124020754
0.610000000000000431,0.219902936929079251
0.611000000000000432,0.218995706918056532
0.612000000000000433,0.218102505357080367
0.613000000000000433,0.217222895435975116
0.614000000000000434,0.216356449168381981
0.615000000000000435,0.215502747291318325
0.616000000000000436,0.214661379164246713
0.617000000000000437,0.213831942667704306
0.618000000000000438,0.213014044101581229
0.619000000000000439,0.212207298083086637
0.620000000000000440,0.211411327444460506
0.621000000000000441,0.210625763130497162
0.622000000000000441,0.209850244095918681
