# ZnO10m10NB_PENTANE
# h[nm],U(h)[kJ/mol]
0.149999999999999994,167.492330330384334047
0.150999999999999995,165.734319329575214397
0.151999999999999996,164.347893496976723782
0.152999999999999997,162.998392831891635524
0.153999999999999998,161.560930635259495602
0.154999999999999999,160.016157997797193957
0.156000000000000000,158.390158822726078824
0.157000000000000001,156.721850823598856550
0.158000000000000002,155.047004149563093733
0.159000000000000002,153.391874727574190729
0.160000000000000003,151.772051172280896481
0.161000000000000004,150.193832297372807716
0.162000000000000005,148.656567672797024215
0.163000000000000006,147.155102212063894740
0.164000000000000007,145.681903164546270091
0.165000000000000008,144.228707396166157650
0.166000000000000009,142.787671946630183584
0.167000000000000010,141.352084260334692090
0.168000000000000010,139.916718531871396181
0.169000000000000011,138.477929749817178617
0.170000000000000012,137.033569026504437716
0.171000000000000013,135.582789933296254503
0.172000000000000014,134.125800117466098982
0.173000000000000015,132.663597831657796178
0.174000000000000016,131.197720319785872789
0.175000000000000017,129.730020694767318901
0.176000000000000018,128.262482007734064382
0.177000000000000018,126.797071414084740582
0.178000000000000019,125.335633358209250332
0.179000000000000020,123.879818171411898220
0.180000000000000021,122.431041070659460956
0.181000000000000022,120.990465963565085872
0.182000000000000023,119.559008460155723697
0.183000000000000024,118.137352865937685920
0.184000000000000025,116.725978530067294514
0.185000000000000026,115.325191632698221156
0.186000000000000026,113.935159235069093597
0.187000000000000027,112.555943129136380776
0.188000000000000028,111.187531675497552897
0.189000000000000029,109.829868389407437235
0.190000000000000030,108.482876516532698474
0.191000000000000031,107.146479232285713579
0.192000000000000032,105.820615405938070808
0.193000000000000033,104.505251101242066625
0.194000000000000034,103.200387148705516438
0.195000000000000034,101.906063231280484160
0.196000000000000035,100.622358985226966865
0.197000000000000036,99.349392640840008539
0.198000000000000037,98.087317722200566550
0.199000000000000038,96.836318298673646154
0.200000000000000039,95.596603239949800468
0.201000000000000040,94.368399876337093701
0.202000000000000041,93.151947411057562931
0.203000000000000042,91.947490374866035268
0.204000000000000042,90.755272357946481065
0.205000000000000043,89.575530201622854065
0.206000000000000044,88.408488784220082835
0.207000000000000045,87.254356492234734333
0.208000000000000046,86.113321430232986131
0.209000000000000047,84.985548390709226396
0.210000000000000048,83.871176578399484924
0.211000000000000049,82.770318061976951185
0.212000000000000050,81.683056909276558599
0.213000000000000050,80.609448949745427626
0.214000000000000051,79.549522099196195768
0.215000000000000052,78.503277176649461921
0.216000000000000053,77.470689140585562882
0.217000000000000054,76.451708671809456064
0.218000000000000055,75.446264031920975413
0.219000000000000056,74.454263129667452858
0.220000000000000057,73.475595731873269756
0.221000000000000058,72.510135760871278876
0.222000000000000058,71.557743626122800151
0.223000000000000059,70.618268543773012880
0.224000000000000060,69.691550804046840994
0.225000000000000061,68.777423952487509951
0.226000000000000062,67.875716856944080746
0.227000000000000063,66.986255637829302145
0.228000000000000064,66.108865444418967172
0.229000000000000065,65.243372064795906340
0.230000000000000066,64.389603361427077743
0.231000000000000066,63.547390528277858834
0.232000000000000067,62.716569168817763114
0.233000000000000068,61.896980197254592326
0.234000000000000069,61.088470567873628170
0.235000000000000070,60.290893839469291038
0.236000000000000071,59.504110583570742676
0.237000000000000072,58.727988646507334636
0.238000000000000073,57.962403276365591864
0.239000000000000073,57.207237126594364440
0.240000000000000074,56.462380148444346162
0.241000000000000075,55.727729384622776365
0.242000000000000076,55.003188676528658618
0.243000000000000077,54.288668297243518168
0.244000000000000078,53.584084522111176341
0.245000000000000079,52.889359148276980704
0.246000000000000080,52.204418973995949216
0.247000000000000081,51.529195247878647024
0.248000000000000081,50.863623097549563568
0.249000000000000082,50.207640946457210873
0.250000000000000111,49.561189926816155094
0.251000000000000112,48.924213295892627684
0.252000000000000113,48.296655862077436439
0.253000000000000114,47.678463426434163352
0.254000000000000115,47.069582244673846105
0.255000000000000115,46.469958513797763544
0.256000000000000116,45.879537886971640148
0.257000000000000117,45.298265019552744093
0.258000000000000118,44.726083148589388827
0.259000000000000119,44.162933707551118800
0.260000000000000120,43.608755977529490622
0.261000000000000121,43.063486775675698937
0.262000000000000122,42.527060181209364487
0.263000000000000123,41.999407298945442335
0.264000000000000123,41.480456059939328384
0.265000000000000124,40.970131058545383951
0.266000000000000125,40.468353424917019368
0.267000000000000126,39.975040731747313316
0.268000000000000127,39.490106933854193016
0.269000000000000128,39.013462339053134542
0.270000000000000129,38.545013608629176360
0.271000000000000130,38.084663785617266285
0.272000000000000131,37.632312349023678166
0.273000000000000131,37.187855292068391577
0.274000000000000132,36.751185222497333882
0.275000000000000133,36.322191483001418533
0.276000000000000134,35.900760289785075940
0.277000000000000135,35.486774887348332186
0.278000000000000136,35.080115717580213186
0.279000000000000137,34.680660601307941704
0.280000000000000138,34.288284930502655357
0.281000000000000139,33.902861869406130779
0.282000000000000139,33.524262562915751573
0.283000000000000140,33.152356350641035476
0.284000000000000141,32.787010985127388096
0.285000000000000142,32.428092852827433035
0.286000000000000143,32.075467196487380761
0.287000000000000144,31.728998337704769739
0.288000000000000145,31.388549898502411395
0.289000000000000146,31.053985020853406951
0.290000000000000147,30.725166583178797453
0.291000000000000147,30.401957412927504976
0.292000000000000148,30.084220494432077686
0.293000000000000149,29.771819171317037700
0.294000000000000150,29.464617342816119105
0.295000000000000151,29.162479653432022531
0.296000000000000152,28.865271675446013688
0.297000000000000153,28.572860083855470492
0.298000000000000154,28.285112823384270797
0.299000000000000155,28.001899267274559691
0.300000000000000155,27.723090367628429931
0.301000000000000156,27.448558797123968844
0.302000000000000157,27.178179081982751342
0.303000000000000158,26.911827726114903925
0.304000000000000159,26.649383326412948492
0.305000000000000160,26.390726679207386240
0.306000000000000161,26.135740877935642601
0.307000000000000162,25.884311402110448341
0.308000000000000163,25.636326197705891161
0.309000000000000163,25.391675749107903926
0.310000000000000164,25.150253142801467732
0.311000000000000165,24.911954122989762084
0.312000000000000166,24.676677139360361224
0.313000000000000167,24.444323387231239764
0.314000000000000168,24.214796840324332550
0.315000000000000169,23.988004276427055572
0.316000000000000170,23.763855296212732071
0.317000000000000171,23.542262335499614778
0.318000000000000171,23.323140671234696697
0.319000000000000172,23.106408421493380700
0.320000000000000173,22.891986539789435540
0.321000000000000174,22.679798803991488398
0.322000000000000175,22.469771800142570584
0.323000000000000176,22.261834901478543713
0.324000000000000177,22.055920242939134113
0.325000000000000178,21.851962691462318844
0.326000000000000179,21.649899812348785133
0.327000000000000179,21.449671831978509573
0.328000000000000180,21.251221597155883103
0.329000000000000181,21.054494531353519449
0.330000000000000182,20.859438588118393909
0.331000000000000183,20.666004201896335246
0.332000000000000184,20.474144236523471818
0.333000000000000185,20.283813931625239491
0.334000000000000186,20.094970847154890237
0.335000000000000187,19.907574806295304626
0.336000000000000187,19.721587836938809346
0.337000000000000188,19.536974111951181499
0.338000000000000189,19.353699888416812769
0.339000000000000190,19.171733446053021765
0.340000000000000191,18.991045024972834199
0.341000000000000192,18.811606762966235351
0.342000000000000193,18.633392632461230676
0.343000000000000194,18.456378377317122386
0.344000000000000195,18.280541449594068126
0.345000000000000195,18.105860946433953274
0.346000000000000196,17.932317547179732031
0.347000000000000197,17.759893450852047181
0.348000000000000198,17.588572314093763538
0.349000000000000199,17.418339189685745794
0.350000000000000200,17.249180465729143208
0.351000000000000201,17.081083805582558455
0.352000000000000202,16.914038088635148682
0.353000000000000203,16.748033351989985107
0.354000000000000203,16.583060733125378761
0.355000000000000204,16.419112413595577493
0.356000000000000205,16.256181563826160641
0.357000000000000206,16.094262289053535397
0.358000000000000207,15.933349576452565444
0.359000000000000208,15.773439243490916084
0.360000000000000209,15.614527887543474094
0.361000000000000210,15.456612836795944332
0.362000000000000210,15.299692102461296628
0.363000000000000211,15.143764332329249456
0.364000000000000212,14.988828765664289122
0.365000000000000213,14.834885189464156241
0.366000000000000214,14.681933896086928115
0.367000000000000215,14.529975642251605095
0.368000000000000216,14.379011609413501205
0.369000000000000217,14.229043365513309283
0.370000000000000218,14.080072828095321569
0.371000000000000218,13.932102228788192377
0.372000000000000219,13.785134079138675389
0.373000000000000220,13.639171137787068133
0.374000000000000221,13.494216378970600445
0.375000000000000222,13.350272962339454708
0.376000000000000223,13.207344204067862137
0.377000000000000224,13.065433549241808109
0.378000000000000225,12.924544545502797632
0.379000000000000226,12.784680817926306062
0.380000000000000226,12.645846045111957423
0.381000000000000227,12.508043936461863410
0.382000000000000228,12.371278210622241645
0.383000000000000229,12.235552575062877523
0.384000000000000230,12.100870706768187546
0.385000000000000231,11.967236234013046925
0.386000000000000232,11.834652719196133930
0.387000000000000233,11.703123642702916385
0.388000000000000234,11.572652387770423488
0.389000000000000234,11.443242226325329725
0.390000000000000235,11.314896305766996676
0.391000000000000236,11.187617636666875143
0.392000000000000237,11.061409081355666473
0.393000000000000238,10.936273343369704136
0.394000000000000239,10.812212957728061014
0.395000000000000240,10.689230282012061934
0.396000000000000241,10.567327488219060427
0.397000000000000242,10.446506555362558899
0.398000000000000242,10.326769262791001935
0.399000000000000243,10.208117184198064464
0.400000000000000244,10.090551682297249414
0.401000000000000245,9.974073904134339585
0.402000000000000246,9.858684777011612610
0.403000000000000247,9.744385004997777600
0.404000000000000248,9.631175065998649032
0.405000000000000249,9.519055209363564529
0.406000000000000250,9.408025454003325905
0.407000000000000250,9.298085586995764373
0.408000000000000251,9.189235162655734257
0.409000000000000252,9.081473502046751634
0.410000000000000253,8.974799692912066362
0.411000000000000254,8.869212590003561658
0.412000000000000255,8.764710815787385201
0.413000000000000256,8.661292761505732685
0.414000000000000257,8.558956588574954338
0.415000000000000258,8.457700230300432054
0.416000000000000258,8.357521393889609129
0.417000000000000259,8.258417562744719831
0.418000000000000260,8.160385999017734093
0.419000000000000261,8.063423746410206761
0.420000000000000262,7.967527633201697768
0.421000000000000263,7.872694275490492721
0.422000000000000264,7.778920080631465339
0.423000000000000265,7.686201250855928535
0.424000000000000266,7.594533787059222441
0.425000000000000266,7.503913492742209534
0.426000000000000267,7.414335978093265389
0.427000000000000268,7.325796664198058750
0.428000000000000269,7.238290787364735301
0.429000000000000270,7.151813403552736759
0.430000000000000271,7.066359392893938107
0.431000000000000272,6.981923464295181070
0.432000000000000273,6.898500160111932011
0.433000000000000274,6.816083860883021650
0.434000000000000274,6.734668790117027015
0.435000000000000275,6.654249019121270869
0.436000000000000276,6.574818471864745106
0.437000000000000277,6.496370929866761124
0.438000000000000278,6.418900037103526302
0.439000000000000279,6.342399304925203651
0.440000000000000280,6.266862116976366970
0.441000000000000281,6.192281734113248781
0.442000000000000282,6.118651299311351544
0.443000000000000282,6.045963842557542378
0.444000000000000283,5.974212285720894577
0.445000000000000284,5.903389447397040968
0.446000000000000285,5.833488047720971181
0.447000000000000286,5.764500713143580590
0.448000000000000287,5.696419981167602842
0.449000000000000288,5.629238305038744450
0.450000000000000289,5.562948058388227146
0.451000000000000290,5.497541539823105339
0.452000000000000290,5.433010977461031565
0.453000000000000291,5.369348533406427038
0.454000000000000292,5.306546308165152936
0.455000000000000293,5.244596344995050785
0.456000000000000294,5.183490634190027535
0.457000000000000295,5.123221117295347682
0.458000000000000296,5.063779691252264570
0.459000000000000297,5.005158212470111501
0.460000000000000298,4.947348500824217510
0.461000000000000298,4.890342343578266693
0.462000000000000299,4.834131499229722628
0.463000000000000300,4.778707701277314257
0.464000000000000301,4.724062661909486316
0.465000000000000302,4.670188075613110890
0.466000000000000303,4.617075622701718451
0.467000000000000304,4.564716972762665748
0.468000000000000305,4.513103788022917229
0.469000000000000306,4.462227726633044789
0.470000000000000306,4.412080445869280609
0.471000000000000307,4.362653605253575151
0.472000000000000308,4.313938869591649627
0.473000000000000309,4.265927911929115801
0.474000000000000310,4.218612416425999712
0.475000000000000311,4.171984081149775925
0.476000000000000312,4.126034620787512708
0.477000000000000313,4.080755769277306655
0.478000000000000314,4.036139282359810565
0.479000000000000314,3.992176940050211620
0.480000000000000315,3.948860549031451228
0.481000000000000316,3.906181944969330910
0.482000000000000317,3.864132994750298256
0.483000000000000318,3.822705598642691882
0.484000000000000319,3.781891692382344239
0.485000000000000320,3.741683249183444193
0.486000000000000321,3.702072281675550691
0.487000000000000322,3.663050843767796216
0.488000000000000322,3.624611032441298342
0.489000000000000323,3.586744989470771028
0.490000000000000324,3.549444903076435232
0.491000000000000325,3.512703009507359919
0.492000000000000326,3.476511594557311291
0.493000000000000327,3.440862995014243975
0.494000000000000328,3.405749600044644332
0.495000000000000329,3.371163852513830328
0.496000000000000330,3.337098250243495379
0.497000000000000330,3.303545347207504257
0.498000000000000331,3.270497754667427870
0.499000000000000332,3.237948142248767702
0.500000000000000333,3.205889238959187537
0.501000000000000334,3.174313834150082947
0.502000000000000335,3.143214778422489530
0.503000000000000336,3.112584984478794947
0.504000000000000337,3.082417427921260167
0.505000000000000338,3.052705147998767909
0.506000000000000338,3.023441248302873419
0.507000000000000339,2.994618897414434766
0.508000000000000340,2.966231329502073244
0.509000000000000341,2.938271844873533212
0.510000000000000342,2.910733810481322514
0.511000000000000343,2.883610660383636670
0.512000000000000344,2.856895896161890658
0.513000000000000345,2.830583087295952538
0.514000000000000346,2.804665871498206009
0.515000000000000346,2.779137955007692451
0.516000000000000347,2.753993112845376068
0.517000000000000348,2.729225189031659671
0.518000000000000349,2.704828096767315948
0.519000000000000350,2.680795818578839640
0.520000000000000351,2.657122406429425432
0.521000000000000352,2.633801981796447311
0.522000000000000353,2.610828735716721916
0.523000000000000353,2.588196928800348573
0.524000000000000354,2.565900891214356605
0.525000000000000355,2.543935022636993004
0.526000000000000356,2.522293792183760708
0.527000000000000357,2.500971738306089875
0.528000000000000358,2.479963468663642701
0.529000000000000359,2.459263659971141713
0.530000000000000360,2.438867057820731432
0.531000000000000361,2.418768476480645191
0.532000000000000361,2.398962798671166130
0.533000000000000362,2.379444975318690148
0.534000000000000363,2.360210025288800306
0.535000000000000364,2.341253035099081892
0.536000000000000365,2.322569158612632467
0.537000000000000366,2.304153616712914854
0.538000000000000367,2.286001696960898499
0.539000000000000368,2.268108753235069219
0.540000000000000369,2.250470205355236342
0.541000000000000369,2.233081538690696810
0.542000000000000370,2.215938303753655525
0.543000000000000371,2.199036115778398415
0.544000000000000372,2.182370654287068668
0.545000000000000373,2.165937662642602124
0.546000000000000374,2.149732947589516829
0.547000000000000375,2.133752378783186021
0.548000000000000376,2.117991888308192294
0.549000000000000377,2.102447470186390444
0.550000000000000377,2.087115179875202564
0.551000000000000378,2.071991133756833747
0.552000000000000379,2.057071508618799616
0.553000000000000380,2.042352541126464693
0.554000000000000381,2.027830527288006834
0.555000000000000382,2.013501821912347278
0.556000000000000383,1.999362838060586567
0.557000000000000384,1.985410046491327574
0.558000000000000385,1.971639975100483166
0.559000000000000385,1.958049208355906234
0.560000000000000386,1.944634386727325026
0.561000000000000387,1.931392206112045873
0.562000000000000388,1.918319417256803217
0.563000000000000389,1.905412825176109326
0.564000000000000390,1.892669288567608632
0.565000000000000391,1.880085719224700025
0.566000000000000392,1.867659081446876090
0.567000000000000393,1.855386391448036409
0.568000000000000393,1.843264716763240330
0.569000000000000394,1.831291175654112369
0.570000000000000395,1.819462936513270623
0.571000000000000396,1.807777217268110137
0.572000000000000397,1.796231284784159055
0.573000000000000398,1.784822454268393033
0.574000000000000399,1.773548088672678436
0.575000000000000400,1.762405598097708692
0.576000000000000401,1.751392439197632767
0.577000000000000401,1.740506114585593123
0.578000000000000402,1.729744172240497591
0.579000000000000403,1.719104204915198109
0.580000000000000404,1.708583849546251532
0.581000000000000405,1.698180786665593356
0.582000000000000406,1.687892739814182308
0.583000000000000407,1.677717474957938659
0.584000000000000408,1.667652799906053307
0.585000000000000409,1.657696563731918760
0.586000000000000409,1.647846656196834347
0.587000000000000410,1.638101007176585799
0.588000000000000411,1.628457586091183629
0.589000000000000412,1.618914401337739450
0.590000000000000413,1.609469499726785102
0.591000000000000414,1.600120965922049887
0.592000000000000415,1.590866921883867580
0.593000000000000416,1.581705526316341093
0.594000000000000417,1.572634974118381379
0.595000000000000417,1.563653495838656093
0.596000000000000418,1.554759357134699593
0.597000000000000419,1.545950858236092129
0.598000000000000420,1.537226333411984669
0.599000000000000421,1.528584150442904299
0.600000000000000422,1.520022710097000962
0.601000000000000423,1.511540445610824790
0.602000000000000424,1.503135822174622493
0.603000000000000425,1.494807336422280475
0.604000000000000425,1.486553515925996383
0.605000000000000426,1.478372918695670668
0.606000000000000427,1.470264132683070324
0.607000000000000428,1.462225775290952212
0.608000000000000429,1.454256492886918384
0.609000000000000430,1.446354960322372207
0.610000000000000431,1.438519880456317068
0.611000000000000432,1.430749983684217019
0.612000000000000433,1.423044027471892070
0.613000000000000433,1.415400795894426578
0.614000000000000434,1.407819099180192657
0.615000000000000435,1.400297773259954859
0.616000000000000436,1.392835679321111853
0.617000000000000437,1.385431703366994949
