# ZnO10m10NB_BSAIV8
# h[nm],U(h)[kJ/mol]
0.149999999999999994,144.838233146321044842
0.150999999999999995,143.263102722896803698
0.151999999999999996,141.694343506834201207
0.152999999999999997,140.105836064176003219
0.153999999999999998,138.496232847023378554
0.154999999999999999,136.875244938935509253
0.156000000000000000,135.255495522340112302
0.157000000000000001,133.648167402449672636
0.158000000000000002,132.061113528514908921
0.159000000000000002,130.498466347239229890
0.160000000000000003,128.961073503541427954
0.161000000000000004,127.447310906008354436
0.162000000000000005,125.953989716457698478
0.163000000000000006,124.477192297533861165
0.164000000000000007,123.012953781198731917
0.165000000000000008,121.557759625368746015
0.166000000000000009,120.108862717883908999
0.167000000000000010,118.664442197906936372
0.168000000000000010,117.223634793611978466
0.169000000000000011,115.786471585342923163
0.170000000000000012,114.353751229830137959
0.171000000000000013,112.926876621320303684
0.172000000000000014,111.507676949282767964
0.173000000000000015,110.098231942638520309
0.174000000000000016,108.700710258019483945
0.175000000000000017,107.317229743449871648
0.176000000000000018,105.949743805823459297
0.177000000000000018,104.599955347365536795
0.178000000000000019,103.269257667866469319
0.179000000000000020,101.958700276334539581
0.180000000000000021,100.668976622737361026
0.181000000000000022,99.400430249538615612
0.182000000000000023,98.153075680496314703
0.183000000000000024,96.926630426738597635
0.184000000000000025,95.720554725121999695
0.185000000000000026,94.534095971128678570
0.186000000000000026,93.366335219693937120
0.187000000000000027,92.216233564793583355
0.188000000000000028,91.082676644277924538
0.189000000000000029,89.964515930290161805
0.190000000000000030,88.860605844304487277
0.191000000000000031,87.769836071330686877
0.192000000000000032,86.691158736313468580
0.193000000000000033,85.623610346465781618
0.194000000000000034,84.566328597771345699
0.195000000000000034,83.518564295263303165
0.196000000000000035,82.479688749025157790
0.197000000000000036,81.449197085788483719
0.198000000000000037,80.426707964343137292
0.199000000000000038,79.411960206497411718
0.200000000000000039,78.404806858572982264
0.201000000000000040,77.405207185581062390
0.202000000000000041,76.413217075084048702
0.203000000000000042,75.428978293625718266
0.204000000000000042,74.452706998379056813
0.205000000000000043,73.484681862738739255
0.206000000000000044,72.525232128972817236
0.207000000000000045,71.574725855362359539
0.208000000000000046,70.633558580762425549
0.209000000000000047,69.702142587176723509
0.210000000000000048,68.780896901444322111
0.211000000000000049,67.870238140962626971
0.212000000000000050,66.970572275795731798
0.213000000000000050,66.082287350674334903
0.214000000000000051,65.205747185280372946
0.215000000000000052,64.341286049743445119
0.216000000000000053,63.489204294285265462
0.217000000000000054,62.649764897220528326
0.218000000000000055,61.823190883803668783
0.219000000000000056,61.009663559427259827
0.220000000000000057,60.209321494142827191
0.221000000000000058,59.422260191107071137
0.222000000000000058,58.648532369071610049
0.223000000000000059,57.888148788168408032
0.224000000000000060,57.141079548740414396
0.225000000000000061,56.407255794593446296
0.226000000000000062,55.686571754587667726
0.227000000000000063,54.978887059746909927
0.228000000000000064,54.284029276871748948
0.229000000000000065,53.601796603839318323
0.230000000000000066,52.931960676231213370
0.231000000000000066,52.274269439527301984
0.232000000000000067,51.628450045748635944
0.233000000000000068,50.994211738036213433
0.234000000000000069,50.371248691153560628
0.235000000000000070,49.759242780241535797
0.236000000000000071,49.157866254292365227
0.237000000000000072,48.566784294715596104
0.238000000000000073,47.985657443015966805
0.239000000000000073,47.414143884980845201
0.240000000000000074,46.851901581870045277
0.241000000000000075,46.298590241915540844
0.242000000000000076,45.753873127971139922
0.243000000000000077,45.217418699411247474
0.244000000000000078,44.688902088370937804
0.245000000000000079,44.168006412159087404
0.246000000000000080,43.654423925175350973
0.247000000000000081,43.147857014934878350
0.248000000000000081,42.648019047867606446
0.249000000000000082,42.154635071428025128
0.250000000000000111,41.667442379741700620
0.251000000000000112,41.186190950544201428
0.252000000000000113,40.710643761550606712
0.253000000000000114,40.240576994645927300
0.254000000000000115,39.775780136423186661
0.255000000000000115,39.316055983629340176
0.256000000000000116,38.861220562024882952
0.257000000000000117,38.411102967030515742
0.258000000000000118,37.965545134339123479
0.259000000000000119,37.524401548418666152
0.260000000000000120,37.087538896536557331
0.261000000000000121,36.654835675603678169
0.262000000000000122,36.226181758776327513
0.263000000000000123,35.801477928373493853
0.264000000000000123,35.380635381271211770
0.265000000000000124,34.963575212532155945
0.266000000000000125,34.550227882619878983
0.267000000000000126,34.140532673140633335
0.268000000000000127,33.734437135651063500
0.269000000000000128,33.331896537675831382
0.270000000000000129,32.932873309692219266
0.271000000000000130,32.537336496465925961
0.272000000000000131,32.145261215762857887
0.273000000000000131,31.756628127117910054
0.274000000000000132,31.371422913014630041
0.275000000000000133,30.989635774519701528
0.276000000000000134,30.611260943124495526
0.277000000000000135,30.236296210272495699
0.278000000000000136,29.864742475795697629
0.279000000000000137,29.496603316246034154
0.280000000000000138,29.131884573889159640
0.281000000000000139,28.770593966925758878
0.282000000000000139,28.412740721321448234
0.283000000000000140,28.058335224458584634
0.284000000000000141,27.707388700670986026
0.285000000000000142,27.359912908586380809
0.286000000000000143,27.015919860078856374
0.287000000000000144,26.675421560525592213
0.288000000000000145,26.338429769966431593
0.289000000000000146,26.004955784682334041
0.290000000000000147,25.675010238636410520
0.291000000000000147,25.348602924160999805
0.292000000000000148,25.025742631222446022
0.293000000000000149,24.706437004554338444
0.294000000000000150,24.390692417915513346
0.295000000000000151,24.078513864704369496
0.296000000000000152,23.769904864141743417
0.297000000000000153,23.464867382223214776
0.298000000000000154,23.163401766634542867
0.299000000000000155,22.865506694823491074
0.300000000000000155,22.571179134424511403
0.301000000000000156,22.280414315240829382
0.302000000000000157,21.993205711999387120
0.303000000000000158,21.709545037109243992
0.304000000000000159,21.429422242671090970
0.305000000000000160,21.152825531005511550
0.306000000000000161,20.879741372989347070
0.307000000000000162,20.610154533513032504
0.308000000000000163,20.344048103396705329
0.309000000000000163,20.081403537128799996
0.310000000000000164,19.822200695817656424
0.311000000000000165,19.566417894774026820
0.312000000000000166,19.314031955170200661
0.313000000000000167,19.065018259249320920
0.314000000000000168,18.819350808586566615
0.315000000000000169,18.577002284931595000
0.316000000000000170,18.337944113189280415
0.317000000000000171,18.102146526122883330
0.318000000000000171,17.869578630390623886
0.319000000000000172,17.640208473552462465
0.320000000000000173,17.414003111709604354
0.321000000000000174,17.190928677463816143
0.322000000000000175,16.970950447907487302
0.323000000000000176,16.754032912378704623
0.324000000000000177,16.540139839737634020
0.325000000000000178,16.329234344942001655
0.326000000000000179,16.121278954719830523
0.327000000000000179,15.916235672157284853
0.328000000000000180,15.714066040037863559
0.329000000000000181,15.514731202787169551
0.330000000000000182,15.318191966894062261
0.331000000000000183,15.124408859694915108
0.332000000000000184,14.933342186422805753
0.333000000000000185,14.744952085437436295
0.334000000000000186,14.559198581564924524
0.335000000000000187,14.376041637488928160
0.336000000000000187,14.195441203146202724
0.337000000000000188,14.017357263090596931
0.338000000000000189,13.841749881799273680
0.339000000000000190,13.668579246904462465
0.340000000000000191,13.497805710342550611
0.341000000000000192,13.329389827420262904
0.342000000000000193,13.163292393804814751
0.343000000000000194,12.999474480451596037
0.344000000000000195,12.837897466489238241
0.345000000000000195,12.678523070086786362
0.346000000000000196,12.521313377333228800
0.347000000000000197,12.366230869163715056
0.348000000000000198,12.213238446370773715
0.349000000000000199,12.062299452742388794
0.350000000000000200,11.913377696371753700
0.351000000000000201,11.766437469186241671
0.352000000000000202,11.621443564745371546
0.353000000000000203,11.478361294359435973
0.354000000000000203,11.337156501582029478
0.355000000000000204,11.197795575131147316
0.356000000000000205,11.060245460294298780
0.357000000000000206,10.924473668873904586
0.358000000000000207,10.790448287729782706
0.359000000000000208,10.658137985975811191
0.360000000000000209,10.527512020887614952
0.361000000000000210,10.398540242578510728
0.362000000000000210,10.271193097500086466
0.363000000000000211,10.145441630823745172
0.364000000000000212,10.021257487758690630
0.365000000000000213,9.898612913861185802
0.366000000000000214,9.777480754389090478
0.367000000000000215,9.657834452754693544
0.368000000000000216,9.539648048127713054
0.369000000000000217,9.422896172239521917
0.370000000000000218,9.307554045438008572
0.371000000000000218,9.193597472041755481
0.372000000000000219,9.081002835040406396
0.373000000000000220,8.969747090187091487
0.374000000000000221,8.859807759527289051
0.375000000000000222,8.751162924407196897
0.376000000000000223,8.643791218002904841
0.377000000000000224,8.537671817410760866
0.378000000000000225,8.432784435337458362
0.379000000000000226,8.329109311427071560
0.380000000000000226,8.226627203260772347
0.381000000000000227,8.125319377063638271
0.382000000000000228,8.025167598151304205
0.383000000000000229,7.926154121147997778
0.384000000000000230,7.828261680006018075
0.385000000000000231,7.731473477855194787
0.386000000000000232,7.635773176709844456
0.387000000000000233,7.541144887058926827
0.388000000000000234,7.447573157364248964
0.389000000000000234,7.355042963489969665
0.390000000000000235,7.263539698085514473
0.391000000000000236,7.173049159942817887
0.392000000000000237,7.083557543347509977
0.393000000000000238,6.995051427442613878
0.394000000000000239,6.907517765622117167
0.395000000000000240,6.820943874970749832
0.396000000000000241,6.735317425765137145
0.397000000000000242,6.650626431050642218
0.398000000000000242,6.566859236306998859
0.399000000000000243,6.484004509215152368
0.400000000000000244,6.402051229536534827
0.401000000000000245,6.320988679115258080
0.402000000000000246,6.240806432012997007
0.403000000000000247,6.161494344785088728
0.404000000000000248,6.083042546906143322
0.405000000000000249,6.005441431352249282
0.406000000000000250,5.928681645346439488
0.407000000000000250,5.852754081273234377
0.408000000000000251,5.777649867767477687
0.409000000000000252,5.703360360982140165
0.410000000000000253,5.629877136038970775
0.411000000000000254,5.557191978665574794
0.412000000000000255,5.485296877021760942
0.413000000000000256,5.414184013717537880
0.414000000000000257,5.343845758024815318
0.415000000000000258,5.274274658284094919
0.416000000000000258,5.205463434507436205
0.417000000000000259,5.137404971178124669
0.418000000000000260,5.070092310247520828
0.419000000000000261,5.003518644328814879
0.420000000000000262,4.937677310087478233
0.421000000000000263,4.872561781827505101
0.422000000000000264,4.808165665272589706
0.423000000000000265,4.744482691540857999
0.424000000000000266,4.681506711311647528
0.425000000000000266,4.619231689182644374
0.426000000000000267,4.557651698215273051
0.427000000000000268,4.496760914666286801
0.428000000000000269,4.436553612903162858
0.429000000000000270,4.377024160500742944
0.430000000000000271,4.318167013516531760
0.431000000000000272,4.259976711941756200
0.432000000000000273,4.202447875325350246
0.433000000000000274,4.145575198567750697
0.434000000000000274,4.089353447881377335
0.435000000000000275,4.033777456914639181
0.436000000000000276,3.978842123036066880
0.437000000000000277,3.924542403775275634
0.438000000000000278,3.870873313417316552
0.439000000000000279,3.817829919746947187
0.440000000000000280,3.765407340939283642
0.441000000000000281,3.713600742593411219
0.442000000000000282,3.662405334905210363
0.443000000000000282,3.611816369976030838
0.444000000000000283,3.561829139253475773
0.445000000000000284,3.512438971100810825
0.446000000000000285,3.463641228491407098
0.447000000000000286,3.415431306824600277
0.448000000000000287,3.367804631859505182
0.449000000000000288,3.320756657763195285
0.450000000000000289,3.274282865269772635
0.451000000000000290,3.228378759946872290
0.452000000000000290,3.183039870566098273
0.453000000000000291,3.138261747574092375
0.454000000000000292,3.094039961660789206
0.455000000000000293,3.050370102421566365
0.456000000000000294,3.007247777110066966
0.457000000000000295,2.964668609478361194
0.458000000000000296,2.922628238701413750
0.459000000000000297,2.881122318382622005
0.460000000000000298,2.840146515637425928
0.461000000000000298,2.799696510251949988
0.462000000000000299,2.759767993913751827
0.463000000000000300,2.720356669511754255
0.464000000000000301,2.681458250502551266
0.465000000000000302,2.643068460340308512
0.466000000000000303,2.605183031967550189
0.467000000000000304,2.567797707364149140
0.468000000000000305,2.530908237152003970
0.469000000000000306,2.494510380252815906
0.470000000000000306,2.458599903596497604
0.471000000000000307,2.423172581877881537
0.472000000000000308,2.388224197359329892
0.473000000000000309,2.353750539716967793
0.474000000000000310,2.319747405928388240
0.475000000000000311,2.286210600199587883
0.476000000000000312,2.253135933929168999
0.477000000000000313,2.220519225707600519
0.478000000000000314,2.188356301349787536
0.479000000000000314,2.156642993958838517
0.480000000000000315,2.125375144019325369
0.481000000000000316,2.094548599518168519
0.482000000000000317,2.064159216091455473
0.483000000000000318,2.034202857195485770
0.484000000000000319,2.004675394300441837
0.485000000000000320,1.975572707105138104
0.486000000000000321,1.946890683771296704
0.487000000000000322,1.918625221175907836
0.488000000000000322,1.890772225180328503
0.489000000000000323,1.863327610914658594
0.490000000000000324,1.836287303076190369
0.491000000000000325,1.809647236240629287
0.492000000000000326,1.783403355184901118
0.493000000000000327,1.757551615220362518
0.494000000000000328,1.732087982535352566
0.495000000000000329,1.707008434545960629
0.496000000000000330,1.682308960254066621
0.497000000000000330,1.657985560611550113
0.498000000000000331,1.634034248889919327
0.499000000000000332,1.610451051054282434
0.500000000000000333,1.587232006140883112
0.501000000000000334,1.564373166637457846
0.502000000000000335,1.541870598865469733
0.503000000000000336,1.519720383363663441
0.504000000000000337,1.497918615272072040
0.505000000000000338,1.476461404715933456
0.506000000000000338,1.455344877188811115
0.507000000000000339,1.434565173934312599
0.508000000000000340,1.414118452325905162
0.509000000000000341,1.394000886244166626
0.510000000000000342,1.374208666451116390
0.511000000000000343,1.354738000960966859
0.512000000000000344,1.335585115407019519
0.513000000000000345,1.316746253404159628
0.514000000000000346,1.298217676906556983
0.515000000000000346,1.279995666560278966
0.516000000000000347,1.262076522050385563
0.517000000000000348,1.244456562442200598
0.518000000000000349,1.227132126516479627
0.519000000000000350,1.210099573098148529
0.520000000000000351,1.193355281378428057
0.521000000000000352,1.176895651229977968
0.522000000000000353,1.160717103515003457
0.523000000000000353,1.144816080385961943
0.524000000000000354,1.129189045578804729
0.525000000000000355,1.113832484698517034
0.526000000000000356,1.098742905496864264
0.527000000000000357,1.083916838142144901
0.528000000000000358,1.069350835480892936
0.529000000000000359,1.055041473291378207
0.530000000000000360,1.040985350528874642
0.531000000000000361,1.027179089562552106
0.532000000000000361,1.013619336403977611
0.533000000000000362,1.000302760927155532
0.534000000000000363,0.987226057080100694
0.535000000000000364,0.974385943087836770
0.536000000000000365,0.961779161646924563
0.537000000000000366,0.949402480111389280
0.538000000000000367,0.937252690670172361
0.539000000000000368,0.925326610515985970
0.540000000000000369,0.913621082005737994
0.541000000000000369,0.902132972812406231
0.542000000000000370,0.890859176068569680
0.543000000000000371,0.879796610501468956
0.544000000000000372,0.868942220559778988
0.545000000000000373,0.858292976532082919
0.546000000000000374,0.847845874657140230
0.547000000000000375,0.837597937226022715
0.548000000000000376,0.827546212676174342
0.549000000000000377,0.817687775677507389
0.550000000000000377,0.808019727210565364
0.551000000000000378,0.798539194636947447
0.552000000000000379,0.789243331761959821
0.553000000000000380,0.780129318889698498
0.554000000000000381,0.771194362870639027
0.555000000000000382,0.762435697141767510
0.556000000000000383,0.753850581759514138
0.557000000000000384,0.745436303425411451
0.558000000000000385,0.737190175504787382
0.559000000000000385,0.729109538038454574
0.560000000000000386,0.721191757747583817
0.561000000000000387,0.713434228031898265
0.562000000000000388,0.705834368961286374
0.563000000000000389,0.698389627260931234
0.564000000000000390,0.691097476290145285
0.565000000000000391,0.683955416014988438
0.566000000000000392,0.676960972974834041
0.567000000000000393,0.670111700242940533
0.568000000000000393,0.663405177381273692
0.569000000000000394,0.656839010389608569
0.570000000000000395,0.650410831649061993
0.571000000000000396,0.644118299860259702
0.572000000000000397,0.637959099976134203
0.573000000000000398,0.631930943129624278
0.574000000000000399,0.626031566556301544
0.575000000000000400,0.620258733512114802
0.576000000000000401,0.614610233186367316
0.577000000000000401,0.609083880610009620
0.578000000000000402,0.603677516559462335
0.579000000000000403,0.598389007456045730
0.580000000000000404,0.593216245261101061
0.581000000000000405,0.588157147367046274
0.582000000000000406,0.583209656484355521
0.583000000000000407,0.578371740524707856
0.584000000000000408,0.573641392480328749
0.585000000000000409,0.569016630299713499
0.586000000000000409,0.564495496759844451
0.587000000000000410,0.560076059334943976
0.588000000000000411,0.555756410062041462
0.589000000000000412,0.551534665403271340
0.590000000000000413,0.547408966105196515
0.591000000000000414,0.543377477055159597
0.592000000000000415,0.539438387134804076
0.593000000000000416,0.535589909070902315
0.594000000000000417,0.531830279283579399
0.595000000000000417,0.528157757731994026
0.596000000000000418,0.524570627757702024
0.597000000000000419,0.521067195925659865
0.598000000000000420,0.517645791863113325
0.599000000000000421,0.514304768096339293
0.600000000000000422,0.511042499885442814
0.601000000000000423,0.507857385057284283
0.602000000000000424,0.504747843836570009
0.603000000000000425,0.501712318675271440
0.604000000000000425,0.498749274080472538
0.605000000000000426,0.495857196440664949
0.606000000000000427,0.493034593850620595
0.607000000000000428,0.490279995935000101
0.608000000000000429,0.487591953670595823
0.609000000000000430,0.484969039207543307
0.610000000000000431,0.482409845689343642
0.611000000000000432,0.479912987071952846
0.612000000000000433,0.477477097941928552
0.613000000000000433,0.475100833333727213
0.614000000000000434,0.472782868546242185
0.615000000000000435,0.470521898958647156
0.616000000000000436,0.468316639845644367
0.617000000000000437,0.466165826192095789
0.618000000000000438,0.464068212507236066
