# ZnO10m10NB_PIPERAZINE-AC
# h[nm],U(h)[kJ/mol]
0.149999999999999994,166.331097868332818734
0.150999999999999995,164.213259916859726673
0.151999999999999996,162.039868216034136594
0.152999999999999997,159.874956692174720274
0.153999999999999998,157.735610255594821183
0.154999999999999999,155.620771328444391202
0.156000000000000000,153.524893907339162524
0.157000000000000001,151.443438869717141415
0.158000000000000002,149.374304775604571205
0.159000000000000002,147.317491464435960324
0.160000000000000003,145.274207998063900504
0.161000000000000004,143.246002157325648341
0.162000000000000005,141.234135130219698340
0.163000000000000006,139.239241617045649946
0.164000000000000007,137.261231741571208431
0.165000000000000008,135.299362752954266398
0.166000000000000009,133.352408624721704200
0.167000000000000010,131.418868469061180804
0.168000000000000010,129.497171325854651514
0.169000000000000011,127.585850781020695877
0.170000000000000012,125.683675989149421071
0.171000000000000013,123.789735433715691215
0.172000000000000014,121.903476322173759172
0.173000000000000015,120.024706393177368113
0.174000000000000016,118.153566724177295555
0.175000000000000017,116.290484462421133571
0.176000000000000018,114.436113770978224125
0.177000000000000018,112.591272090498051739
0.178000000000000019,110.756877371243760422
0.179000000000000020,108.933890442111120933
0.180000000000000021,107.123265292883985467
0.181000000000000022,105.325908833836052736
0.182000000000000023,103.542650701050177986
0.183000000000000024,101.774222904504227927
0.184000000000000025,100.021248557393050760
0.185000000000000026,98.284238555900685697
0.186000000000000026,96.563594869428513334
0.187000000000000027,94.859619021097728364
0.188000000000000028,93.172524357181217169
0.189000000000000029,91.502450794673677592
0.190000000000000030,89.849480874794011243
0.191000000000000031,88.213656117088788733
0.192000000000000032,86.594992848180439182
0.193000000000000033,84.993496858923521131
0.194000000000000034,83.409176414933511978
0.195000000000000034,81.842053302030507211
0.196000000000000035,80.292171726327637771
0.197000000000000036,78.759605006554323836
0.198000000000000037,77.244460093241571030
0.199000000000000038,75.746880026170586575
0.200000000000000039,74.267044499308894956
0.201000000000000040,72.805168743124042408
0.202000000000000041,71.361500959753342954
0.203000000000000042,69.936318559216147150
0.204000000000000042,68.529923446866433778
0.205000000000000043,67.142636605703472696
0.206000000000000044,65.774792203921222722
0.207000000000000045,64.426731439940084556
0.208000000000000046,63.098796315665197199
0.209000000000000047,61.791323505174183595
0.210000000000000048,60.504638461563921226
0.211000000000000049,59.239049880186279040
0.212000000000000050,57.994844612689362862
0.213000000000000050,56.772283103712126717
0.214000000000000051,55.571595401146467452
0.215000000000000052,54.392977771862874192
0.216000000000000053,53.236589937853317167
0.217000000000000054,52.102552932951439857
0.218000000000000055,50.990947567649946848
0.219000000000000056,49.901813478989218709
0.220000000000000057,48.835148733938083865
0.221000000000000058,47.790909948002948227
0.222000000000000058,46.769012875819932162
0.223000000000000059,45.769333427051392960
0.224000000000000060,44.791709058841519209
0.225000000000000061,43.835940495216554780
0.226000000000000062,42.901793723971536565
0.227000000000000063,41.989002222606004011
0.228000000000000064,41.097269366603470075
0.229000000000000065,40.226270975648283468
0.230000000000000066,39.375657956116050684
0.231000000000000066,38.545059001237717666
0.232000000000000067,37.734083313623770550
0.233000000000000068,36.942323318251965247
0.234000000000000069,36.169357337491973681
0.235000000000000070,35.414752203198062830
0.236000000000000071,34.678065784291007390
0.237000000000000072,33.958849411526976780
0.238000000000000073,33.256650184280410087
0.239000000000000073,32.571013147122037878
0.240000000000000074,31.901483326728680368
0.241000000000000075,31.247607622210630041
0.242000000000000076,30.608936544271706737
0.243000000000000077,29.985025800725281897
0.244000000000000078,29.375437727777882202
0.245000000000000079,28.779742568162340888
0.246000000000000080,28.197519598664246843
0.247000000000000081,27.628358110843386442
0.248000000000000081,27.071858249820973441
0.249000000000000082,26.527631716892159375
0.250000000000000111,25.995302342444212229
0.251000000000000112,25.474506536229164055
0.252000000000000113,24.964893622464913392
0.253000000000000114,24.466126067538901623
0.254000000000000115,23.977879608270914247
0.255000000000000115,23.499843288773750061
0.256000000000000116,23.031719413941608821
0.257000000000000117,22.573223427508274597
0.258000000000000118,22.124083722462945190
0.259000000000000119,21.684041391398231724
0.260000000000000120,21.252849924104413759
0.261000000000000121,20.830274859424399381
0.262000000000000122,20.416093398052041152
0.263000000000000123,20.010093982601880214
0.264000000000000123,19.612075850904865604
0.265000000000000124,19.221848568100853072
0.266000000000000125,18.839231542707391753
0.267000000000000126,18.464053531452019996
0.268000000000000127,18.096152137264070348
0.269000000000000128,17.735373304437850095
0.270000000000000129,17.381570814601762009
0.271000000000000130,17.034605786762565316
0.272000000000000131,16.694346184341441131
0.273000000000000131,16.360666331780102212
0.274000000000000132,16.033446442973296797
0.275000000000000133,15.712572163478119691
0.276000000000000134,15.397934128162884093
0.277000000000000135,15.089427535688196613
0.278000000000000136,14.786951740960470048
0.279000000000000137,14.490409866464535327
0.280000000000000138,14.199708433165891819
0.281000000000000139,13.914757011474515380
0.282000000000000139,13.635467892581326410
0.283000000000000140,13.361755780313439246
0.284000000000000141,13.093537503506372133
0.285000000000000142,12.830731748757955302
0.286000000000000143,12.573258813310548732
0.287000000000000144,12.321040377703852187
0.288000000000000145,12.073999297749065107
0.289000000000000146,11.832059415296896532
0.290000000000000147,11.595145387203981358
0.291000000000000147,11.363182531846467427
0.292000000000000148,11.136096692482539083
0.293000000000000149,10.913814116728893566
0.294000000000000150,10.696261351387246208
0.295000000000000151,10.483365151835979390
0.296000000000000152,10.275052405188352722
0.297000000000000153,10.071250066411078450
0.298000000000000154,9.871885106595442494
0.299000000000000155,9.676884472576535501
0.300000000000000155,9.486175057104125230
0.301000000000000156,9.299683678781136109
0.302000000000000157,9.117337071000578774
0.303000000000000158,8.939061879131221744
0.304000000000000159,8.764784665222910220
0.305000000000000160,8.594431919526359209
0.306000000000000161,8.427930078147245041
0.307000000000000162,8.265205546181331187
0.308000000000000163,8.106184725705293914
0.309000000000000163,7.950794048026681438
0.310000000000000164,7.798960009625952594
0.311000000000000165,7.650609211253120989
0.312000000000000166,7.505668399671746371
0.313000000000000167,7.364064511572689931
0.314000000000000168,7.225724719209891234
0.315000000000000169,7.090576477339735284
0.316000000000000170,6.958547571074328530
0.317000000000000171,6.829566164287439456
0.318000000000000171,6.703560848239286329
0.319000000000000172,6.580460690113108413
0.320000000000000173,6.460195281182430804
0.321000000000000174,6.342694784352958415
0.322000000000000175,6.227889980846937235
0.323000000000000176,6.115712315821066447
0.324000000000000177,6.006093942730868385
0.325000000000000178,5.898967766275688973
0.326000000000000179,5.794267483778098082
0.327000000000000179,5.691927624870717572
0.328000000000000180,5.591883589381209774
0.329000000000000181,5.494071683322842681
0.330000000000000182,5.398429152914235196
0.331000000000000183,5.304894216566225396
0.332000000000000184,5.213406094788011202
0.333000000000000185,5.123905037977377397
0.334000000000000186,5.036332352071765328
0.335000000000000187,4.950630422048077683
0.336000000000000187,4.866742733269058263
0.337000000000000188,4.784613890683774073
0.338000000000000189,4.704189635897805033
0.339000000000000190,4.625416862136763285
0.340000000000000191,4.548243627133822464
0.341000000000000192,4.472619163977990198
0.342000000000000193,4.398493889965779502
0.343000000000000194,4.325819413503588784
0.344000000000000195,4.254548539113109484
0.345000000000000195,4.184635270595116197
0.346000000000000196,4.116034812411063726
0.347000000000000197,4.048703569344272779
0.348000000000000198,3.982599144504978206
0.349000000000000199,3.917680335745521436
0.350000000000000200,3.853907130553241522
0.351000000000000201,3.791240699490020294
0.352000000000000202,3.729643388248073954
0.353000000000000203,3.669078708392029320
0.354000000000000203,3.609511326857508973
0.355000000000000204,3.550907054276509989
0.356000000000000205,3.493232832199226756
0.357000000000000206,3.436456719281472338
0.358000000000000207,3.380547876506331484
0.359000000000000208,3.325476551507332346
0.360000000000000209,3.271214062059419891
0.361000000000000210,3.217732778802950833
0.362000000000000210,3.165006107264116242
0.363000000000000211,3.113008469234080255
0.364000000000000212,3.061715283567128409
0.365000000000000213,3.011102946456722940
0.366000000000000214,2.961148811246366641
0.367000000000000215,2.911831167830448486
0.368000000000000216,2.863129221698231142
0.369000000000000217,2.815023072672420135
0.370000000000000218,2.767493693391515297
0.371000000000000218,2.720522907583499350
0.372000000000000219,2.674093368176085672
0.373000000000000220,2.628188535287012684
0.374000000000000221,2.582792654135767307
0.375000000000000222,2.537890732916279646
0.376000000000000223,2.493468520667852850
0.377000000000000224,2.449512485180085797
0.378000000000000225,2.406009790965282669
0.379000000000000226,2.362948277330180868
0.380000000000000226,2.320316436576784547
0.381000000000000227,2.278103392360530943
0.382000000000000228,2.236298878231965936
0.383000000000000229,2.194893216386600177
0.384000000000000230,2.153877296645855033
0.385000000000000231,2.113242555690257429
0.386000000000000232,2.072980956564719257
0.387000000000000233,2.033084968473854115
0.388000000000000234,1.993547546884155253
0.389000000000000234,1.954362113948097335
0.390000000000000235,1.915522539264057356
0.391000000000000236,1.877023120984517179
0.392000000000000237,1.838858567283738754
0.393000000000000238,1.801023978194865149
0.394000000000000239,1.763514827825292786
0.395000000000000240,1.726326946957874808
0.396000000000000241,1.689456506044608286
0.397000000000000242,1.652899998598317266
0.398000000000000242,1.616654224986879385
0.399000000000000243,1.580716276633683082
0.400000000000000244,1.545083520627026141
0.401000000000000245,1.509753584740307630
0.402000000000000246,1.474724342864291549
0.403000000000000247,1.439993900851632258
0.404000000000000248,1.405560582773446088
0.405000000000000249,1.371422917586847756
0.406000000000000250,1.337579626211931716
0.407000000000000250,1.304029609015871838
0.408000000000000251,1.270771933701484002
0.409000000000000252,1.237805823596958010
0.410000000000000253,1.205130646343024026
0.411000000000000254,1.172745902973410415
0.412000000000000255,1.140651217384031302
0.413000000000000256,1.108846326185894071
0.414000000000000257,1.077331068936594693
0.415000000000000258,1.046105378744587755
0.416000000000000258,1.015169273240619674
0.417000000000000259,0.984522845909937772
0.418000000000000260,0.954166257779125337
0.419000000000000261,0.924099729450839069
0.420000000000000262,0.894323533479827071
0.421000000000000263,0.864837987083172388
0.422000000000000264,0.835643445177902899
0.423000000000000265,0.806740293738655745
0.424000000000000266,0.778128943468141654
0.425000000000000266,0.749809823773191608
0.426000000000000267,0.721783377038829999
0.427000000000000268,0.694050053193004279
0.428000000000000269,0.666610304554487110
0.429000000000000270,0.639464580956390583
0.430000000000000271,0.612613325137876030
0.431000000000000272,0.586056968396455824
0.432000000000000273,0.559795926493522833
0.433000000000000274,0.533830595805570796
0.434000000000000274,0.508161349713742161
0.435000000000000275,0.482788535224383142
0.436000000000000276,0.457712469813244649
0.437000000000000277,0.432933438486166611
0.438000000000000278,0.408451691049103005
0.439000000000000279,0.384267439580365466
0.440000000000000280,0.360380856098186597
0.441000000000000281,0.336792070416722100
0.442000000000000282,0.313501168183613177
0.443000000000000282,0.290508189092638869
0.444000000000000283,0.267813125264684426
0.445000000000000284,0.245415919790742093
0.446000000000000285,0.223316465430576289
0.447000000000000286,0.201514603460763470
0.448000000000000287,0.180010122666187655
0.449000000000000288,0.158802758468872984
0.450000000000000289,0.137892192188438928
0.451000000000000290,0.117278050428438169
0.452000000000000290,0.096959904582972628
0.453000000000000291,0.076937270458230594
0.454000000000000292,0.057209608003562853
0.455000000000000293,0.037776321146964255
0.456000000000000294,0.018636757729923570
0.457000000000000295,-0.000209790463312798
0.458000000000000296,-0.018764087586770773
0.459000000000000297,-0.037026953528778606
0.460000000000000298,-0.054999263627476536
0.461000000000000298,-0.072681948310204220
0.462000000000000299,-0.090075992661019372
0.463000000000000300,-0.107182435920450958
0.464000000000000301,-0.124002370921543065
0.465000000000000302,-0.140536943465995379
0.466000000000000303,-0.156787351644197381
0.467000000000000304,-0.172754845102780996
0.468000000000000305,-0.188440724263171600
0.469000000000000306,-0.203846339494539286
0.470000000000000306,-0.218973090244476143
0.471000000000000307,-0.233822424130438383
0.472000000000000308,-0.248395835995116471
0.473000000000000309,-0.262694866928616100
0.474000000000000310,-0.276721103260243684
0.475000000000000311,-0.290476175522687563
0.476000000000000312,-0.303961757391132181
0.477000000000000313,-0.317179564599898378
0.478000000000000314,-0.330131353838909680
0.479000000000000314,-0.342818921632434936
0.480000000000000315,-0.355244103202195349
0.481000000000000316,-0.367408771317059846
0.482000000000000317,-0.379314835131291495
0.483000000000000318,-0.390964239013342540
0.484000000000000319,-0.402358961367011658
0.485000000000000320,-0.413501013446773480
0.486000000000000321,-0.424392438168956887
0.487000000000000322,-0.435035308920393160
0.488000000000000322,-0.445431728366014912
0.489000000000000323,-0.455583827256980656
0.490000000000000324,-0.465493763240590053
0.491000000000000325,-0.475163719673383667
0.492000000000000326,-0.484595904438616110
0.493000000000000327,-0.493792548769356743
0.494000000000000328,-0.502755906078240389
0.495000000000000329,-0.511488250795016697
0.496000000000000330,-0.519991877212776510
0.497000000000000330,-0.528269098343956522
0.498000000000000331,-0.536322244786758162
0.499000000000000332,-0.544153663603053839
0.500000000000000333,-0.551765717208402284
0.501000000000000334,-0.559160782274872648
0.502000000000000335,-0.566341248647468598
0.503000000000000336,-0.573309518274641938
0.504000000000000337,-0.580068004153572625
0.505000000000000338,-0.586619129290663066
0.506000000000000338,-0.592965325677805577
0.507000000000000339,-0.599109033284826897
0.508000000000000340,-0.605052699068507005
0.509000000000000341,-0.610798775998629417
0.510000000000000342,-0.616349722101259268
0.511000000000000343,-0.621707999519697796
0.512000000000000344,-0.626876073593249261
0.513000000000000345,-0.631856411954113351
0.514000000000000346,-0.636651483642628135
0.515000000000000346,-0.641263758240937398
0.516000000000000347,-0.645695705025320921
0.517000000000000348,-0.649949792137304860
0.518000000000000349,-0.654028485773575641
0.519000000000000350,-0.657934249394862558
0.520000000000000351,-0.661669542953745138
0.521000000000000352,-0.665236822141523021
0.522000000000000353,-0.668638537654015708
0.523000000000000353,-0.671877134476409732
0.524000000000000354,-0.674955051187041577
0.525000000000000355,-0.677874719280086357
0.526000000000000356,-0.680638562507076550
0.527000000000000357,-0.683248996237206585
0.528000000000000358,-0.685708426836253104
0.529000000000000359,-0.688019251064087789
0.530000000000000360,-0.690183855490547837
0.531000000000000361,-0.692204615929639999
0.532000000000000361,-0.694083896891838692
0.533000000000000362,-0.695824051054373505
0.534000000000000363,-0.697427418749277717
0.535000000000000364,-0.698896327469096357
0.536000000000000365,-0.700233091389963702
0.537000000000000366,-0.701440010911954959
0.538000000000000367,-0.702519372216381388
0.539000000000000368,-0.703473446839986472
0.540000000000000369,-0.704304491265612453
0.541000000000000369,-0.705014746529320169
0.542000000000000370,-0.705606437843548262
0.543000000000000371,-0.706081774236201443
0.544000000000000372,-0.706442948205372567
0.545000000000000373,-0.706692135389452858
0.546000000000000374,-0.706831494252394998
0.547000000000000375,-0.706863165783849445
0.548000000000000376,-0.706789273213972891
0.549000000000000377,-0.706611921742580362
0.550000000000000377,-0.706333198282449337
0.551000000000000378,-0.705955171216434363
0.552000000000000379,-0.705479890168231538
0.553000000000000380,-0.704909385786431364
0.554000000000000381,-0.704245669541631480
0.555000000000000382,-0.703490733536406010
0.556000000000000383,-0.702646550327711061
0.557000000000000384,-0.701715072761666891
0.558000000000000385,-0.700698233820241101
0.559000000000000385,-0.699597946479740052
0.560000000000000386,-0.698416103580743353
0.561000000000000387,-0.697154577709253820
0.562000000000000388,-0.695815221088778579
0.563000000000000389,-0.694399865483143364
0.564000000000000390,-0.692910322109684174
0.565000000000000391,-0.691348381562647551
0.566000000000000392,-0.689715813746474837
0.567000000000000393,-0.688014367818803985
0.568000000000000393,-0.686245772142817012
0.569000000000000394,-0.684411734248798198
0.570000000000000395,-0.682513940804609698
0.571000000000000396,-0.680554057594793815
0.572000000000000397,-0.678533729508185024
0.573000000000000398,-0.676454580533641492
0.574000000000000399,-0.674318213763797192
0.575000000000000400,-0.672126211406492757
0.576000000000000401,-0.669880134803720884
0.577000000000000401,-0.667581524457867448
0.578000000000000402,-0.665231900064963910
0.579000000000000403,-0.662832760554760592
0.580000000000000404,-0.660385584137466841
0.581000000000000405,-0.657891828356809594
0.582000000000000406,-0.655352930149345481
0.583000000000000407,-0.652770305909691984
0.584000000000000408,-0.650145351561582152
0.585000000000000409,-0.647479442634463553
0.586000000000000409,-0.644773934345459376
0.587000000000000410,-0.642030161686573897
0.588000000000000411,-0.639249439516795692
0.589000000000000412,-0.636433062659108040
0.590000000000000413,-0.633582306002033802
0.591000000000000414,-0.630698424605669272
0.592000000000000415,-0.627782653811984614
0.593000000000000416,-0.624836209359187489
0.594000000000000417,-0.621860287500015874
0.595000000000000417,-0.618856065123833843
0.596000000000000418,-0.615824699882230098
0.597000000000000419,-0.612767330318150338
0.598000000000000420,-0.609685075998218973
0.599000000000000421,-0.606579037648252273
0.600000000000000422,-0.603450297291708404
0.601000000000000423,-0.600299918390969189
0.602000000000000424,-0.597128945991323157
0.603000000000000425,-0.593938406867502655
0.604000000000000425,-0.590729309672589853
0.605000000000000426,-0.587502645089234776
0.606000000000000427,-0.584259385983045165
0.607000000000000428,-0.581000487557893686
0.608000000000000429,-0.577726887513278831
0.609000000000000430,-0.574439506203290984
0.610000000000000431,-0.571139246797384259
0.611000000000000432,-0.567826995442598514
0.612000000000000433,-0.564503621427234981
0.613000000000000433,-0.561169977345885584
0.614000000000000434,-0.557826899265652210
0.615000000000000435,-0.554475206893468409
