# ZnO10m10NB_PROPANAL-AC
# h[nm],U(h)[kJ/mol]
0.149999999999999994,115.057451750042645244
0.150999999999999995,113.648324758446506166
0.151999999999999996,112.000954870860866208
0.152999999999999997,110.338375774605054858
0.153999999999999998,108.730840652289842296
0.154999999999999999,107.182426236327543734
0.156000000000000000,105.675383208689140702
0.157000000000000001,104.190516584885557450
0.158000000000000002,102.714692621060365241
0.159000000000000002,101.241998374532954585
0.160000000000000003,99.772230001642142838
0.161000000000000004,98.308652419982792026
0.162000000000000005,96.855952952154368063
0.163000000000000006,95.418738604937374248
0.164000000000000007,94.000626859061185314
0.165000000000000008,92.603841491222752325
0.166000000000000009,91.229177532229783765
0.167000000000000010,89.876199596786022994
0.168000000000000010,88.543559660302193492
0.169000000000000011,87.229349220194563941
0.170000000000000012,85.931428907635705627
0.171000000000000013,84.647702428741325775
0.172000000000000014,83.376320035298604694
0.173000000000000015,82.115809672817263731
0.174000000000000016,80.865142263352453256
0.175000000000000017,79.623742206983280312
0.176000000000000018,78.391456083625229212
0.177000000000000018,77.168492551189189044
0.178000000000000019,75.955345259528527890
0.179000000000000020,74.752708766263495477
0.180000000000000021,73.561395339945576666
0.181000000000000022,72.382258435348418857
0.182000000000000023,71.216126694497333460
0.183000000000000024,70.063750660561979089
0.184000000000000025,68.925763031095726774
0.185000000000000026,67.802652226251723278
0.186000000000000026,66.694748286513870994
0.187000000000000027,65.602219609198556327
0.188000000000000028,64.525078742956736733
0.189000000000000029,63.463195342679071587
0.190000000000000030,62.416314403358079232
0.191000000000000031,61.384078004236222625
0.192000000000000032,60.366048972537399209
0.193000000000000033,59.361735093088462634
0.194000000000000034,58.370612725242494889
0.195000000000000034,57.392148925577259888
0.196000000000000035,56.425821401998426552
0.197000000000000036,55.471135833918822300
0.198000000000000037,54.527640278929368378
0.199000000000000038,53.594936546071679118
0.200000000000000039,52.672688548599850833
0.201000000000000040,51.760627755517177206
0.202000000000000041,50.858555942735804933
0.203000000000000042,49.966345503635778869
0.204000000000000042,49.083937617693834454
0.205000000000000043,48.211338597488676783
0.206000000000000044,47.348614741564418296
0.207000000000000045,46.495886016046007683
0.208000000000000046,45.653318874066059152
0.209000000000000047,44.821118501267584122
0.210000000000000048,43.999520749913450857
0.211000000000000049,43.188783995213952949
0.212000000000000050,42.389181116856875065
0.213000000000000050,41.600991777614673595
0.214000000000000051,40.824495140290459005
0.215000000000000052,40.059963134915044236
0.216000000000000053,39.307654360590262854
0.217000000000000054,38.567808681094071233
0.218000000000000055,37.840642550578081682
0.219000000000000056,37.126345085539597335
0.220000000000000057,36.425074881775252322
0.221000000000000058,35.736957560191129346
0.222000000000000058,35.062084013047702058
0.223000000000000059,34.400509312322412825
0.224000000000000060,33.752252234195005087
0.225000000000000061,33.117295348008994438
0.226000000000000062,32.495585614225198867
0.227000000000000063,31.887035433648907912
0.228000000000000064,31.291524089371154815
0.229000000000000065,30.708899523210686056
0.230000000000000066,30.138980389784602920
0.231000000000000066,29.581558333491521751
0.232000000000000067,29.036400436493796207
0.233000000000000068,28.503251789084561807
0.234000000000000069,27.981838137486157336
0.235000000000000070,27.471868568028241953
0.236000000000000071,26.973038190694477834
0.237000000000000072,26.485030789113739758
0.238000000000000073,26.007521408132806329
0.239000000000000073,25.540178854078288140
0.240000000000000074,25.082668086643803207
0.241000000000000075,24.634652484987277887
0.242000000000000076,24.195795974058484035
0.243000000000000077,23.765765000378046068
0.244000000000000078,23.344230349441289718
0.245000000000000079,22.930868799613449482
0.246000000000000080,22.525364609816222128
0.247000000000000081,22.127410840477828913
0.248000000000000081,21.736710509137687097
0.249000000000000082,21.352977583769309433
0.250000000000000111,20.975937818321717998
0.251000000000000112,20.605329436193873249
0.252000000000000113,20.240903668361379886
0.253000000000000114,19.882425153686089203
0.254000000000000115,19.529672209570428265
0.255000000000000115,19.182436981587464686
0.256000000000000116,18.840525481038078226
0.257000000000000117,18.503757519574612900
0.258000000000000118,18.171966550101185334
0.259000000000000119,17.844999423126886029
0.260000000000000120,17.522716067624866554
0.261000000000000121,17.204989105249673287
0.262000000000000122,16.891703406498187690
0.263000000000000123,16.582755597079668064
0.264000000000000123,16.278053522394493768
0.265000000000000124,15.977515677621884294
0.266000000000000125,15.681070610489950212
0.267000000000000126,15.388656303356532007
0.268000000000000127,15.100219540771115945
0.269000000000000128,14.815715268225190471
0.270000000000000129,14.535105947333585519
0.271000000000000130,14.258360912228642547
0.272000000000000131,13.985455731496386989
0.273000000000000131,13.716371579541640102
0.274000000000000132,13.451094620841285376
0.275000000000000133,13.189615410132773832
0.276000000000000134,12.931928311191137837
0.277000000000000135,12.678030936473538404
0.278000000000000136,12.427923609556028595
0.279000000000000137,12.181608851954571549
0.280000000000000138,11.939090895611375487
0.281000000000000139,11.700375222037916245
0.282000000000000139,11.465468128838661954
0.283000000000000140,11.234376324093286570
0.284000000000000141,11.007106548850163819
0.285000000000000142,10.783665227779621887
0.286000000000000143,10.564058147850655445
0.287000000000000144,10.348290164729764484
0.288000000000000145,10.136364936452968877
0.289000000000000146,9.928284683793229703
0.290000000000000147,9.724049976631460979
0.291000000000000147,9.523659545542761506
0.292000000000000148,9.327110117725680993
0.293000000000000149,9.134396276333927034
0.294000000000000150,8.945510342212708466
0.295000000000000151,8.760442276997480349
0.296000000000000152,8.579179606498680499
0.297000000000000153,8.401707363272103990
0.298000000000000154,8.228008047259308455
0.299000000000000155,8.058061603375801241
0.300000000000000155,7.891845414925124480
0.301000000000000156,7.729334311724282536
0.302000000000000157,7.570500591838760229
0.303000000000000158,7.415314055843903240
0.304000000000000159,7.263742052551992678
0.305000000000000160,7.115749535171294937
0.306000000000000161,6.971299126893347520
0.307000000000000162,6.830351194937786197
0.308000000000000163,6.692863932119385240
0.309000000000000163,6.558793445039235337
0.310000000000000164,6.428093848040679958
0.311000000000000165,6.300717362110636266
0.312000000000000166,6.176614417947490665
0.313000000000000167,6.055733762457910174
0.314000000000000168,5.938022567986304345
0.315000000000000169,5.823426543621804008
0.316000000000000170,5.711890047968648965
0.317000000000000171,5.603356202806353714
0.318000000000000171,5.497767007105800019
0.319000000000000172,5.395063450906349090
0.320000000000000173,5.295185628597171679
0.321000000000000174,5.198072851182950593
0.322000000000000175,5.103663757149872637
0.323000000000000176,5.011896421582456185
0.324000000000000177,4.922708463215053953
0.325000000000000178,4.836037149133820989
0.326000000000000179,4.751819496875393511
0.327000000000000179,4.669992373697868793
0.328000000000000180,4.590492592827270180
0.329000000000000181,4.513257006508977653
0.330000000000000182,4.438222595718713137
0.331000000000000183,4.365326556410778380
0.332000000000000184,4.294506382203710615
0.333000000000000185,4.225699943424000793
0.334000000000000186,4.158845562447927691
0.335000000000000187,4.093882085299684448
0.336000000000000187,4.030748949480611465
0.337000000000000188,3.969386248020140950
0.338000000000000189,3.909734789753054773
0.339000000000000190,3.851736155841064768
0.340000000000000191,3.795332752568820300
0.341000000000000192,3.740467860455256588
0.342000000000000193,3.687085679731336718
0.343000000000000194,3.635131372244123416
0.344000000000000195,3.584551099855402434
0.345000000000000195,3.535292059409916643
0.346000000000000196,3.487302514355008043
0.347000000000000197,3.440531823098769593
0.348000000000000198,3.394930464198729680
0.349000000000000199,3.350450058477243864
0.350000000000000200,3.307043388163106279
0.351000000000000201,3.264664413161914247
0.352000000000000202,3.223268284559853925
0.353000000000000203,3.182811355467360936
0.354000000000000203,3.143251189310344973
0.355000000000000204,3.104546565677490655
0.356000000000000205,3.066657483832444520
0.357000000000000206,3.029545163999604718
0.358000000000000207,2.993172046532040387
0.359000000000000208,2.957501789069148845
0.360000000000000209,2.922499261790634240
0.361000000000000210,2.888130540872324570
0.362000000000000210,2.854362900247500612
0.363000000000000211,2.821164801775922548
0.364000000000000212,2.788505883920600947
0.365000000000000213,2.756356949030391412
0.366000000000000214,2.724689949324091476
0.367000000000000215,2.693477971669452575
0.368000000000000216,2.662695221247830535
0.369000000000000217,2.632317004192822107
0.370000000000000218,2.602319709288308580
0.371000000000000218,2.572680788808798802
0.372000000000000219,2.543378738581982823
0.373000000000000220,2.514393077350678851
0.374000000000000221,2.485704325508480750
0.375000000000000222,2.457293983280582683
0.376000000000000223,2.429144508418192849
0.377000000000000224,2.401239293472389846
0.378000000000000225,2.373562642710137727
0.379000000000000226,2.346099748732549450
0.380000000000000226,2.318836668852493510
0.381000000000000227,2.291760301286115187
0.382000000000000228,2.264858361209877824
0.383000000000000229,2.238119356732208409
0.384000000000000230,2.211532564826190317
0.385000000000000231,2.185088007267063315
0.386000000000000232,2.158776426615971022
0.387000000000000233,2.132589262288711485
0.388000000000000234,2.106518626746120226
0.389000000000000234,2.080557281840139439
0.390000000000000235,2.054698615347570811
0.391000000000000236,2.028936617721205149
0.392000000000000237,2.003265859085983092
0.393000000000000238,1.977681466505720298
0.394000000000000239,1.952179101544065487
0.395000000000000240,1.926754938141329587
0.396000000000000241,1.901405640827108501
0.397000000000000242,1.876128343286803446
0.398000000000000242,1.850920627298439980
0.399000000000000243,1.825780502054659804
0.400000000000000244,1.800706383883090123
0.401000000000000245,1.775697076376859584
0.402000000000000246,1.750751750945738205
0.403000000000000247,1.725869927796775727
0.404000000000000248,1.701051457352287688
0.405000000000000249,1.676296502111653153
0.406000000000000250,1.651605518962335095
0.407000000000000250,1.626979241944328081
0.408000000000000251,1.602418665471329273
0.409000000000000252,1.577925028010845665
0.410000000000000253,1.553499796224562690
0.411000000000000254,1.529144649569450731
0.412000000000000255,1.504861465359268902
0.413000000000000256,1.480652304285247967
0.414000000000000257,1.456519396394253985
0.415000000000000258,1.432465127521756587
0.416000000000000258,1.408492026176621836
0.417000000000000259,1.384602750873870081
0.418000000000000260,1.360800077911257455
0.419000000000000261,1.337086889584836014
0.420000000000000262,1.313466162838367257
0.421000000000000263,1.289940958340853427
0.422000000000000264,1.266514409986288836
0.423000000000000265,1.243189714809178836
0.424000000000000266,1.219970123309139343
0.425000000000000266,1.196858930177683966
0.426000000000000267,1.173859465419881731
0.427000000000000268,1.150975085863474856
0.428000000000000269,1.128209167047813155
0.429000000000000270,1.105565095484715377
0.430000000000000271,1.083046261283352241
0.431000000000000272,1.060656051130954847
0.432000000000000273,1.038397841621210294
0.433000000000000274,1.016274992921988751
0.434000000000000274,0.994290842774032457
0.435000000000000275,0.972448700812237221
0.436000000000000276,0.950751843201015467
0.437000000000000277,0.929203507575317444
0.438000000000000278,0.907806888278850921
0.439000000000000279,0.886565131891009273
0.440000000000000280,0.865481333034142097
0.441000000000000281,0.844558530452769851
0.442000000000000282,0.823799703356368651
0.443000000000000282,0.803207768017562218
0.444000000000000283,0.782785574617410496
0.445000000000000284,0.762535904329778469
0.446000000000000285,0.742461466636726075
0.447000000000000286,0.722564896866964457
0.448000000000000287,0.702848753949633753
0.449000000000000288,0.683315518375616660
0.450000000000000289,0.663967590358853776
0.451000000000000290,0.644807288190172079
0.452000000000000290,0.625836846776247180
0.453000000000000291,0.607058416356569430
0.454000000000000292,0.588474061391248249
0.455000000000000293,0.570085759612774523
0.456000000000000294,0.551895401234918981
0.457000000000000295,0.533904788312096201
0.458000000000000296,0.516115634242724441
0.459000000000000297,0.498529563410168297
0.460000000000000298,0.481148110955070873
0.461000000000000298,0.463972722673009486
0.462000000000000299,0.447004755031532475
0.463000000000000300,0.430245475300840785
0.464000000000000301,0.413696061792445058
0.465000000000000302,0.397357604200378800
0.466000000000000303,0.381231104039608304
0.467000000000000304,0.365317475176462292
0.468000000000000305,0.349617544446087947
0.469000000000000306,0.334132052352026920
0.470000000000000306,0.318861653843147796
0.471000000000000307,0.303806919163424061
0.472000000000000308,0.288968334770020263
0.473000000000000309,0.274346304315422063
0.474000000000000310,0.259941149689450923
0.475000000000000311,0.245753112117081951
0.476000000000000312,0.231782353308233546
0.477000000000000313,0.218028956655683531
0.478000000000000314,0.204492928477573443
0.479000000000000314,0.191174199300894826
0.480000000000000315,0.178072625182669669
0.481000000000000316,0.165187989065489232
0.482000000000000317,0.152520002164356600
0.483000000000000318,0.140068305381747027
0.484000000000000319,0.127832470748036303
0.485000000000000320,0.115812002884504300
0.486000000000000321,0.104006340486220067
0.487000000000000322,0.092414857822265620
0.488000000000000322,0.081036866250870560
0.489000000000000323,0.069871615747030741
0.490000000000000324,0.058918296440434295
0.491000000000000325,0.048176040161511106
0.492000000000000326,0.037643921993560689
0.493000000000000327,0.027320961828979355
0.494000000000000328,0.017206125927753828
0.495000000000000329,0.007298328476393246
0.496000000000000330,-0.002403566854326788
0.497000000000000330,-0.011900745354526742
0.498000000000000331,-0.021194439724665549
0.499000000000000332,-0.030285928530867444
0.500000000000000333,-0.039176534667423525
0.501000000000000334,-0.047867623827745585
0.502000000000000335,-0.056360602985080499
0.503000000000000336,-0.064656918884053033
0.504000000000000337,-0.072758056544201782
0.505000000000000338,-0.080665537776466345
0.506000000000000338,-0.088380919713635514
0.507000000000000339,-0.095905793355635621
0.508000000000000340,-0.103241782130477938
0.509000000000000341,-0.110390540471718257
0.510000000000000342,-0.117353752413055012
0.511000000000000343,-0.124133130200852551
0.512000000000000344,-0.130730412925116057
0.513000000000000345,-0.137147365169555141
0.514000000000000346,-0.143385775681273503
0.515000000000000346,-0.149447456060503941
0.516000000000000347,-0.155334239470883817
0.517000000000000348,-0.161047979370673666
0.518000000000000349,-0.166590548265228261
0.519000000000000350,-0.171963836481094617
0.520000000000000351,-0.177169750961964689
0.521000000000000352,-0.182210214086806599
0.522000000000000353,-0.187087162510285954
0.523000000000000353,-0.191802546025755222
0.524000000000000354,-0.196358326450903425
0.525000000000000355,-0.200756476536208928
0.526000000000000356,-0.204998978896262785
0.527000000000000357,-0.209087824964080266
0.528000000000000358,-0.213025013968372923
0.529000000000000359,-0.216812551933865005
0.530000000000000360,-0.220452450704571146
0.531000000000000361,-0.223946726990085276
0.532000000000000361,-0.227297401434767898
0.533000000000000362,-0.230506497709794728
0.534000000000000363,-0.233576041627954645
0.535000000000000364,-0.236508060281126115
0.536000000000000365,-0.239304581200251498
0.537000000000000366,-0.241967631537740424
0.538000000000000367,-0.244499237272056524
0.539000000000000368,-0.246901422434443379
0.540000000000000369,-0.249176208357457796
0.541000000000000369,-0.251325612945273114
0.542000000000000370,-0.253351649965395886
0.543000000000000371,-0.255256328361704976
0.544000000000000372,-0.257041651588509446
0.545000000000000373,-0.258709616965422107
0.546000000000000374,-0.260262215052796175
0.547000000000000375,-0.261701429047462963
0.548000000000000376,-0.263029234198542405
0.549000000000000377,-0.264247597243014387
0.550000000000000377,-0.265358475860829501
0.551000000000000378,-0.266363818149221165
0.552000000000000379,-0.267265562116005329
0.553000000000000380,-0.268065635191523266
0.554000000000000381,-0.268765953758945630
0.555000000000000382,-0.269368422702700561
0.556000000000000383,-0.269874934974613456
0.557000000000000384,-0.270287371177595326
0.558000000000000385,-0.270607599166444557
0.559000000000000385,-0.270837473665559547
0.560000000000000386,-0.270978835903198489
0.561000000000000387,-0.271033513262000425
0.562000000000000388,-0.271003318945433391
0.563000000000000389,-0.270890051659919973
0.564000000000000390,-0.270695495312250345
0.565000000000000391,-0.270421418722041562
0.566000000000000392,-0.270069575348889368
0.567000000000000393,-0.269641703033949354
0.568000000000000393,-0.269139523755582311
0.569000000000000394,-0.268564743398807648
0.570000000000000395,-0.267919051538251185
0.571000000000000396,-0.267204121234240755
0.572000000000000397,-0.266421608841833524
0.573000000000000398,-0.265573153832377229
0.574000000000000399,-0.264660378627394444
0.575000000000000400,-0.263684888444430832
0.576000000000000401,-0.262648271154606483
0.577000000000000401,-0.261552097151601159
0.578000000000000402,-0.260397919231729502
0.579000000000000403,-0.259187272484855513
0.580000000000000404,-0.257921674195901562
0.581000000000000405,-0.256602623756582549
0.582000000000000406,-0.255231602587192241
0.583000000000000407,-0.253810074068083646
0.584000000000000408,-0.252339483480644944
0.585000000000000409,-0.250821257957457633
0.586000000000000409,-0.249256806441388784
0.587000000000000410,-0.247647519653393738
0.588000000000000411,-0.245994770068698188
0.589000000000000412,-0.244299911901218747
0.590000000000000413,-0.242564281095853623
0.591000000000000414,-0.240789195328497074
0.592000000000000415,-0.238975954013505965
0.593000000000000416,-0.237125838318353210
0.594000000000000417,-0.235240111185278600
0.595000000000000417,-0.233320017359720910
0.596000000000000418,-0.231366783425221545
0.597000000000000419,-0.229381617844710339
0.598000000000000420,-0.227365711007826515
0.599000000000000421,-0.225320235284172610
0.600000000000000422,-0.223246345082219660
0.601000000000000423,-0.221145176913681851
0.602000000000000424,-0.219017849463183201
0.603000000000000425,-0.216865463662999941
0.604000000000000425,-0.214689102772662649
0.605000000000000426,-0.212489832463278100
0.606000000000000427,-0.210268700906378531
0.607000000000000428,-0.208026738867033906
0.608000000000000429,-0.205764959801223279
0.609000000000000430,-0.203484359957073313
0.610000000000000431,-0.201185918480006221
0.611000000000000432,-0.198870597521471071
0.612000000000000433,-0.196539342351174040
0.613000000000000433,-0.194193081472654239
0.614000000000000434,-0.191832726742009491
0.615000000000000435,-0.189459173489640892
0.616000000000000436,-0.187073300644864909
0.617000000000000437,-0.184675970863287853
