# ZnO10m10NB_PYRROLIDIN2ONE-AC
# h[nm],U(h)[kJ/mol]
0.149999999999999994,145.192803981020063020
0.150999999999999995,142.900741448917784737
0.151999999999999996,140.772529282419498031
0.152999999999999997,138.681233376722900630
0.153999999999999998,136.586814778734833453
0.154999999999999999,134.489134995218790891
0.156000000000000000,132.402206525638803214
0.157000000000000001,130.341275427184370983
0.158000000000000002,128.317343580885250276
0.159000000000000002,126.335750525214663753
0.160000000000000003,124.396757346248250542
0.161000000000000004,122.496930273311519954
0.162000000000000005,120.630663074289458336
0.163000000000000006,118.791510811317124308
0.164000000000000007,116.973205167798894877
0.165000000000000008,115.170332194229743550
0.166000000000000009,113.378709587098640554
0.167000000000000010,111.595524055010699271
0.168000000000000010,109.819293916794919141
0.169000000000000011,108.049716690125933383
0.170000000000000012,106.287451533677497650
0.171000000000000013,104.533875231255365179
0.172000000000000014,102.790839740150460102
0.173000000000000015,101.060450047983437116
0.174000000000000016,99.344873520969457559
0.175000000000000017,97.646186091796920437
0.176000000000000018,95.966256368221365847
0.177000000000000018,94.306665809329700778
0.178000000000000019,92.668661260690356585
0.179000000000000020,91.053135119389651209
0.180000000000000021,89.460628000027398343
0.181000000000000022,87.891348811836522259
0.182000000000000023,86.345207488584364341
0.183000000000000024,84.821856122313874948
0.184000000000000025,83.320734852956078953
0.185000000000000026,81.841119495659384597
0.186000000000000026,80.382168502778398533
0.187000000000000027,78.942967429378498423
0.188000000000000028,77.522569582925044074
0.189000000000000029,76.120031981207304739
0.190000000000000030,74.734446115317084036
0.191000000000000031,73.364963318715737728
0.192000000000000032,72.010814783884399048
0.193000000000000033,70.671326451158165582
0.194000000000000034,69.345929127301786821
0.195000000000000034,68.034164281556741116
0.196000000000000035,66.735686021450959515
0.197000000000000036,65.450259776289826164
0.198000000000000037,64.177758218989211514
0.199000000000000038,62.918154942110355421
0.200000000000000039,61.671516376218129096
0.201000000000000040,60.437992401910413776
0.202000000000000041,59.217806064292176416
0.203000000000000042,58.011242752918576571
0.204000000000000042,56.818639163396312597
0.205000000000000043,55.640372310530381128
0.206000000000000044,54.476848818340009473
0.207000000000000045,53.328494670325405025
0.208000000000000046,52.195745564627259228
0.209000000000000047,51.079037983550719559
0.210000000000000048,49.978801055498522032
0.211000000000000049,48.895449259709828027
0.212000000000000050,47.829376000254711698
0.213000000000000050,46.780948055333062996
0.214000000000000051,45.750500890856109493
0.215000000000000052,44.738334813297463199
0.216000000000000053,43.744711925615078485
0.217000000000000054,42.769853841380296444
0.218000000000000055,41.813940105823590443
0.219000000000000056,40.877107268041427801
0.220000000000000057,39.959448545836607991
0.221000000000000058,39.061014023345848045
0.222000000000000058,38.181811321500596534
0.223000000000000059,37.321806682272054445
0.224000000000000060,36.480926409370447061
0.225000000000000061,35.659058610434946957
0.226000000000000062,34.856055188614362805
0.227000000000000063,34.071734034666555146
0.228000000000000064,33.305881374184529875
0.229000000000000065,32.558254228188552304
0.230000000000000066,31.828582949028394466
0.231000000000000066,31.116573797243937349
0.232000000000000067,30.421911528683711623
0.233000000000000068,29.744261964729908243
0.234000000000000069,29.083274521891922859
0.235000000000000070,28.438584680278967909
0.236000000000000071,27.809816373526295763
0.237000000000000072,27.196584285614807897
0.238000000000000073,26.598496042681023965
0.239000000000000073,26.015154290362346501
0.240000000000000074,25.446158649454957867
0.241000000000000075,24.891107544688630071
0.242000000000000076,24.349599903243781540
0.243000000000000077,23.821236721260369507
0.244000000000000078,23.305622498025805100
0.245000000000000079,22.802366538786529304
0.246000000000000080,22.311084128219967226
0.247000000000000081,21.831397577536602483
0.248000000000000081,21.362937148971692380
0.249000000000000082,20.905341862081257887
0.250000000000000111,20.458260186789370749
0.251000000000000112,20.021350628555033779
0.252000000000000113,19.594282211346698119
0.253000000000000114,19.176734864342758868
0.254000000000000115,18.768399718424475964
0.255000000000000115,18.368979318605223483
0.256000000000000116,17.978187758554160069
0.257000000000000117,17.595750743331453947
0.258000000000000118,17.221405586364902263
0.259000000000000119,16.854901146568966652
0.260000000000000120,16.495997711345005143
0.261000000000000121,16.144466831011246910
0.262000000000000122,15.800091109997467242
0.263000000000000123,15.462663959907970934
0.264000000000000123,15.131989319311031750
0.265000000000000124,14.807881344857866779
0.266000000000000125,14.490164078072137244
0.267000000000000126,14.178671091885769684
0.268000000000000127,13.873245120730089752
0.269000000000000128,13.573737677726764872
0.270000000000000129,13.280008662260968322
0.271000000000000130,12.991925960962442232
0.272000000000000131,12.709365044870008177
0.273000000000000131,12.432208565312205195
0.274000000000000132,12.160345950802646797
0.275000000000000133,11.893673007023675581
0.276000000000000134,11.632091521756922958
0.277000000000000135,11.375508876414977877
0.278000000000000136,11.123837665633862670
0.279000000000000137,10.876995326203013903
0.280000000000000138,10.634903776437123923
0.281000000000000139,10.397489066932275037
0.282000000000000139,10.164681043498234203
0.283000000000000140,9.936413022918122451
0.284000000000000141,9.712621482056892575
0.285000000000000142,9.493245760719768001
0.286000000000000143,9.278227778551521254
0.287000000000000144,9.067511766166706622
0.288000000000000145,8.861044010608358334
0.289000000000000146,8.658772615150040153
0.290000000000000147,8.460647273380017097
0.291000000000000147,8.266619057439481111
0.292000000000000148,8.076640220225986155
0.293000000000000149,7.890664011320491333
0.294000000000000150,7.708644506349246583
0.295000000000000151,7.530536449451186165
0.296000000000000152,7.356295108486537337
0.297000000000000153,7.185876142592485749
0.298000000000000154,7.019235481667001508
0.299000000000000155,6.856329217341615490
0.300000000000000155,6.697113504987730614
0.301000000000000156,6.541544476288963850
0.302000000000000157,6.389578161902973008
0.303000000000000158,6.241170423730904027
0.304000000000000159,6.096276896309658966
0.305000000000000160,5.954852936842412348
0.306000000000000161,5.816853583384838267
0.307000000000000162,5.682233520709016439
0.308000000000000163,5.550947053373342044
0.309000000000000163,5.422948085534529561
0.310000000000000164,5.298190107047266117
0.311000000000000165,5.176626185407738667
0.312000000000000166,5.058208963108787870
0.313000000000000167,4.942890659987289936
0.314000000000000168,4.830623080157561589
0.315000000000000169,4.721357623138745296
0.316000000000000170,4.615045298798411189
0.317000000000000171,4.511636745749759037
0.318000000000000171,4.411082252854771291
0.319000000000000172,4.313331783500973238
0.320000000000000173,4.218335002334965722
0.321000000000000174,4.126041304151277345
0.322000000000000175,4.036399844650324198
0.323000000000000176,3.949359572794633344
0.324000000000000177,3.864869264507325486
0.325000000000000178,3.782877557471959307
0.326000000000000179,3.703332986806847860
0.327000000000000179,3.626184021401708257
0.328000000000000180,3.551379100718022208
0.329000000000000181,3.478866671867896887
0.330000000000000182,3.408595226799666200
0.331000000000000183,3.340513339430613904
0.332000000000000184,3.274569702579858355
0.333000000000000185,3.210713164565960565
0.334000000000000186,3.148892765345206790
0.335000000000000187,3.089057772077402397
0.336000000000000187,3.031157714016280202
0.337000000000000188,2.975142416631853415
0.338000000000000189,2.920962034881132041
0.339000000000000190,2.868567085552878204
0.340000000000000191,2.817908478620685386
0.341000000000000192,2.768937547546513223
0.342000000000000193,2.721606078484799518
0.343000000000000194,2.675866338344179418
0.344000000000000195,2.631671101671119839
0.345000000000000195,2.588973676325590390
0.346000000000000196,2.547727927925507618
0.347000000000000197,2.507888303041893696
0.348000000000000198,2.469409851132132960
0.349000000000000199,2.432248245203596504
0.350000000000000200,2.396359801204332562
0.351000000000000201,2.361701496141894285
0.352000000000000202,2.328230984935134362
0.353000000000000203,2.295906616007402867
0.354000000000000203,2.264687445632863394
0.355000000000000204,2.234533251050723202
0.356000000000000205,2.205404542364768794
0.357000000000000206,2.177262573248033739
0.358000000000000207,2.150069350474961283
0.359000000000000208,2.123787642305023482
0.360000000000000209,2.098380985743712124
0.361000000000000210,2.073813692708510903
0.362000000000000210,2.050050855128549898
0.363000000000000211,2.027058349008092897
0.364000000000000212,2.004802837484810141
0.365000000000000213,1.983251772914812694
0.366000000000000214,1.962373398016993731
0.367000000000000215,1.942136746109881518
0.368000000000000216,1.922511640474452888
0.369000000000000217,1.903468692876939983
0.370000000000000218,1.884979301285506281
0.371000000000000218,1.867015646815052055
0.372000000000000219,1.849550689934142955
0.373000000000000220,1.832558165968071417
0.374000000000000221,1.816012579931801429
0.375000000000000222,1.799889200726395133
0.376000000000000223,1.784164054731885773
0.377000000000000224,1.768813918829507559
0.378000000000000225,1.753816312885437823
0.379000000000000226,1.739149491727890462
0.380000000000000226,1.724792436648603156
0.381000000000000227,1.710724846459459769
0.382000000000000228,1.696927128134004148
0.383000000000000229,1.683380387063182493
0.384000000000000230,1.670066416953859489
0.385000000000000231,1.656967689397803367
0.386000000000000232,1.644067343138333914
0.387000000000000233,1.631349173060778979
0.388000000000000234,1.618797618932377613
0.389000000000000234,1.606397753916201765
0.390000000000000235,1.594135272883119514
0.391000000000000236,1.581996480544806571
0.392000000000000237,1.569968279430202340
0.393000000000000238,1.558038157726782114
0.394000000000000239,1.546194177007442105
0.395000000000000240,1.534424959862786153
0.396000000000000241,1.522719677457931686
0.397000000000000242,1.511068037032149425
0.398000000000000242,1.499460269358766196
0.399000000000000243,1.487887116182163405
0.400000000000000244,1.476339817647799091
0.401000000000000245,1.464810099740413207
0.402000000000000246,1.453290161745067532
0.403000000000000247,1.441772663744615102
0.404000000000000248,1.430250714166763526
0.405000000000000249,1.418717857393037018
0.406000000000000250,1.407168061441397722
0.407000000000000250,1.395595705733455372
0.408000000000000251,1.383995568956742250
0.409000000000000252,1.372362817031736792
0.410000000000000253,1.360692991192831380
0.411000000000000254,1.348981996191759514
0.412000000000000255,1.337226088631518595
0.413000000000000256,1.325421865438096258
0.414000000000000257,1.313566252477053276
0.415000000000000258,1.301656493321123875
0.416000000000000258,1.289690138174874878
0.417000000000000259,1.277665032961650127
0.418000000000000260,1.265579308577792883
0.419000000000000261,1.253431370318538907
0.420000000000000262,1.241219887479642292
0.421000000000000263,1.228943783138249479
0.422000000000000264,1.216602224116335673
0.423000000000000265,1.204194611129425496
0.424000000000000266,1.191720569123019491
0.425000000000000266,1.179179937798934263
0.426000000000000267,1.166572762333170754
0.427000000000000268,1.153899284286837190
0.428000000000000269,1.141159932711220959
0.429000000000000270,1.128355315447803653
0.430000000000000271,1.115486210623857222
0.431000000000000272,1.102553558343801310
0.432000000000000273,1.089558452576480096
0.433000000000000274,1.076502133238047110
0.434000000000000274,1.063385978470103188
0.435000000000000275,1.050211497112448544
0.436000000000000276,1.036980321369562530
0.437000000000000277,1.023694199669845428
0.438000000000000278,1.010354989716385932
0.439000000000000279,0.996964651727878737
0.440000000000000280,0.983525241868188571
0.441000000000000281,0.970038905862901424
0.442000000000000282,0.956507872800973380
0.443000000000000282,0.942934449119683826
0.444000000000000283,0.929321012770691013
0.445000000000000284,0.915670007565142496
0.446000000000000285,0.901983937695552962
0.447000000000000286,0.888265362432032246
0.448000000000000287,0.874516890990549856
0.449000000000000288,0.860741177570607086
0.450000000000000289,0.846940916559817181
0.451000000000000290,0.833118837902717901
0.452000000000000290,0.819277702631099891
0.453000000000000291,0.805420298553159109
0.454000000000000292,0.791549436098614834
0.455000000000000293,0.777667944317017579
0.456000000000000294,0.763778667026356106
0.457000000000000295,0.749884459109078194
0.458000000000000296,0.735988182952627801
0.459000000000000297,0.722092705031561644
0.460000000000000298,0.708200892628295442
0.461000000000000298,0.694315610689556384
0.462000000000000299,0.680439718815541994
0.463000000000000300,0.666576068378905040
0.464000000000000301,0.652727499770515029
0.465000000000000302,0.638896839769140135
0.466000000000000303,0.625086899032057941
0.467000000000000304,0.611300469703683236
0.468000000000000305,0.597540323139318708
0.469000000000000306,0.583809207741126768
0.470000000000000306,0.570109846903418371
0.471000000000000307,0.556444937064489720
0.472000000000000308,0.542817145862097172
0.473000000000000309,0.529229110389816015
0.474000000000000310,0.515683435551527514
0.475000000000000311,0.502182692511248252
0.476000000000000312,0.488729417235646835
0.477000000000000313,0.475326109126518404
0.478000000000000314,0.461975229740660076
0.479000000000000314,0.448679201594431365
0.480000000000000315,0.435440407050552536
0.481000000000000316,0.422261187284510453
0.482000000000000317,0.409143841328160840
0.483000000000000318,0.396090625188025236
0.484000000000000319,0.383103751035891782
0.485000000000000320,0.370185386469374433
0.486000000000000321,0.357337653840044178
0.487000000000000322,0.344562629646897212
0.488000000000000322,0.331862343992934961
0.489000000000000323,0.319238780102573894
0.490000000000000324,0.306693873897806391
0.491000000000000325,0.294229513630961503
0.492000000000000326,0.281847539572015249
0.493000000000000327,0.269549743748388082
0.494000000000000328,0.257337869735286662
0.495000000000000329,0.245213612494608185
0.496000000000000330,0.233178618260561438
0.497000000000000330,0.221234484470052672
0.498000000000000331,0.209382759736170099
0.499000000000000332,0.197624943862846014
0.500000000000000333,0.185962487899043988
0.501000000000000334,0.174396794230814389
0.502000000000000335,0.162929216709482683
0.503000000000000336,0.151561060814453613
0.504000000000000337,0.140293583849008613
0.505000000000000338,0.129127995167616888
0.506000000000000338,0.118065456433243551
0.507000000000000339,0.107107081903224224
0.508000000000000340,0.096253938742333831
0.509000000000000341,0.085507047361600821
0.510000000000000342,0.074867381781649686
0.511000000000000343,0.064335870019173846
0.512000000000000344,0.053913394495379928
0.513000000000000345,0.043600792465124140
0.514000000000000346,0.033398856465556695
0.515000000000000346,0.023308334783194207
0.516000000000000347,0.013329931938244544
0.517000000000000348,0.003464309185109382
0.518000000000000349,-0.006287914971923048
0.519000000000000350,-0.015926164248877717
0.520000000000000351,-0.025449904039095063
0.521000000000000352,-0.034858640858058100
0.522000000000000353,-0.044151921776873194
0.523000000000000353,-0.053329333845370197
0.524000000000000354,-0.062390503505627096
0.525000000000000355,-0.071335095996767350
0.526000000000000356,-0.080162814751806311
0.527000000000000357,-0.088873400787357462
0.528000000000000358,-0.097466632086890964
0.529000000000000359,-0.105942322978311715
0.530000000000000360,-0.114300323506481366
0.531000000000000361,-0.122540518801425732
0.532000000000000361,-0.130662828442806023
0.533000000000000362,-0.138667205821298600
0.534000000000000363,-0.146553637497453371
0.535000000000000364,-0.154322142558639575
0.536000000000000365,-0.161972771974560198
0.537000000000000366,-0.169505607951932286
0.538000000000000367,-0.176920763288742539
0.539000000000000368,-0.184218380728690789
0.540000000000000369,-0.191398632316118006
0.541000000000000369,-0.198461718752025978
0.542000000000000370,-0.205407868751458084
0.543000000000000371,-0.212237338402762321
0.544000000000000372,-0.218950410529053036
0.545000000000000373,-0.225547394052261596
0.546000000000000374,-0.232028623360121783
0.547000000000000375,-0.238394457676407517
0.548000000000000376,-0.244645280434777013
0.549000000000000377,-0.250781498656471424
0.550000000000000377,-0.256803542332204038
0.551000000000000378,-0.262711863808461066
0.552000000000000379,-0.268506937178512595
0.553000000000000380,-0.274189257678349951
0.554000000000000381,-0.279759341087763014
0.555000000000000382,-0.285217723136840795
0.556000000000000383,-0.290564958917978955
0.557000000000000384,-0.295801622303726308
0.558000000000000385,-0.300928305370503857
0.559000000000000385,-0.305945617828488170
0.560000000000000386,-0.310854186457724335
0.561000000000000387,-0.315654654550659997
0.562000000000000388,-0.320347681361206060
0.563000000000000389,-0.324933941560485218
0.564000000000000390,-0.329414124699328847
0.565000000000000391,-0.333788934677677562
0.566000000000000392,-0.338059089220935693
0.567000000000000393,-0.342225319363423708
0.568000000000000393,-0.346288368938922730
0.569000000000000394,-0.350248994078475984
0.570000000000000395,-0.354107962715437430
0.571000000000000396,-0.357866054097837338
0.572000000000000397,-0.361524058308163365
0.573000000000000398,-0.365082775790504077
0.574000000000000399,-0.368543016885191643
0.575000000000000400,-0.371905601370874583
0.576000000000000401,-0.375171358014106338
0.577000000000000401,-0.378341124126466144
0.578000000000000402,-0.381415745129167261
0.579000000000000403,-0.384396074125194942
0.580000000000000404,-0.387282971479001481
0.581000000000000405,-0.390077304403672387
0.582000000000000406,-0.392779946555641801
0.583000000000000407,-0.395391777636863728
0.584000000000000408,-0.397913683004486540
0.585000000000000409,-0.400346553287952989
0.586000000000000409,-0.402691284013521611
0.587000000000000410,-0.404948775236207759
0.588000000000000411,-0.407119931179018568
0.589000000000000412,-0.409205659879578021
0.590000000000000413,-0.411206872843953353
0.591000000000000414,-0.413124484707756534
0.592000000000000415,-0.414959412904415903
0.593000000000000416,-0.416712577340564549
0.594000000000000417,-0.418384900078512145
0.595000000000000417,-0.419977305025764136
0.596000000000000418,-0.421490717631449907
0.597000000000000419,-0.422926064589718487
0.598000000000000420,-0.424284273549917601
0.599000000000000421,-0.425566272833598269
0.600000000000000422,-0.426772991158203774
0.601000000000000423,-0.427905357367403094
0.602000000000000424,-0.428964300168013846
0.603000000000000425,-0.429950747873435624
0.604000000000000425,-0.430865628153488722
0.605000000000000426,-0.431709867790632695
0.606000000000000427,-0.432484392442500032
0.607000000000000428,-0.433190126410553600
0.608000000000000429,-0.433827992415014296
0.609000000000000430,-0.434398911375697860
0.610000000000000431,-0.434903802198961575
0.611000000000000432,-0.435343581570477423
0.612000000000000433,-0.435719163753841621
0.613000000000000433,-0.436031460394963155
0.614000000000000434,-0.436281380332083635
0.615000000000000435,-0.436469829411383514
0.616000000000000436,-0.436597710308096576
0.617000000000000437,-0.436665922353074276
