# ZnO10m10NB_NETHYLFORMAMIDE-AC
# h[nm],U(h)[kJ/mol]
0.149999999999999994,104.820586330635961758
0.150999999999999995,103.346307234398892660
0.151999999999999996,101.938022017866131819
0.152999999999999997,100.557723593826466413
0.153999999999999998,99.190800683481000988
0.154999999999999999,97.834368679750156161
0.156000000000000000,96.490453857967082740
0.157000000000000001,95.162291346300108330
0.158000000000000002,93.852548952468282550
0.159000000000000002,92.562682956236045584
0.160000000000000003,91.292909316266019459
0.161000000000000004,90.042465722982527154
0.162000000000000005,88.809970224144890949
0.163000000000000006,87.593768454680727586
0.164000000000000007,86.392216908302600586
0.165000000000000008,85.203883770285273158
0.166000000000000009,84.027668506372265256
0.167000000000000010,82.862851603125690758
0.168000000000000010,81.709090040979319269
0.169000000000000011,80.566374637850401541
0.170000000000000012,79.434963935686170089
0.171000000000000013,78.315306867285642056
0.172000000000000014,77.207963699072038821
0.173000000000000015,76.113532091550055725
0.174000000000000016,75.032582766351183068
0.175000000000000017,73.965607312079100666
0.176000000000000018,72.912979121326827681
0.177000000000000018,71.874927305069547856
0.178000000000000019,70.851522631617640968
0.179000000000000020,69.842674029038818162
0.180000000000000021,68.848133914609718431
0.181000000000000022,67.867510518212782245
0.182000000000000023,66.900285400685163495
0.183000000000000024,65.945834492343706756
0.184000000000000025,65.003451158142851796
0.185000000000000026,64.072370008102097927
0.186000000000000026,63.151790394975577669
0.187000000000000027,62.240898761219156654
0.188000000000000028,61.338889204186344273
0.189000000000000029,60.444981815788040080
0.190000000000000030,59.558438517021180303
0.191000000000000031,58.678576247364830465
0.192000000000000032,57.804777484167743751
0.193000000000000033,56.936498158996002417
0.194000000000000034,56.073273108365526696
0.195000000000000034,55.214719247653100354
0.196000000000000035,54.360536691756934147
0.197000000000000036,53.510508066783359027
0.198000000000000037,52.664496266101608057
0.199000000000000038,51.822440903802657886
0.200000000000000039,50.984353710977217133
0.201000000000000040,50.150313107109731448
0.202000000000000041,49.320458161849401790
0.203000000000000042,48.494982142799983649
0.204000000000000042,47.674125823879620611
0.205000000000000043,46.858170707144189748
0.206000000000000044,46.047432289454818033
0.207000000000000045,45.242253484555831733
0.208000000000000046,44.442998291419229417
0.209000000000000047,43.650045781392449840
0.210000000000000048,42.863784459942451122
0.211000000000000049,42.084607043724211906
0.212000000000000050,41.312905680348272597
0.213000000000000050,40.549067626567484979
0.214000000000000051,39.793471390586141467
0.215000000000000052,39.046483335733626063
0.216000000000000053,38.308454735731331198
0.217000000000000054,37.579719266097662000
0.218000000000000055,36.860590911755707566
0.219000000000000056,36.151362267503841963
0.220000000000000057,35.452303205552468057
0.221000000000000058,34.763659882702100390
0.222000000000000058,34.085654058817169698
0.223000000000000059,33.418482697933612258
0.224000000000000060,32.762317823521890148
0.225000000000000061,32.117306600022715202
0.226000000000000062,31.483571613696692992
0.227000000000000063,30.861211327010494188
0.228000000000000064,30.250300682155614851
0.229000000000000065,29.650891830805996108
0.230000000000000066,29.063014968821153872
0.231000000000000066,28.486679256249846759
0.232000000000000067,27.921873804652715734
0.233000000000000068,27.368568715412532555
0.234000000000000069,26.826716154314567575
0.235000000000000070,26.296251449239935738
0.236000000000000071,25.777094199306873179
0.237000000000000072,25.269149385209029646
0.238000000000000073,24.772308471828079490
0.239000000000000073,24.286450495437801322
0.240000000000000074,23.811443128961801818
0.241000000000000075,23.347143719801710660
0.242000000000000076,22.893400295714041448
0.243000000000000077,22.450052535085710304
0.244000000000000078,22.016932698743957530
0.245000000000000079,21.593866521138636472
0.246000000000000080,21.180674059359539285
0.247000000000000081,20.777170499001190507
0.248000000000000081,20.383166916369827248
0.249000000000000082,19.998470996944806899
0.250000000000000111,19.622887710366047287
0.251000000000000112,19.256219942524722910
0.252000000000000113,18.898269085590577276
0.253000000000000114,18.548835587022349358
0.254000000000000115,18.207719458779759947
0.255000000000000115,17.874720748093540834
0.256000000000000116,17.549639971254762827
0.257000000000000117,17.232278511963251333
0.258000000000000118,16.922438985828097913
0.259000000000000119,16.619925572645573908
0.260000000000000120,16.324544318093529682
0.261000000000000121,16.036103406479909950
0.262000000000000122,15.754413406167728340
0.263000000000000123,15.479287489272968159
0.264000000000000123,15.210541627196331405
0.265000000000000124,14.947994763507264082
0.266000000000000125,14.691468965649798761
0.267000000000000126,14.440789556886793221
0.268000000000000127,14.195785229842263320
0.269000000000000128,13.956288142942778308
0.270000000000000129,13.722134000998551073
0.271000000000000130,13.493162121103475570
0.272000000000000131,13.269215484972587404
0.273000000000000131,13.050140778774585115
0.274000000000000132,12.835788421457513309
0.275000000000000133,12.626012582507412318
0.276000000000000134,12.420671190022831709
0.277000000000000135,12.219625929933702224
0.278000000000000136,12.022742237139912191
0.279000000000000137,11.829889279294523163
0.280000000000000138,11.640939933908303061
0.281000000000000139,11.455770759406089354
0.282000000000000139,11.274261960722039788
0.283000000000000140,11.096297349979380442
0.284000000000000141,10.921764302761294729
0.285000000000000142,10.750553710442968480
0.286000000000000143,10.582559929020138867
0.287000000000000144,10.417680724837296680
0.288000000000000145,10.255817217588136359
0.289000000000000146,10.096873820932991350
0.290000000000000147,9.940758181050881603
0.291000000000000147,9.787381113419948875
0.292000000000000148,9.636656538096394442
0.293000000000000149,9.488501413741294854
0.294000000000000150,9.342835670624555888
0.295000000000000151,9.199582142816973729
0.296000000000000152,9.058666499764372659
0.297000000000000153,8.920017177422042920
0.298000000000000154,8.783565309112926656
0.299000000000000155,8.649244656259662989
0.300000000000000155,8.516991539127939603
0.301000000000000156,8.386744767707174475
0.302000000000000157,8.258445572843552185
0.303000000000000158,8.132037537730933963
0.304000000000000159,8.007466529855559401
0.305000000000000160,7.884680633482314072
0.306000000000000161,7.763630082762294826
0.307000000000000162,7.644267195534178327
0.308000000000000163,7.526546307885162435
0.309000000000000163,7.410423709531025693
0.310000000000000164,7.295857580069062820
0.311000000000000165,7.182807926152179334
0.312000000000000166,7.071236519627620787
0.313000000000000167,6.961106836678984777
0.314000000000000168,6.852383998006009058
0.315000000000000169,6.745034710072519424
0.316000000000000170,6.639027207449181844
0.317000000000000171,6.534331196274275833
0.318000000000000171,6.430917798852469502
0.319000000000000172,6.328759499408381117
0.320000000000000173,6.227830091009108671
0.321000000000000174,6.128104623667081974
0.322000000000000175,6.029559353632205188
0.323000000000000176,5.932171693879888963
0.324000000000000177,5.835920165799430848
0.325000000000000178,5.740784352085197995
0.326000000000000179,5.646744850831064255
0.327000000000000179,5.553783230826882189
0.328000000000000180,5.461881988054093640
0.329000000000000181,5.371024503375918080
0.330000000000000182,5.281195001416242540
0.331000000000000183,5.192378510619866105
0.332000000000000184,5.104560824485526283
0.333000000000000185,5.017728463961968366
0.334000000000000186,4.931868640996168729
0.335000000000000187,4.846969223221810452
0.336000000000000187,4.763018699775130038
0.337000000000000188,4.680006148224502560
0.338000000000000189,4.597921202599090762
0.339000000000000190,4.516754022501290322
0.340000000000000191,4.436495263287033808
0.341000000000000192,4.357136047297254677
0.342000000000000193,4.278667936123339288
0.343000000000000194,4.201082903888778475
0.344000000000000195,4.124373311528977126
0.345000000000000195,4.048531882050403041
0.346000000000000196,3.973551676750243011
0.347000000000000197,3.899426072377159436
0.348000000000000198,3.826148739213606209
0.349000000000000199,3.753713620059832667
0.350000000000000200,3.682114910099524074
0.351000000000000201,3.611347037626899237
0.352000000000000202,3.541404645614941504
0.353000000000000203,3.472282574104311514
0.354000000000000203,3.403975843392464729
0.355000000000000204,3.336479638002523451
0.356000000000000205,3.269789291411359322
0.357000000000000206,3.203900271516386233
0.358000000000000207,3.138808166820745260
0.359000000000000208,3.074508673316531215
0.360000000000000209,3.010997582045771725
0.361000000000000210,2.948270767319248087
0.362000000000000210,2.886324175573073525
0.363000000000000211,2.825153814843417432
0.364000000000000212,2.764755744839737073
0.365000000000000213,2.705126067597244166
0.366000000000000214,2.646260918689468333
0.367000000000000215,2.588156458982100450
0.368000000000000216,2.530808866909425525
0.369000000000000217,2.474214331255146337
0.370000000000000218,2.418369044419418135
0.371000000000000218,2.363269196154480056
0.372000000000000219,2.308910967751329757
0.373000000000000220,2.255290526660340245
0.374000000000000221,2.202404021529046574
0.375000000000000222,2.150247577640633345
0.376000000000000223,2.098817292736863127
0.377000000000000224,2.048109233209788549
0.378000000000000225,1.998119430646693173
0.379000000000000226,1.948843878713216071
0.380000000000000226,1.900278530359804208
0.381000000000000227,1.852419295337230265
0.382000000000000228,1.805262038006980818
0.383000000000000229,1.758802575432923732
0.384000000000000230,1.713036675740896353
0.385000000000000231,1.667960056733187812
0.386000000000000232,1.623568384745378790
0.387000000000000233,1.579857273733176415
0.388000000000000234,1.536822284577431086
0.389000000000000234,1.494458924595676308
0.390000000000000235,1.452762647249053796
0.391000000000000236,1.411728852033702353
0.392000000000000237,1.371352884546126694
0.393000000000000238,1.331630036712306175
0.394000000000000239,1.292555547170757491
0.395000000000000240,1.254124601799962990
0.396000000000000241,1.216332334380999303
0.397000000000000242,1.179173827386499784
0.398000000000000242,1.142644112887336361
0.399000000000000243,1.106738173568854622
0.400000000000000244,1.071450943848633486
0.401000000000000245,1.036777311088138864
0.402000000000000246,1.002712116890995375
0.403000000000000247,0.969250158480682522
0.404000000000000248,0.936386190150986009
0.405000000000000249,0.904114924782605689
0.406000000000000250,0.872431035419769962
0.407000000000000250,0.841329156900796016
0.408000000000000251,0.810803887536935997
0.409000000000000252,0.780849790834020618
0.410000000000000253,0.751461397251668162
0.411000000000000254,0.722633205995094174
0.412000000000000255,0.694359686834771006
0.413000000000000256,0.666635281949362501
0.414000000000000257,0.639454407787721890
0.415000000000000258,0.612811456945729360
0.416000000000000258,0.586700800054216653
0.417000000000000259,0.561116787674182715
0.418000000000000260,0.536053752195883249
0.419000000000000261,0.511506009738425194
0.420000000000000262,0.487467862046831235
0.421000000000000263,0.463933598383508894
0.422000000000000264,0.440897497411495920
0.423000000000000265,0.418353829066752170
0.424000000000000266,0.396296856417090892
0.425000000000000266,0.374720837505498949
0.426000000000000267,0.353620027175622020
0.427000000000000268,0.332988678877463251
0.428000000000000269,0.312821046451425111
0.429000000000000270,0.293111385888930431
0.430000000000000271,0.273853957068069698
0.431000000000000272,0.255043025462726447
0.432000000000000273,0.236672863823883917
0.433000000000000274,0.218737753831809656
0.434000000000000274,0.201231987717989391
0.435000000000000275,0.184149869855796761
0.436000000000000276,0.167485718318910431
0.437000000000000277,0.151233866406676631
0.438000000000000278,0.135388664135645903
0.439000000000000279,0.119944479696606265
0.440000000000000280,0.104895700876549799
0.441000000000000281,0.090236736445073212
0.442000000000000282,0.075962017504719009
0.443000000000000282,0.062065998805021658
0.444000000000000283,0.048543160019825525
0.445000000000000284,0.035388006987769317
0.446000000000000285,0.022595072915721846
0.447000000000000286,0.010158919545031342
0.448000000000000287,-0.001925861719367106
0.449000000000000288,-0.013664648717090611
0.450000000000000289,-0.025062787477554992
0.451000000000000290,-0.036125591202271455
0.452000000000000290,-0.046858339284070641
0.453000000000000291,-0.057266276363003764
0.454000000000000292,-0.067354611418769444
0.455000000000000293,-0.077128516899363841
0.456000000000000294,-0.086593127885666643
0.457000000000000295,-0.095753541291672128
0.458000000000000296,-0.104614815099943484
0.459000000000000297,-0.113181967631990468
0.460000000000000298,-0.121459976853092885
0.461000000000000298,-0.129453779711182548
0.462000000000000299,-0.137168271509323786
0.463000000000000300,-0.144608305311287572
0.464000000000000301,-0.151778691379786335
0.465000000000000302,-0.158684196646814379
0.466000000000000303,-0.165329544215578272
0.467000000000000304,-0.171719412893525158
0.468000000000000305,-0.177858436755840010
0.469000000000000306,-0.183751204738926643
0.470000000000000306,-0.189402260263291183
0.471000000000000307,-0.194816100885191107
0.472000000000000308,-0.199997177976542539
0.473000000000000309,-0.204949896432464584
0.474000000000000310,-0.209678614405840180
0.475000000000000311,-0.214187643068340428
0.476000000000000312,-0.218481246397270956
0.477000000000000313,-0.222563640987670119
0.478000000000000314,-0.226438995889004596
0.479000000000000314,-0.230111432465926219
0.480000000000000315,-0.233585024282400078
0.481000000000000316,-0.236863797008680960
0.482000000000000317,-0.239951728350466270
0.483000000000000318,-0.242852747999670798
0.484000000000000319,-0.245570737606201212
0.485000000000000320,-0.248109530770136366
0.486000000000000321,-0.250472913053740698
0.487000000000000322,-0.252664622012714390
0.488000000000000322,-0.254688347246053493
0.489000000000000323,-0.256547730464050938
0.490000000000000324,-0.258246365573755132
0.491000000000000325,-0.259787798781391632
0.492000000000000326,-0.261175528711151073
0.493000000000000327,-0.262413006539833848
0.494000000000000328,-0.263503636146758757
0.495000000000000329,-0.264450774278447653
0.496000000000000330,-0.265257730727494867
0.497000000000000330,-0.265927768525208441
0.498000000000000331,-0.266464104147341729
0.499000000000000332,-0.266869907732600109
0.500000000000000333,-0.267148303313292701
0.501000000000000334,-0.267302369057667299
0.502000000000000335,-0.267335137523505073
0.503000000000000336,-0.267249595922428362
0.504000000000000337,-0.267048686394518620
0.505000000000000338,-0.266735306292751273
0.506000000000000338,-0.266312308476825077
0.507000000000000339,-0.265782501615952571
0.508000000000000340,-0.265148650500146632
0.509000000000000341,-0.264413476359671717
0.510000000000000342,-0.263579657192127281
0.511000000000000343,-0.262649828096903348
0.512000000000000344,-0.261626581616486831
0.513000000000000345,-0.260512468084322546
0.514000000000000346,-0.259309995978854957
0.515000000000000346,-0.258021632283323477
0.516000000000000347,-0.256649802851008246
0.517000000000000348,-0.255196892775601814
0.518000000000000349,-0.253665246766285268
0.519000000000000350,-0.252057169527282077
0.520000000000000351,-0.250374926141472554
0.521000000000000352,-0.248620742457859312
0.522000000000000353,-0.246796805482477177
0.523000000000000353,-0.244905263772530246
0.524000000000000354,-0.242948227833443886
0.525000000000000355,-0.240927770518543138
0.526000000000000356,-0.238845927431091398
0.527000000000000357,-0.236704697328456504
0.528000000000000358,-0.234506042528095371
0.529000000000000359,-0.232251889315179760
0.530000000000000360,-0.229944128351541238
0.531000000000000361,-0.227584615085791253
0.532000000000000361,-0.225175170164322813
0.533000000000000362,-0.222717579843021818
0.534000000000000363,-0.220213596399441158
0.535000000000000364,-0.217664938545284598
0.536000000000000365,-0.215073291838941000
0.537000000000000366,-0.212440309097952140
0.538000000000000367,-0.209767610811141564
0.539000000000000368,-0.207056785550349259
0.540000000000000369,-0.204309390381464284
0.541000000000000369,-0.201526951274727917
0.542000000000000370,-0.198710963514024758
0.543000000000000371,-0.195862892105113734
0.544000000000000372,-0.192984172182590841
0.545000000000000373,-0.190076209415472819
0.546000000000000374,-0.187140380411254331
0.547000000000000375,-0.184178033118308548
0.548000000000000376,-0.181190487226535357
0.549000000000000377,-0.178179034566095573
0.550000000000000377,-0.175144939504166569
0.551000000000000378,-0.172089439339552952
0.552000000000000379,-0.169013744695126783
0.553000000000000380,-0.165919039907924087
0.554000000000000381,-0.162806483416834846
0.555000000000000382,-0.159677208147842337
0.556000000000000383,-0.156532321896617477
0.557000000000000384,-0.153372907708525463
0.558000000000000385,-0.150200024255840725
0.559000000000000385,-0.147014706212189983
0.560000000000000386,-0.143817964624116057
0.561000000000000387,-0.140610787279698890
0.562000000000000388,-0.137394139074170640
0.563000000000000389,-0.134168962372505529
0.564000000000000390,-0.130936177368867923
0.565000000000000391,-0.127696682442929338
0.566000000000000392,-0.124451354512956996
0.567000000000000393,-0.121201049385694010
0.568000000000000393,-0.117946602102908304
0.569000000000000394,-0.114688827284648284
0.570000000000000395,-0.111428519469141035
0.571000000000000396,-0.108166453449271296
0.572000000000000397,-0.104903384605695968
0.573000000000000398,-0.101640049236459570
0.574000000000000399,-0.098377164883197615
0.575000000000000400,-0.095115430653807273
0.576000000000000401,-0.091855527541637103
0.577000000000000401,-0.088598118741172655
0.578000000000000402,-0.085343849960156273
0.579000000000000403,-0.082093349728169326
0.580000000000000404,-0.078847229701694027
0.581000000000000405,-0.075606084965562675
0.582000000000000406,-0.072370494330887714
0.583000000000000407,-0.069141020629383626
0.584000000000000408,-0.065918211004148769
0.585000000000000409,-0.062702597196860402
0.586000000000000409,-0.059494695831393572
0.587000000000000410,-0.056295008693905690
0.588000000000000411,-0.053104023009314029
0.589000000000000412,-0.049922211714275203
0.590000000000000413,-0.046750033726566928
0.591000000000000414,-0.043587934210964137
0.592000000000000415,-0.040436344841593017
0.593000000000000416,-0.037295684060748693
0.594000000000000417,-0.034166357334219355
0.595000000000000417,-0.031048757403164085
0.596000000000000418,-0.027943264532443002
0.597000000000000419,-0.024850246755579612
0.598000000000000420,-0.021770060116215195
0.599000000000000421,-0.018703048906198134
0.600000000000000422,-0.015649545900245115
0.601000000000000423,-0.012609872587228971
0.602000000000000424,-0.009584339398120773
0.603000000000000425,-0.006573245930597038
0.604000000000000425,-0.003576881170313595
0.605000000000000426,-0.000595523708909640
0.606000000000000427,0.002370558041230875
0.607000000000000428,0.005321105635536422
0.608000000000000429,0.008255870388903751
0.609000000000000430,0.011174613170661573
0.610000000000000431,0.014077104202605134
0.611000000000000432,0.016963122860214157
0.612000000000000433,0.019832457476975991
0.613000000000000433,0.022684905151769141
0.614000000000000434,0.025520271559313652
0.615000000000000435,0.028338370763649652
0.616000000000000436,0.031139025034617733
