# PLA-CHARMM_AMAN-AC
# h[nm],U(h)[kJ/mol]
0.149999999999999994,181.516076641353123478
0.150999999999999995,179.545541411166567514
0.151999999999999996,177.228599774100359809
0.152999999999999997,175.068768139791785643
0.153999999999999998,173.156745225463225779
0.154999999999999999,171.423858574942045152
0.156000000000000000,169.767373246085696792
0.157000000000000001,168.103900878217189074
0.158000000000000002,166.384960793401688761
0.159000000000000002,164.594624619299452206
0.160000000000000003,162.740368800285466477
0.161000000000000004,160.842906870161584720
0.162000000000000005,158.927631950280954243
0.163000000000000006,157.018545997886008081
0.164000000000000007,155.134647052551088109
0.165000000000000008,153.288341899647548416
0.166000000000000009,151.485329628432936033
0.167000000000000010,149.725426023125862685
0.168000000000000010,148.003888698892467346
0.169000000000000011,146.312912325072204567
0.170000000000000012,144.643067833677690714
0.171000000000000013,142.984548002376044451
0.172000000000000014,141.328150650411743072
0.173000000000000015,139.665980439146380832
0.174000000000000016,137.991883453082436972
0.175000000000000017,136.301648594862740538
0.176000000000000018,134.593019610903667171
0.177000000000000018,132.865564178127499417
0.178000000000000019,131.120444338671688911
0.179000000000000020,129.360127562155241776
0.180000000000000021,127.588071258680272990
0.181000000000000022,125.808406664235093331
0.182000000000000023,124.025641344243325648
0.183000000000000024,122.244393522558567611
0.184000000000000025,120.469166261367419679
0.185000000000000026,118.704165273956391502
0.186000000000000026,116.953160835815282326
0.187000000000000027,115.219391800129187686
0.188000000000000028,113.505508018326651154
0.189000000000000029,111.813546397372377328
0.190000000000000030,110.144935273316150415
0.191000000000000031,108.500521631916711840
0.192000000000000032,106.880615859784256827
0.193000000000000033,105.285049074887979259
0.194000000000000034,103.713238589325669636
0.195000000000000034,102.164257639859812343
0.196000000000000035,100.636906135791150518
0.197000000000000036,99.129779783713303232
0.198000000000000037,97.641335528924997789
0.199000000000000038,96.169951786414628714
0.200000000000000039,94.713982409742357049
0.201000000000000040,93.271803758490563041
0.202000000000000041,91.841854572959078951
0.203000000000000042,90.422668650153681824
0.204000000000000042,89.012900541644640384
0.205000000000000043,87.611344666724704666
0.206000000000000044,86.216948359404810276
0.207000000000000045,84.828819451438192800
0.208000000000000046,83.446229042039490764
0.209000000000000047,82.068610124299567588
0.210000000000000048,80.695552734127545591
0.211000000000000049,79.326796265000041330
0.212000000000000050,77.962219555412431760
0.213000000000000050,76.601829309684532632
0.214000000000000051,75.245747360049406893
0.215000000000000052,73.894197221590019353
0.216000000000000053,72.547490333897414416
0.217000000000000054,71.206012326158457881
0.218000000000000055,69.870209587174642252
0.219000000000000056,68.540576369641115662
0.220000000000000057,67.217642609625428918
0.221000000000000058,65.901962598088829282
0.222000000000000058,64.594104601746906269
0.223000000000000059,63.294641495686541077
0.224000000000000060,62.004142439888561000
0.225000000000000061,60.723165606003568939
0.226000000000000062,59.452251939160852601
0.227000000000000063,58.191919921964256446
0.228000000000000064,56.942661293821949187
0.229000000000000065,55.704937668015261920
0.230000000000000066,54.479177981085442184
0.231000000000000066,53.265776703847130591
0.232000000000000067,52.065092740283702710
0.233000000000000068,50.877448939414172457
0.234000000000000069,49.703132145638839745
0.235000000000000070,48.542393714788872217
0.236000000000000071,47.395450425867302613
0.237000000000000072,46.262485722042299585
0.238000000000000073,45.143651218635213240
0.239000000000000073,44.039068420457539332
0.240000000000000074,42.948830595728473725
0.241000000000000075,41.873004758827981675
0.242000000000000076,40.811633719185550717
0.243000000000000077,39.764738158585387851
0.244000000000000078,38.732318704009820465
0.245000000000000079,37.714357967780387071
0.246000000000000080,36.710822531151343640
0.247000000000000081,35.721664851622065839
0.248000000000000081,34.746825078048296120
0.249000000000000082,33.786232761127237723
0.250000000000000111,32.839808450006088947
0.251000000000000112,31.907465168616237605
0.252000000000000113,30.989109767871269696
0.253000000000000114,30.084644152099496495
0.254000000000000115,29.193966380018071760
0.255000000000000115,28.316971642217197314
0.256000000000000116,27.453553118523682741
0.257000000000000117,26.603602719771998864
0.258000000000000118,25.767011719449669727
0.259000000000000119,24.943671281418311025
0.260000000000000120,24.133472890463870897
0.261000000000000121,23.336308692818626298
0.262000000000000122,22.552071754039864970
0.263000000000000123,21.780656241746232382
0.264000000000000123,21.021957540716659452
0.265000000000000124,20.275872307766043434
0.266000000000000125,19.542298473640585144
0.267000000000000126,18.821135198937213318
0.268000000000000127,18.112282790757568307
0.269000000000000128,17.415642586471449249
0.270000000000000129,16.731116810593867683
0.271000000000000130,16.058608410385431853
0.272000000000000131,15.398020875376122518
0.273000000000000131,14.749258045592124944
0.274000000000000132,14.112223912843726126
0.275000000000000133,13.486822419011636143
0.276000000000000134,12.872957254856057574
0.277000000000000135,12.270531662471217516
0.278000000000000136,11.679448244118436406
0.279000000000000137,11.099608779799373437
0.280000000000000138,10.530914055577721200
0.281000000000000139,9.973263704322878453
0.282000000000000139,9.426556060237441415
0.283000000000000140,8.890688028238361795
0.284000000000000141,8.365554968993038187
0.285000000000000142,7.851050600164458437
0.286000000000000143,7.347066914194262388
0.287000000000000144,6.853494112749528355
0.288000000000000145,6.370220557775542858
0.289000000000000146,5.897132738935896512
0.290000000000000147,5.434115257076685523
0.291000000000000147,4.981050823228683200
0.292000000000000148,4.537820272553117817
0.293000000000000149,4.104302592547574235
0.294000000000000150,3.680374964752394895
0.295000000000000151,3.265912819138260037
0.296000000000000152,2.860789900307458389
0.297000000000000153,2.464878344607102090
0.298000000000000154,2.078048767227548499
0.299000000000000155,1.700170358346123622
0.300000000000000155,1.331110987371034504
0.301000000000000156,0.970737314344151669
0.302000000000000157,0.618914907571271322
0.303000000000000158,0.275508366566322160
0.304000000000000159,-0.059618550582119581
0.305000000000000160,-0.386602796285844430
0.306000000000000161,-0.705581899806196566
0.307000000000000162,-1.016693831675193227
0.308000000000000163,-1.320076866948634020
0.309000000000000163,-1.615869448011463927
0.310000000000000164,-1.904210047614306900
0.311000000000000165,-2.185237032777146204
0.312000000000000166,-2.459088530152912178
0.313000000000000167,-2.725902293399731224
0.314000000000000168,-2.985815573066757711
0.315000000000000169,-3.238964989455005217
0.316000000000000170,-3.485486408871681707
0.317000000000000171,-3.725514823654002328
0.318000000000000171,-3.959184236297608628
0.319000000000000172,-4.186627547984732800
0.320000000000000173,-4.407976451768333526
0.321000000000000174,-4.623361330631484911
0.322000000000000175,-4.832911160605759981
0.323000000000000176,-5.036753419098177531
0.324000000000000177,-5.235013998544390645
0.325000000000000178,-5.427817125474872384
0.326000000000000179,-5.615285285052817876
0.327000000000000179,-5.797539151114941447
0.328000000000000180,-5.974697521721696880
0.329000000000000181,-6.146877260200065862
0.330000000000000182,-6.314193241640324139
0.331000000000000183,-6.476758304788738485
0.332000000000000184,-6.634683209259691239
0.333000000000000185,-6.788076597974414206
0.334000000000000186,-6.937044964718699802
0.335000000000000187,-7.081692626698410820
0.336000000000000187,-7.222121701960148243
0.337000000000000188,-7.358432091533276598
0.338000000000000189,-7.490721466141346596
0.339000000000000190,-7.619085257322424809
0.340000000000000191,-7.743616652791509125
0.341000000000000192,-7.864406595872845074
0.342000000000000193,-7.981543788825547381
0.343000000000000194,-8.095114699882678622
0.344000000000000195,-8.205203573821188812
0.345000000000000195,-8.311892445879454527
0.346000000000000196,-8.415261158837461508
0.347000000000000197,-8.515387383075596617
0.348000000000000198,-8.612346639428409389
0.349000000000000199,-8.706212324651156464
0.350000000000000200,-8.797055739319192824
0.351000000000000201,-8.884946117982520875
0.352000000000000202,-8.969950661401021819
0.353000000000000203,-9.052134570689334581
0.354000000000000203,-9.131561083204257301
0.355000000000000204,-9.208291510011388681
0.356000000000000205,-9.282385274772593675
0.357000000000000206,-9.353899953900587150
0.358000000000000207,-9.422891317831362912
0.359000000000000208,-9.489413373270915386
0.360000000000000209,-9.553518406277721198
0.361000000000000210,-9.615257026047672184
0.362000000000000210,-9.674678209273858798
0.363000000000000211,-9.731829344958917716
0.364000000000000212,-9.786756279563515903
0.365000000000000213,-9.839503362379588225
0.366000000000000214,-9.890113491023118542
0.367000000000000215,-9.938628156946197834
0.368000000000000216,-9.985087490874104077
0.369000000000000217,-10.029530308078054901
0.370000000000000218,-10.071994153400060767
0.371000000000000218,-10.112515345951177181
0.372000000000000219,-10.151129023409898977
0.373000000000000220,-10.187869185852354903
0.374000000000000221,-10.222768739050769327
0.375000000000000222,-10.255859537181509111
0.376000000000000223,-10.287172424888927580
0.377000000000000224,-10.316737278655281784
0.378000000000000225,-10.344583047431639145
0.379000000000000226,-10.370737792488840867
0.380000000000000226,-10.395228726451829715
0.381000000000000227,-10.418082251484028333
0.382000000000000228,-10.439323996592943189
0.383000000000000229,-10.458978854031173000
0.384000000000000230,-10.477071014770645618
0.385000000000000231,-10.493624003031385428
0.386000000000000232,-10.508660709848854253
0.387000000000000233,-10.522203425667285615
0.388000000000000234,-10.534273871948895973
0.389000000000000234,-10.544893231791931498
0.390000000000000235,-10.554082179552606746
0.391000000000000236,-10.561860909468787639
0.392000000000000237,-10.568249163285159398
0.393000000000000238,-10.573266256882149605
0.394000000000000239,-10.576931105912288800
0.395000000000000240,-10.579262250450151228
0.396000000000000241,-10.580277878663329361
0.397000000000000242,-10.579995849513549544
0.398000000000000242,-10.578433714498748586
0.399000000000000243,-10.575608738447947132
0.400000000000000244,-10.571537919382318904
0.401000000000000245,-10.566238007456874470
0.402000000000000246,-10.559725522998110847
0.403000000000000247,-10.552016773654207427
0.404000000000000248,-10.543127870674876334
0.405000000000000249,-10.533074744339076645
0.406000000000000250,-10.521873158549128746
0.407000000000000250,-10.509538724610655080
0.408000000000000251,-10.496086914218146546
0.409000000000000252,-10.481533071666415680
0.410000000000000253,-10.465892425308572555
0.411000000000000254,-10.449180098281530604
0.412000000000000255,-10.431411118520136583
0.413000000000000256,-10.412600428081452364
0.414000000000000257,-10.392762891800522596
0.415000000000000258,-10.371913305299415242
0.416000000000000258,-10.350066402370918794
0.417000000000000259,-10.327236861758709807
0.418000000000000260,-10.303439313355360341
0.419000000000000261,-10.278688343839707642
0.420000000000000262,-10.252998501774781559
0.421000000000000263,-10.226384302187529585
0.422000000000000264,-10.198860230651089154
0.423000000000000265,-10.170440746890324846
0.424000000000000266,-10.141140287931179387
0.425000000000000266,-10.110973270813648384
0.426000000000000267,-10.079954094888460503
0.427000000000000268,-10.048097143716777424
0.428000000000000269,-10.015416786592034271
0.429000000000000270,-9.981927379702765890
0.430000000000000271,-9.947643266954608876
0.431000000000000272,-9.912578780469686990
0.432000000000000273,-9.876748240780669263
0.433000000000000274,-9.840165956736923292
0.434000000000000274,-9.802846225139226988
0.435000000000000275,-9.764803330119541158
0.436000000000000276,-9.726051542281586748
0.437000000000000277,-9.686605117617640204
0.438000000000000278,-9.646478296216558945
0.439000000000000279,-9.605685300777556890
0.440000000000000280,-9.564240334943747257
0.441000000000000281,-9.522157581469135934
0.442000000000000282,-9.479451200232299257
0.443000000000000282,-9.436135326109271304
0.444000000000000283,-9.392224066718268816
0.445000000000000284,-9.347731500047773423
0.446000000000000285,-9.302671671979574342
0.447000000000000286,-9.257058593717834682
0.448000000000000287,-9.210906239134443396
0.449000000000000288,-9.164228542041239933
0.450000000000000289,-9.117039393398348679
0.451000000000000290,-9.069352638468355821
0.452000000000000290,-9.021182073925052336
0.453000000000000291,-8.972541444925246523
0.454000000000000292,-8.923444442151950540
0.455000000000000293,-8.873904698836456717
0.456000000000000294,-8.823935787766947314
0.457000000000000295,-8.773551218290556619
0.458000000000000296,-8.722764433315431276
0.459000000000000297,-8.671588806319405762
0.460000000000000298,-8.620037638370979138
0.461000000000000298,-8.568124155168501233
0.462000000000000299,-8.515861504102760549
0.463000000000000300,-8.463262751348004542
0.464000000000000301,-8.410340878986250601
0.465000000000000302,-8.357108782169207828
0.466000000000000303,-8.303579266321943209
0.467000000000000304,-8.249765044392281865
0.468000000000000305,-8.195678734149453248
0.469000000000000306,-8.141332855535299728
0.470000000000000306,-8.086739828071376479
0.471000000000000307,-8.031911968324404683
0.472000000000000308,-7.976861487433120956
0.473000000000000309,-7.921600488698629761
0.474000000000000310,-7.866140965240603578
0.475000000000000311,-7.810494797721142746
0.476000000000000312,-7.754673752138380394
0.477000000000000313,-7.698689477691016414
0.478000000000000314,-7.642553504715467128
0.479000000000000314,-7.586277242696807477
0.480000000000000315,-7.529871978354433004
0.481000000000000316,-7.473348873803504766
0.482000000000000317,-7.416718964792775814
0.483000000000000318,-7.359993159019464493
0.484000000000000319,-7.303182234521607086
0.485000000000000320,-7.246296838148199804
0.486000000000000321,-7.189347484107321051
0.487000000000000322,-7.132344552592312148
0.488000000000000322,-7.075298288485849518
0.489000000000000323,-7.018218800141998948
0.490000000000000324,-6.961116058245745641
0.491000000000000325,-6.903999894749750510
0.492000000000000326,-6.846880001887811318
0.493000000000000327,-6.789765931264637011
0.494000000000000328,-6.732667093021101223
0.495000000000000329,-6.675592755074474027
0.496000000000000330,-6.618552042432672700
0.497000000000000330,-6.561553936581920432
0.498000000000000331,-6.504607274946589079
0.499000000000000332,-6.447720750420664615
0.500000000000000333,-6.390902910969492368
0.501000000000000334,-6.334162159300833039
0.502000000000000335,-6.277506752604215201
0.503000000000000336,-6.220944802357311509
0.504000000000000337,-6.164484274198211544
0.505000000000000338,-6.108132987862306962
0.506000000000000338,-6.051898617182611240
0.507000000000000339,-5.995788690152135558
0.508000000000000340,-5.939810589047011646
0.509000000000000341,-5.883971550609198076
0.510000000000000342,-5.828278666287095788
0.511000000000000343,-5.772738882533013260
0.512000000000000344,-5.717359001155854159
0.513000000000000345,-5.662145679727766279
0.514000000000000346,-5.607105432043335114
0.515000000000000346,-5.552244628629789958
0.516000000000000347,-5.497569497306885822
0.517000000000000348,-5.443086123795113807
0.518000000000000349,-5.388800452370542615
0.519000000000000350,-5.334718286565222733
0.520000000000000351,-5.280845289911348495
0.521000000000000352,-5.227186986728131757
0.522000000000000353,-5.173748762949628599
0.523000000000000353,-5.120535866992286245
0.524000000000000354,-5.067553410660877944
0.525000000000000355,-5.014806370091186238
0.526000000000000356,-4.962299586728262213
0.527000000000000357,-4.910037768338876063
0.528000000000000358,-4.858025490056578022
0.529000000000000359,-4.806267195458400643
0.530000000000000360,-4.754767197671464274
0.531000000000000361,-4.703529680508504285
0.532000000000000361,-4.652558699630792383
0.533000000000000362,-4.601858183737311592
0.534000000000000363,-4.551431935778833981
0.535000000000000364,-4.501283634195721639
0.536000000000000365,-4.451416834178142601
0.537000000000000366,-4.401834968947625271
0.538000000000000367,-4.352541351058541785
0.539000000000000368,-4.303539173718684552
0.540000000000000369,-4.254831512127391413
0.541000000000000369,-4.206421324830503572
0.542000000000000370,-4.158311455090680120
0.543000000000000371,-4.110504632272255598
0.544000000000000372,-4.063003473239457541
0.545000000000000373,-4.015810483767001671
0.546000000000000374,-3.968928059961938093
0.547000000000000375,-3.922358489695922490
0.548000000000000376,-3.876103954046818068
0.549000000000000377,-3.830166528748743637
0.550000000000000377,-3.784548185649574403
0.551000000000000378,-3.739250794175045911
0.552000000000000379,-3.694276122798625384
0.553000000000000380,-3.649625840516161901
0.554000000000000381,-3.605301518324567578
0.555000000000000382,-3.561304630703776120
0.556000000000000383,-3.517636557100976002
0.557000000000000384,-3.474298583416648878
0.558000000000000385,-3.431291903491349160
0.559000000000000385,-3.388617620592763391
0.560000000000000386,-3.346276748902185627
0.561000000000000387,-3.304270214999786681
0.562000000000000388,-3.262598859347983993
0.563000000000000389,-3.221263437772326821
0.564000000000000390,-3.180264622939212416
0.565000000000000391,-3.139603005829869176
0.566000000000000392,-3.099279097209996614
0.567000000000000393,-3.059293329094593616
0.568000000000000393,-3.019646056207284879
0.569000000000000394,-2.980337557433723639
0.570000000000000395,-2.941368037268614177
0.571000000000000396,-2.902737627255702613
0.572000000000000397,-2.864446387420481077
0.573000000000000398,-2.826494307694964014
0.574000000000000399,-2.788881309334286129
0.575000000000000400,-2.751607246324526024
0.576000000000000401,-2.714671906781518818
0.577000000000000401,-2.678075014340251414
0.578000000000000402,-2.641816229534359906
0.579000000000000403,-2.605895151165512402
0.580000000000000404,-2.570311317662376194
0.581000000000000405,-2.535064208428670973
0.582000000000000406,-2.500153245180243289
0.583000000000000407,-2.465577793270679940
0.584000000000000408,-2.431337163005342639
0.585000000000000409,-2.397430610943482421
0.586000000000000409,-2.363857341188200678
0.587000000000000410,-2.330616506664108023
0.588000000000000411,-2.297707210382336385
0.589000000000000412,-2.265128506692860810
0.590000000000000413,-2.232879402523791690
0.591000000000000414,-2.200958858607564572
0.592000000000000415,-2.169365790693874807
0.593000000000000416,-2.138099070749092778
0.594000000000000417,-2.107157528142111769
0.595000000000000417,-2.076539950816607583
0.596000000000000418,-2.046245086449231199
0.597000000000000419,-2.016271643594127028
0.598000000000000420,-1.986618292813216557
0.599000000000000421,-1.957283667792498960
0.600000000000000422,-1.928266366444078228
0.601000000000000423,-1.899564951993976347
0.602000000000000424,-1.871177954055613046
0.603000000000000425,-1.843103869688914598
0.604000000000000425,-1.815341164445027911
0.605000000000000426,-1.787888273396563310
0.606000000000000427,-1.760743602153475695
0.607000000000000428,-1.733905527864261886
0.608000000000000429,-1.707372400202946894
0.609000000000000430,-1.681142542341297119
0.610000000000000431,-1.655214251906782064
0.611000000000000432,-1.629585801925931721
