# PLA-CHARMM_PHESCA-JS
# h[nm],U(h)[kJ/mol]
0.149999999999999994,114.947806414290340626
0.150999999999999995,114.651018811143103449
0.151999999999999996,113.023637764729002697
0.152999999999999997,111.131190521981622510
0.153999999999999998,109.363317333248318164
0.154999999999999999,107.792478608591522971
0.156000000000000000,106.367292316582549461
0.157000000000000001,105.008694803876124979
0.158000000000000002,103.651377982910688047
0.159000000000000002,102.256273647920863823
0.160000000000000003,100.809215942804144106
0.161000000000000004,99.314261154581032542
0.162000000000000005,97.786090542405588621
0.163000000000000006,96.243535190389948752
0.164000000000000007,94.704923576557419551
0.165000000000000008,93.185257303944169394
0.166000000000000009,91.694906415903034258
0.167000000000000010,90.239416936876978070
0.168000000000000010,88.820037031538788597
0.169000000000000011,87.434632931004642842
0.170000000000000012,86.078746349212920563
0.171000000000000013,84.746622796323066495
0.172000000000000014,83.432106280817265542
0.173000000000000015,82.129347487659202898
0.174000000000000016,80.833309907007048878
0.175000000000000017,79.540083387218189159
0.176000000000000018,78.247029590180048331
0.177000000000000018,76.952791258904568394
0.178000000000000019,75.657199242069154366
0.179000000000000020,74.361109669807916589
0.180000000000000021,73.066199965566198671
0.181000000000000022,71.774747577187483216
0.182000000000000023,70.489410174684763888
0.183000000000000024,69.213021098965356259
0.184000000000000025,67.948409366080255722
0.185000000000000026,66.698249700362509884
0.186000000000000026,65.464944947955402199
0.187000000000000027,64.250540800028971944
0.188000000000000028,63.056670978299997898
0.189000000000000029,61.884529825167646777
0.190000000000000030,60.734868506756200190
0.191000000000000031,59.608010687995466981
0.192000000000000032,58.503883488110446365
0.193000000000000033,57.422059694729547630
0.194000000000000034,56.361807538015270325
0.195000000000000034,55.322144746630343093
0.196000000000000035,54.301894079675811611
0.197000000000000036,53.299738017668950363
0.198000000000000037,52.314270774726630009
0.199000000000000038,51.344046244560352932
0.200000000000000039,50.387620902178248627
0.201000000000000040,49.443591043967025200
0.202000000000000041,48.510624057757745220
0.203000000000000042,47.587483671294265264
0.204000000000000042,46.673049334176077707
0.205000000000000043,45.766330048348081050
0.206000000000000044,44.866473080034609211
0.207000000000000045,43.972768066690576916
0.208000000000000046,43.084647081282057002
0.209000000000000047,42.201681238163793353
0.210000000000000048,41.323574424905828550
0.211000000000000049,40.450154727175871017
0.212000000000000050,39.581364083308095303
0.213000000000000050,38.717246665104980252
0.214000000000000051,37.857936434849797536
0.215000000000000052,37.003644278104800946
0.216000000000000053,36.154645059824140674
0.217000000000000054,35.311264899391048289
0.218000000000000055,34.473868909792003024
0.219000000000000056,33.642849598317319249
0.220000000000000057,32.818616081693654962
0.221000000000000058,32.001584227925057746
0.222000000000000058,31.192167800644106990
0.223000000000000059,30.390770649594003316
0.224000000000000060,29.597779962964107625
0.225000000000000061,28.813560573575774271
0.226000000000000062,28.038450291164998873
0.227000000000000063,27.272756216978923050
0.228000000000000064,26.516751984300196199
0.229000000000000065,25.770675859013572051
0.230000000000000066,25.034729627607159586
0.231000000000000066,24.309078195718264226
0.232000000000000067,23.593849818171690913
0.233000000000000068,22.889136881100910159
0.234000000000000069,22.194997157899678086
0.235000000000000070,21.511455463149626866
0.236000000000000071,20.838505632060794426
0.237000000000000072,20.176112757120087338
0.238000000000000073,19.524215618369208158
0.239000000000000073,18.882729248852335502
0.240000000000000074,18.251547582127585656
0.241000000000000075,17.630546134200152153
0.242000000000000076,17.019584677692662922
0.243000000000000077,16.418509871429961322
0.244000000000000078,15.827157813807449571
0.245000000000000079,15.245356493272547382
0.246000000000000080,14.672928113935729044
0.247000000000000081,14.109691278703987649
0.248000000000000081,13.555463016376711138
0.249000000000000082,13.010060642845965972
0.250000000000000111,12.473303449895215778
0.251000000000000112,11.945014218094371472
0.252000000000000113,11.425020552948646824
0.253000000000000114,10.913156045789317972
0.254000000000000115,10.409261262903935830
0.255000000000000115,9.913184568114962403
0.256000000000000116,9.424782785442866739
0.257000000000000117,8.943921709655153762
0.258000000000000118,8.470476473427089203
0.259000000000000119,8.004331780542301544
0.260000000000000120,7.545382015064825865
0.261000000000000121,7.093531236738750856
0.262000000000000122,6.648693073036099577
0.263000000000000123,6.210790518299390328
0.264000000000000123,5.779755650328240790
0.265000000000000124,5.355529274558714192
0.266000000000000125,4.938060505694518376
0.267000000000000126,4.527306296286414344
0.268000000000000127,4.123230921332647014
0.269000000000000128,3.725805427503826373
0.270000000000000129,3.335007055088748729
0.271000000000000130,2.950818640225282508
0.272000000000000131,2.573228004431757032
0.273000000000000131,2.202227337895762638
0.274000000000000132,1.837812582417848173
0.275000000000000133,1.479982819351701284
0.276000000000000134,1.128739667336130292
0.277000000000000135,0.784086694082511415
0.278000000000000136,0.446028845965713905
0.279000000000000137,0.114571898672730835
0.280000000000000138,-0.210278068307915872
0.281000000000000139,-0.528515171020207730
0.282000000000000139,-0.840134192282213865
0.283000000000000140,-1.145131023313477714
0.284000000000000141,-1.443503074592293434
0.285000000000000142,-1.735249655125641777
0.286000000000000143,-2.020372319625628244
0.287000000000000144,-2.298875183369818220
0.288000000000000145,-2.570765204780855573
0.289000000000000146,-2.836052435991352372
0.290000000000000147,-3.094750241867707530
0.291000000000000147,-3.346875488148381095
0.292000000000000148,-3.592448699513135946
0.293000000000000149,-3.831494188537360124
0.294000000000000150,-4.064040156604542986
0.295000000000000151,-4.290118767948611023
0.296000000000000152,-4.509766198079462995
0.297000000000000153,-4.723022657909648814
0.298000000000000154,-4.929932394949913643
0.299000000000000155,-5.130543672976792813
0.300000000000000155,-5.324908731598204881
0.301000000000000156,-5.513083727154023173
0.302000000000000157,-5.695128656389575994
0.303000000000000158,-5.871107264330747810
0.304000000000000159,-6.041086937772620402
0.305000000000000160,-6.205138585768648518
0.306000000000000161,-6.363336508476558073
0.307000000000000162,-6.515758255680381694
0.308000000000000163,-6.662484476266454791
0.309000000000000163,-6.803598759885788994
0.310000000000000164,-6.939187471986395295
0.311000000000000165,-7.069339583347352018
0.312000000000000166,-7.194146495193052715
0.313000000000000167,-7.313701860910605035
0.314000000000000168,-7.428101405337199203
0.315000000000000169,-7.537442742527355577
0.316000000000000170,-7.641825192853064941
0.317000000000000171,-7.741349600232664940
0.318000000000000171,-7.836118150228045920
0.319000000000000172,-7.926234189694343790
0.320000000000000173,-8.011802048611329496
0.321000000000000174,-8.092926864672616460
0.322000000000000175,-8.169714411156867584
0.323000000000000176,-8.242270928554798815
0.324000000000000177,-8.310702960377348347
0.325000000000000178,-8.375117193523307080
0.326000000000000179,-8.435620303540424914
0.327000000000000179,-8.492318805070580012
0.328000000000000180,-8.545318907729143376
0.329000000000000181,-8.594726377629950065
0.330000000000000182,-8.640646404730258467
0.331000000000000183,-8.683183476136109746
0.332000000000000184,-8.722441255475290589
0.333000000000000185,-8.758522468415160134
0.334000000000000186,-8.791528794373963507
0.335000000000000187,-8.821560764447692549
0.336000000000000187,-8.848717665550360323
0.337000000000000188,-8.873097450742342573
0.338000000000000189,-8.894796655701291854
0.339000000000000190,-8.913910321270659409
0.340000000000000191,-8.930531922003453360
0.341000000000000192,-8.944753300603577983
0.342000000000000193,-8.956664608152482998
0.343000000000000194,-8.966354249996618009
0.344000000000000195,-8.973908837159564555
0.345000000000000195,-8.979413143133298192
0.346000000000000196,-8.982950065894122815
0.347000000000000197,-8.984600594981591470
0.348000000000000198,-8.984443783472588763
0.349000000000000199,-8.982556724677417392
0.350000000000000200,-8.979014533380853536
0.351000000000000201,-8.973890331447716306
0.352000000000000202,-8.967255237610299190
0.353000000000000203,-8.959178361253565370
0.354000000000000203,-8.949726800013172223
0.355000000000000204,-8.938965641001310303
0.356000000000000205,-8.926957965476091772
0.357000000000000206,-8.913764856771360101
0.358000000000000207,-8.899445411305288545
0.359000000000000208,-8.884056752488678654
0.360000000000000209,-8.867654047356269942
0.361000000000000210,-8.850290525747478654
0.362000000000000210,-8.832017501866349818
0.363000000000000211,-8.812884398054157131
0.364000000000000212,-8.792938770612250821
0.365000000000000213,-8.772226337516567440
0.366000000000000214,-8.750791007870059701
0.367000000000000215,-8.728674912943482411
0.368000000000000216,-8.705918438660059877
0.369000000000000217,-8.682560259384015211
0.370000000000000218,-8.658637372878242644
0.371000000000000218,-8.634185136301017138
0.372000000000000219,-8.609237303116975326
0.373000000000000220,-8.583826060802540070
0.374000000000000221,-8.557982069230952504
0.375000000000000222,-8.531734499627162904
0.376000000000000223,-8.505111073988020465
0.377000000000000224,-8.478138104867889879
0.378000000000000225,-8.450840535434986478
0.379000000000000226,-8.423241979708409488
0.380000000000000226,-8.395364762890860533
0.381000000000000227,-8.367229961716386555
0.382000000000000228,-8.338857444737495683
0.383000000000000229,-8.310265912480165440
0.384000000000000230,-8.281472937399787071
0.385000000000000231,-8.252495003575475607
0.386000000000000232,-8.223347546084124104
0.387000000000000233,-8.194044989999813566
0.388000000000000234,-8.164600788967948830
0.389000000000000234,-8.135027463307530127
0.390000000000000235,-8.105336637598281158
0.391000000000000236,-8.075539077713290936
0.392000000000000237,-8.045644727260848228
0.393000000000000238,-8.015662743402790724
0.394000000000000239,-7.985601532019482640
0.395000000000000240,-7.955468782194891730
0.396000000000000241,-7.925271499997853297
0.397000000000000242,-7.895016041538497120
0.398000000000000242,-7.864708145281488427
0.399000000000000243,-7.834352963600134778
0.400000000000000244,-7.803955093557830125
0.401000000000000245,-7.773518606905732042
0.402000000000000246,-7.743047079287424417
0.403000000000000247,-7.712543618643636023
0.404000000000000248,-7.682010892811879543
0.405000000000000249,-7.651451156317710556
0.406000000000000250,-7.620866276355994451
0.407000000000000250,-7.590257757962265650
0.408000000000000251,-7.559626768375655281
0.409000000000000252,-7.528974160596389353
0.410000000000000253,-7.498300496142057625
0.411000000000000254,-7.467606067008223825
0.412000000000000255,-7.436890916839911547
0.413000000000000256,-7.406154861321819105
0.414000000000000257,-7.375397507795694807
0.415000000000000258,-7.344618274114695922
0.416000000000000258,-7.313816406744914289
0.417000000000000259,-7.282990998125333348
0.418000000000000260,-7.252141003297998267
0.419000000000000261,-7.221265255820834561
0.420000000000000262,-7.190362482976146552
0.421000000000000263,-7.159431320288289768
0.422000000000000264,-7.128470325364425264
0.423000000000000265,-7.097477991072670633
0.424000000000000266,-7.066452758072435003
0.425000000000000266,-7.035393026711685316
0.426000000000000267,-7.004297168306481858
0.427000000000000268,-6.973163535818136083
0.428000000000000269,-6.941990473943468132
0.429000000000000270,-6.910776328633936316
0.430000000000000271,-6.879519456059256299
0.431000000000000272,-6.848218231031404812
0.432000000000000273,-6.816871054904742877
0.433000000000000274,-6.785476362968092978
0.434000000000000274,-6.754032631344470516
0.435000000000000275,-6.722538383414193852
0.436000000000000276,-6.690992195776952478
0.437000000000000277,-6.659392703768252986
0.438000000000000278,-6.627738606545642952
0.439000000000000279,-6.596028671759876616
0.440000000000000280,-6.564261739825982822
0.441000000000000281,-6.532436727809091792
0.442000000000000282,-6.500552632939665898
0.443000000000000282,-6.468608535772439438
0.444000000000000283,-6.436603603003320018
0.445000000000000284,-6.404537089958139973
0.446000000000000285,-6.372408342766883393
0.447000000000000286,-6.340216800236968098
0.448000000000000287,-6.307961995438488678
0.449000000000000288,-6.275643557014540797
0.450000000000000289,-6.243261210229047897
0.451000000000000290,-6.210814777764477768
0.452000000000000290,-6.178304180281510405
0.453000000000000291,-6.145729436752281671
0.454000000000000292,-6.113090664578781919
0.455000000000000293,-6.080388079507414112
0.456000000000000294,-6.047621995350688451
0.457000000000000295,-6.014792823526539323
0.458000000000000296,-5.981901072425487520
0.459000000000000297,-5.948947346615728549
0.460000000000000298,-5.915932345895658528
0.461000000000000298,-5.882856864203326985
0.462000000000000299,-5.849721788391866184
0.463000000000000300,-5.816528096879599374
0.464000000000000301,-5.783276858183488578
0.465000000000000302,-5.749969229344007893
0.466000000000000303,-5.716606454249419933
0.467000000000000304,-5.683189861867152359
0.468000000000000305,-5.649720864389614405
0.469000000000000306,-5.616200955301573039
0.470000000000000306,-5.582631707376016550
0.471000000000000307,-5.549014770604968838
0.472000000000000308,-5.515351870071723894
0.473000000000000309,-5.481644803770511665
0.474000000000000310,-5.447895440379458165
0.475000000000000311,-5.414105716992398065
0.476000000000000312,-5.380277636815050002
0.477000000000000313,-5.346413266830470690
0.478000000000000314,-5.312514735438857549
0.479000000000000314,-5.278584230076378780
0.480000000000000315,-5.244623994817390056
0.481000000000000316,-5.210636327964455639
0.482000000000000317,-5.176623579630119210
0.483000000000000318,-5.142588149314339496
0.484000000000000319,-5.108532483481246445
0.485000000000000320,-5.074459073138719134
0.486000000000000321,-5.040370451424048603
0.487000000000000322,-5.006269191198859048
0.488000000000000322,-4.972157902656130446
0.489000000000000323,-4.938039230942295355
0.490000000000000324,-4.903915853796823932
0.491000000000000325,-4.869790479211923540
0.492000000000000326,-4.835665843114528073
0.493000000000000327,-4.801544707072904927
0.494000000000000328,-4.767429856029745672
0.495000000000000329,-4.733324096063766362
0.496000000000000330,-4.699230252181449963
0.497000000000000330,-4.665151166140709016
0.498000000000000331,-4.631089694307781279
0.499000000000000332,-4.597048705548985481
0.500000000000000333,-4.563031079158420766
0.501000000000000334,-4.529039702822839075
0.502000000000000335,-4.495077470624804228
0.503000000000000336,-4.461147281085037442
0.504000000000000337,-4.427252035244839234
0.505000000000000338,-4.393394634789346220
0.506000000000000338,-4.359577980212346660
0.507000000000000339,-4.325804969023193891
0.508000000000000340,-4.292078493996354105
0.509000000000000341,-4.258401441464107151
0.510000000000000342,-4.224776689652618877
0.511000000000000343,-4.191207107061821091
0.512000000000000344,-4.157695550889205727
0.513000000000000345,-4.124244865497789903
0.514000000000000346,-4.090857880928336243
0.515000000000000346,-4.057537411455795606
0.516000000000000347,-4.024286254190043266
0.517000000000000348,-3.991107187720860594
0.518000000000000349,-3.958002970806913989
0.519000000000000350,-3.924976341108756372
0.520000000000000351,-3.892030013965455559
0.521000000000000352,-3.859166681214804218
0.522000000000000353,-3.826389010056622020
0.523000000000000353,-3.793699641958958146
0.524000000000000354,-3.761101191606834870
0.525000000000000355,-3.728596245893049055
0.526000000000000356,-3.696187362950685618
0.527000000000000357,-3.663877071226923299
0.528000000000000358,-3.631667868597509230
0.529000000000000359,-3.599562221521618532
0.530000000000000360,-3.567562564236355538
0.531000000000000361,-3.535671297990520934
0.532000000000000361,-3.503890790316983583
0.533000000000000362,-3.472223374343116120
0.534000000000000363,-3.440671348138686803
0.535000000000000364,-3.409236974100594786
0.536000000000000365,-3.377922478373818649
0.537000000000000366,-3.346730050307974214
0.538000000000000367,-3.315661841948737365
0.539000000000000368,-3.284719967563646037
0.540000000000000369,-3.253906503201402067
0.541000000000000369,-3.223223486284217731
0.542000000000000370,-3.192672915232327213
0.543000000000000371,-3.162256749120141208
0.544000000000000372,-3.131976907363263951
0.545000000000000373,-3.101835269435729181
0.546000000000000374,-3.071833674616712528
0.547000000000000375,-3.041973921766084832
0.548000000000000376,-3.012257769128089180
0.549000000000000377,-2.982686934162450676
0.550000000000000377,-2.953263093402193284
0.551000000000000378,-2.923987882337535815
0.552000000000000379,-2.894862895325150287
0.553000000000000380,-2.865889685522078345
0.554000000000000381,-2.837069764843632491
0.555000000000000382,-2.808404603944687494
0.556000000000000383,-2.779895632223503110
0.557000000000000384,-2.751544237847654006
0.558000000000000385,-2.723351767801178269
0.559000000000000385,-2.695319527952457328
0.560000000000000386,-2.667448783142082114
0.561000000000000387,-2.639740757290118367
0.562000000000000388,-2.612196633522081868
0.563000000000000389,-2.584817554313073806
0.564000000000000390,-2.557604621649376408
0.565000000000000391,-2.530558897206953706
0.566000000000000392,-2.503681402546229950
0.567000000000000393,-2.476973119322576355
0.568000000000000393,-2.450434989511879103
0.569000000000000394,-2.424067915650630844
0.570000000000000395,-2.397872761090044325
0.571000000000000396,-2.371850350263474461
0.572000000000000397,-2.346001468966792736
0.573000000000000398,-2.320326864651002019
0.574000000000000399,-2.294827246726703684
0.575000000000000400,-2.269503286879769544
0.576000000000000401,-2.244355619397804702
0.577000000000000401,-2.219384841506895079
0.578000000000000402,-2.194591513718058273
0.579000000000000403,-2.169976160183008318
0.580000000000000404,-2.145539269058772902
0.581000000000000405,-2.121281292880597746
0.582000000000000406,-2.097202648942814829
0.583000000000000407,-2.073303719687116242
0.584000000000000408,-2.049584853097910830
0.585000000000000409,-2.026046363104260450
0.586000000000000409,-2.002688529988001065
0.587000000000000410,-1.979511600797710047
0.588000000000000411,-1.956515789768004110
0.589000000000000412,-1.933701278743933161
0.590000000000000413,-1.911068217609955600
0.591000000000000414,-1.888616724723226614
0.592000000000000415,-1.866346887350834205
0.593000000000000416,-1.844258762110573269
0.594000000000000417,-1.822352375414976633
0.595000000000000417,-1.800627723918335921
0.596000000000000418,-1.779084774966191773
0.597000000000000419,-1.757723467047267674
0.598000000000000420,-1.736543710247270056
0.599000000000000421,-1.715545386704475650
0.600000000000000422,-1.694728351066695282
0.601000000000000423,-1.674092430949399413
0.602000000000000424,-1.653637427394717418
0.603000000000000425,-1.633363115331065263
0.604000000000000425,-1.613269244033132210
0.605000000000000426,-1.593355537581999215
0.606000000000000427,-1.573621695325200243
0.607000000000000428,-1.554067392336339726
0.608000000000000429,-1.534692279874323884
0.609000000000000430,-1.515495985841661897
0.610000000000000431,-1.496478115241947959
0.611000000000000432,-1.477638250636104322
0.612000000000000433,-1.458975952597275638
0.613000000000000433,-1.440490760164236939
