# PLA-CHARMM_GLY
# h[nm],U(h)[kJ/mol]
0.149999999999999994,110.575542719984539985
0.150999999999999995,109.670690560171038896
0.151999999999999996,108.403548882754847682
0.152999999999999997,107.066834919281092198
0.153999999999999998,105.761842890023757491
0.154999999999999999,104.503199822167488264
0.156000000000000000,103.273954219207027450
0.157000000000000001,102.052000432174878597
0.158000000000000002,100.820734972222240344
0.159000000000000002,99.571643781505741799
0.160000000000000003,98.303246150393661651
0.161000000000000004,97.018804927636011826
0.162000000000000005,95.724006658822034410
0.163000000000000006,94.425122069621366450
0.164000000000000007,93.127781575794500668
0.165000000000000008,91.836315669013771412
0.166000000000000009,90.553535435229250083
0.167000000000000010,89.280813806678850142
0.168000000000000010,88.018342934577162850
0.169000000000000011,86.765469522301970073
0.170000000000000012,85.521038308099576852
0.171000000000000013,84.283699265669994816
0.172000000000000014,83.052154530611488781
0.173000000000000015,81.825336210913448554
0.174000000000000016,80.602516579390595552
0.175000000000000017,79.383358507634881107
0.176000000000000018,78.167917299285818444
0.177000000000000018,76.956606168139430224
0.178000000000000019,75.750137209589269105
0.179000000000000020,74.549448410723783809
0.180000000000000021,73.355625471714333230
0.181000000000000022,72.169825280936777290
0.182000000000000023,70.993206008017978093
0.183000000000000024,69.826867081773997370
0.184000000000000025,68.671800872737122745
0.185000000000000026,67.528856728592160152
0.186000000000000026,66.398717112184257871
0.187000000000000027,65.281884944343630650
0.188000000000000028,64.178680825873726690
0.189000000000000029,63.089248568517881210
0.190000000000000030,62.013567366944869264
0.191000000000000031,60.951468958284465316
0.192000000000000032,59.902658211628612150
0.193000000000000033,58.866735740687474276
0.194000000000000034,57.843221316518885544
0.195000000000000034,56.831577056422155181
0.196000000000000035,55.831229566246385332
0.197000000000000036,54.841590406630892574
0.198000000000000037,53.862074432221028530
0.199000000000000038,52.892115712357416157
0.200000000000000039,51.931180879787426363
0.201000000000000040,50.978779869821210013
0.202000000000000041,50.034474106433876273
0.203000000000000042,49.097882265312492223
0.204000000000000042,48.168683798513427519
0.205000000000000043,47.246620443324694349
0.206000000000000044,46.331495961348039714
0.207000000000000045,45.423174364992704000
0.208000000000000046,44.521576889689058021
0.209000000000000047,43.626677963229553825
0.210000000000000048,42.738500410589267631
0.211000000000000049,41.857110115021519903
0.212000000000000050,40.982610335602359442
0.213000000000000050,40.115135858934721114
0.214000000000000051,39.254847139430843583
0.215000000000000052,38.401924559297121675
0.216000000000000053,37.556562916694907983
0.217000000000000054,36.718966229038926485
0.218000000000000055,35.889342918378801528
0.219000000000000056,35.067901427532639502
0.220000000000000057,34.254846299245485852
0.221000000000000058,33.450374736199968595
0.222000000000000058,32.654673647203750875
0.223000000000000059,31.867917174275866898
0.224000000000000060,31.090264686555855178
0.225000000000000061,30.321859219852790090
0.226000000000000062,29.562826335099167352
0.227000000000000063,28.813273364829093737
0.228000000000000064,28.073289013911498557
0.229000000000000065,27.342943278980783361
0.230000000000000066,26.622287650174701668
0.231000000000000066,25.911355558765109208
0.232000000000000067,25.210163034920860525
0.233000000000000068,24.518709541046366240
0.234000000000000069,23.836978947782448301
0.235000000000000070,23.164940621734483983
0.236000000000000071,22.502550596216838841
0.237000000000000072,21.849752798689898725
0.238000000000000073,21.206480311050633247
0.239000000000000073,20.572656641458586080
0.240000000000000074,19.948196988885658953
0.241000000000000075,19.333009484033038206
0.242000000000000076,18.726996392625363086
0.243000000000000077,18.130055269346222246
0.244000000000000078,17.542080052801669154
0.245000000000000079,16.962962093873624525
0.246000000000000080,16.392591111646268587
0.247000000000000081,15.830856072746922081
0.248000000000000081,15.277645991441071160
0.249000000000000082,14.732850649157668954
0.250000000000000111,14.196361233299469973
0.251000000000000112,13.668070896221285793
0.252000000000000113,13.147875236140666999
0.253000000000000114,12.635672702493453201
0.254000000000000115,12.131364928863728636
0.255000000000000115,11.634856997119550570
0.256000000000000116,11.146057636777632283
0.257000000000000117,10.664879363913788879
0.258000000000000118,10.191238564141741563
0.259000000000000119,9.725055524308121591
0.260000000000000120,9.266254417607225236
0.261000000000000121,8.814763246813907216
0.262000000000000122,8.370513750273996578
0.263000000000000123,7.933441275188274133
0.264000000000000123,7.503484622583883379
0.265000000000000124,7.080585868194368970
0.266000000000000125,6.664690163271075107
0.267000000000000126,6.255745519131111543
0.268000000000000127,5.853702579014107954
0.269000000000000128,5.458514380578012748
0.270000000000000129,5.070136112115228855
0.271000000000000130,4.688524865318569823
0.272000000000000131,4.313639387176196216
0.273000000000000131,3.945439833325889545
0.274000000000000132,3.583887524956723691
0.275000000000000133,3.228944711109984489
0.276000000000000134,2.880574338003896173
0.277000000000000135,2.538739826789926379
0.278000000000000136,2.203404860940960219
0.279000000000000137,1.874533184276900188
0.280000000000000138,1.552088410450443101
0.281000000000000139,1.236033844544160321
0.282000000000000139,0.926332317272430927
0.283000000000000140,0.622946032135309635
0.284000000000000141,0.325836425738138036
0.285000000000000142,0.034964041369078561
0.286000000000000143,-0.249711584182972957
0.287000000000000144,-0.528232020685648229
0.288000000000000145,-0.800640031599161084
0.289000000000000146,-1.066979648570631989
0.290000000000000147,-1.327296233634297051
0.291000000000000147,-1.581636529521883716
0.292000000000000148,-1.830048698537109386
0.293000000000000149,-2.072582350488137770
0.294000000000000150,-2.309288560205459362
0.295000000000000151,-2.540219875198213906
0.296000000000000152,-2.765430314021689373
0.297000000000000153,-2.984975355942009134
0.298000000000000154,-3.198911922492478688
0.299000000000000155,-3.407298351519048030
0.300000000000000155,-3.610194364311424042
0.301000000000000156,-3.807661026411093275
0.302000000000000157,-3.999760702679517443
0.303000000000000158,-4.186557007197632352
0.304000000000000159,-4.368114748554217996
0.305000000000000160,-4.544499871063928609
0.306000000000000161,-4.715779392437608131
0.307000000000000162,-4.882021338407737332
0.308000000000000163,-5.043294674790418597
0.309000000000000163,-5.199669237443275804
0.310000000000000164,-5.351215660555737941
0.311000000000000165,-5.498005303684403877
0.312000000000000166,-5.640110177922717405
0.313000000000000167,-5.777602871569823328
0.314000000000000168,-5.910556475639775265
0.315000000000000169,-6.039044509528286753
0.316000000000000170,-6.163140847130915034
0.317000000000000171,-6.282919643683189115
0.318000000000000171,-6.398455263570826723
0.319000000000000172,-6.509822209336208587
0.320000000000000173,-6.617095052085756102
0.321000000000000174,-6.720348363482439247
0.322000000000000175,-6.819656649487787270
0.323000000000000176,-6.915094285998700130
0.324000000000000177,-7.006735456506366866
0.325000000000000178,-7.094654091886968494
0.326000000000000179,-7.178923812417973060
0.327000000000000179,-7.259617872097678060
0.328000000000000180,-7.336809105331560943
0.329000000000000181,-7.410569876034911019
0.330000000000000182,-7.480972029188419192
0.331000000000000183,-7.548086844871589207
0.332000000000000184,-7.611984994787303727
0.333000000000000185,-7.672736501280821741
0.334000000000000186,-7.730410698846890583
0.335000000000000187,-7.785076198109742052
0.336000000000000187,-7.836800852253051453
0.337000000000000188,-7.885651725869155193
0.338000000000000189,-7.931695066190798116
0.339000000000000190,-7.974996276662368544
0.340000000000000191,-8.015619892802339663
0.341000000000000192,-8.053629560304093715
0.342000000000000193,-8.089088015318044000
0.343000000000000194,-8.122057066854498686
0.344000000000000195,-8.152597581243423264
0.345000000000000195,-8.180769468585072701
0.346000000000000196,-8.206631671122835314
0.347000000000000197,-8.230242153468328326
0.348000000000000198,-8.251657894607216548
0.349000000000000199,-8.270934881613291267
0.350000000000000200,-8.288128104997905865
0.351000000000000201,-8.303291555621280295
0.352000000000000202,-8.316478223092312660
0.353000000000000203,-8.327740095583838098
0.354000000000000203,-8.337128160990650017
0.355000000000000204,-8.344692409358218654
0.356000000000000205,-8.350481836511123745
0.357000000000000206,-8.354544448811326518
0.358000000000000207,-8.356927268977198509
0.359000000000000208,-8.357676342896233734
0.360000000000000209,-8.356836747365370854
0.361000000000000210,-8.354452598694694032
0.362000000000000210,-8.350567062111883487
0.363000000000000211,-8.345222361906625252
0.364000000000000212,-8.338459792256015746
0.365000000000000213,-8.330319728673865498
0.366000000000000214,-8.320841640028769248
0.367000000000000215,-8.310064101077786702
0.368000000000000216,-8.298024805464610409
0.369000000000000217,-8.284760579133017444
0.370000000000000218,-8.270307394108534993
0.371000000000000218,-8.254700382603132880
0.372000000000000219,-8.237973851399894798
0.373000000000000220,-8.220161296476563351
0.374000000000000221,-8.201295417828825762
0.375000000000000222,-8.181408134456003012
0.376000000000000223,-8.160530599474164148
0.377000000000000224,-8.138693215323019814
0.378000000000000225,-8.115925649035162337
0.379000000000000226,-8.092256847537932174
0.380000000000000226,-8.067715052959965050
0.381000000000000227,-8.042327817916051558
0.382000000000000228,-8.016122020745944710
0.383000000000000229,-7.989123880683978385
0.384000000000000230,-7.961358972938183065
0.385000000000000231,-7.932852243659129776
0.386000000000000232,-7.903628024779957961
0.387000000000000233,-7.873710048710803378
0.388000000000000234,-7.843121462871796901
0.389000000000000234,-7.811884844050617005
0.390000000000000235,-7.780022212571291895
0.391000000000000236,-7.747555046262638356
0.392000000000000237,-7.714504294215513092
0.393000000000000238,-7.680890390319416561
0.394000000000000239,-7.646733266569839316
0.395000000000000240,-7.612052366138871484
0.396000000000000241,-7.576866656202554395
0.397000000000000242,-7.541194640519179870
0.398000000000000242,-7.505054371753901776
0.399000000000000243,-7.468463463545489844
0.400000000000000244,-7.431439102312102918
0.401000000000000245,-7.393998058793558315
0.402000000000000246,-7.356156699328214366
0.403000000000000247,-7.317930996863286630
0.404000000000000248,-7.279336541698038232
0.405000000000000249,-7.240388551959765273
0.406000000000000250,-7.201101883813061377
0.407000000000000250,-7.161491041403325930
0.408000000000000251,-7.121570186535947755
0.409000000000000252,-7.081353148093002758
0.410000000000000253,-7.040853431189651346
0.411000000000000254,-7.000084226072859295
0.412000000000000255,-6.959058416765270927
0.413000000000000256,-6.917788589457559922
0.414000000000000257,-6.876287040652539595
0.415000000000000258,-6.834565785064944166
0.416000000000000258,-6.792636563280680662
0.417000000000000259,-6.750510849179711670
0.418000000000000260,-6.708199857126926346
0.419000000000000261,-6.665714548935414818
0.420000000000000262,-6.623065640606732529
0.421000000000000263,-6.580263608852931156
0.422000000000000264,-6.537318697405103407
0.423000000000000265,-6.494240923113331121
0.424000000000000266,-6.451040081843109064
0.425000000000000266,-6.407725754173087651
0.426000000000000267,-6.364307310899322445
0.427000000000000268,-6.320793918351031770
0.428000000000000269,-6.277194543522965020
0.429000000000000270,-6.233517959029527766
0.430000000000000271,-6.189772747885596615
0.431000000000000272,-6.145967308119288930
0.432000000000000273,-6.102109857221525324
0.433000000000000274,-6.058208436437536371
0.434000000000000274,-6.014270914905141652
0.435000000000000275,-5.970304993644807823
0.436000000000000276,-5.926318209406282733
0.437000000000000277,-5.882317938376555588
0.438000000000000278,-5.838311399753922437
0.439000000000000279,-5.794305659192794167
0.440000000000000280,-5.750307632123714541
0.441000000000000281,-5.706324086953206809
0.442000000000000282,-5.662361648147758331
0.443000000000000282,-5.618426799206245548
0.444000000000000283,-5.574525885525102531
0.445000000000000284,-5.530665117160273425
0.446000000000000285,-5.486850571489958028
0.447000000000000286,-5.443088195782257444
0.448000000000000287,-5.399383809671308931
0.449000000000000288,-5.355743107545881898
0.450000000000000289,-5.312171660853900690
0.451000000000000290,-5.268674920326527733
0.452000000000000290,-5.225258218125255816
0.453000000000000291,-5.181926769915262021
0.454000000000000292,-5.138685676868387731
0.455000000000000293,-5.095539927598769836
0.456000000000000294,-5.052494400034245992
0.457000000000000295,-5.009553863226470227
0.458000000000000296,-4.966722979102529578
0.459000000000000297,-4.924006304160905678
0.460000000000000298,-4.881408291114347264
0.461000000000000298,-4.838933290482307470
0.462000000000000299,-4.796585552135355535
0.463000000000000300,-4.754369226793938807
0.464000000000000301,-4.712288367483847829
0.465000000000000302,-4.670346930950568520
0.466000000000000303,-4.628548779034566962
0.467000000000000304,-4.586897680009662359
0.468000000000000305,-4.545397309886344495
0.469000000000000306,-4.504051253681940814
0.470000000000000306,-4.462863006659485876
0.471000000000000307,-4.421835975536854590
0.472000000000000308,-4.380973479667982673
0.473000000000000309,-4.340278752197609613
0.474000000000000310,-4.299754941191118007
0.475000000000000311,-4.259405110740802414
0.476000000000000312,-4.219232242050104276
0.477000000000000313,-4.179239234496885835
0.478000000000000314,-4.139428906677121489
0.479000000000000314,-4.099803997430178981
0.480000000000000315,-4.060367166846666542
0.481000000000000316,-4.021120997260107188
0.482000000000000317,-3.982067994223210228
0.483000000000000318,-3.943210587469864414
0.484000000000000319,-3.904551131863632119
0.485000000000000320,-3.866091908333655347
0.486000000000000321,-3.827835124798698807
0.487000000000000322,-3.789782917080158686
0.488000000000000322,-3.751937349804593591
0.489000000000000323,-3.714300417296647616
0.490000000000000324,-3.676874044462778102
0.491000000000000325,-3.639660087666474197
0.492000000000000326,-3.602660335595454288
0.493000000000000327,-3.565876510121385845
0.494000000000000328,-3.529310267152558911
0.495000000000000329,-3.492963197479947102
0.496000000000000330,-3.456836827617045138
0.497000000000000330,-3.420932620633924337
0.498000000000000331,-3.385251976985672151
0.499000000000000332,-3.349796235335763761
0.500000000000000333,-3.314566673374449213
0.501000000000000334,-3.279564508632479836
0.502000000000000335,-3.244790899290445285
0.503000000000000336,-3.210246944983891293
0.504000000000000337,-3.175933687604405087
0.505000000000000338,-3.141852112096837679
0.506000000000000338,-3.108003147252851317
0.507000000000000339,-3.074387666500847160
0.508000000000000340,-3.041006488692415743
0.509000000000000341,-3.007860378885493180
0.510000000000000342,-2.974950049124115647
0.511000000000000343,-2.942276159215033715
0.512000000000000344,-2.909839317501075051
0.513000000000000345,-2.877640081631404279
0.514000000000000346,-2.845678959328682645
0.515000000000000346,-2.813956409153071991
0.516000000000000347,-2.782472841263166963
0.517000000000000348,-2.751228618173861218
0.518000000000000349,-2.720224055511009986
0.519000000000000350,-2.689459422763025742
0.520000000000000351,-2.658934944029241798
0.521000000000000352,-2.628650798765111762
0.522000000000000353,-2.598607122524116964
0.523000000000000353,-2.568804007696349423
0.524000000000000354,-2.539241504243789471
0.525000000000000355,-2.509919620432086163
0.526000000000000356,-2.480838323558868019
0.527000000000000357,-2.451997540678539256
0.528000000000000358,-2.423397159323326999
0.529000000000000359,-2.395037028220752262
0.530000000000000360,-2.366916958007183602
0.531000000000000361,-2.339036721937608920
0.532000000000000361,-2.311396056591391357
0.533000000000000362,-2.283994662574026169
0.534000000000000363,-2.256832205214739151
0.535000000000000364,-2.229908315259890195
0.536000000000000365,-2.203222589562066513
0.537000000000000366,-2.176774591764807809
0.538000000000000367,-2.150563852982798174
0.539000000000000368,-2.124589872477594898
0.540000000000000369,-2.098852118328581540
0.541000000000000369,-2.073350028099310460
0.542000000000000370,-2.048083009498925300
0.543000000000000371,-2.023050441038720226
0.544000000000000372,-1.998251672683708957
0.545000000000000373,-1.973686026499121393
0.546000000000000374,-1.949352797291727057
0.547000000000000375,-1.925251253245941374
0.548000000000000376,-1.901380636554639070
0.549000000000000377,-1.877740164044563898
0.550000000000000377,-1.854329027796284279
0.551000000000000378,-1.831146395758618484
0.552000000000000379,-1.808191412357488259
0.553000000000000380,-1.785463199099085685
0.554000000000000381,-1.762960855167300167
0.555000000000000382,-1.740683458015417129
0.556000000000000383,-1.718630063951885445
0.557000000000000384,-1.696799708720265532
0.558000000000000385,-1.675191408073144927
0.559000000000000385,-1.653804158340098640
0.560000000000000386,-1.632636936989562360
0.561000000000000387,-1.611688703184615878
0.562000000000000388,-1.590958398332598112
0.563000000000000389,-1.570444946628560157
0.564000000000000390,-1.550147255592471129
0.565000000000000391,-1.530064216600166116
0.566000000000000392,-1.510194705407994276
0.567000000000000393,-1.490537582671164873
0.568000000000000393,-1.471091694455707088
0.569000000000000394,-1.451855872744060472
0.570000000000000395,-1.432828935934297832
0.571000000000000396,-1.414009689332865971
0.572000000000000397,-1.395396925640967511
0.573000000000000398,-1.376989425434410608
0.574000000000000399,-1.358785957637079989
0.575000000000000400,-1.340785279987856571
0.576000000000000401,-1.322986139501101777
0.577000000000000401,-1.305387272920679909
0.578000000000000402,-1.287987407167439979
0.579000000000000403,-1.270785259780239818
0.580000000000000404,-1.253779539350518668
0.581000000000000405,-1.236968945950332799
0.582000000000000406,-1.220352171553980458
0.583000000000000407,-1.203927900453121591
0.584000000000000408,-1.187694809665479578
0.585000000000000409,-1.171651569337094356
0.586000000000000409,-1.155796843138157115
0.587000000000000410,-1.140129288652452999
0.588000000000000411,-1.124647557760407812
0.589000000000000412,-1.109350297015799125
0.590000000000000413,-1.094236148016098920
0.591000000000000414,-1.079303747766527932
0.592000000000000415,-1.064551729037835459
0.593000000000000416,-1.049978720717788194
0.594000000000000417,-1.035583348156452699
0.595000000000000417,-1.021364233505329455
0.596000000000000418,-1.007319996050222155
0.597000000000000419,-0.993449252538108118
0.598000000000000420,-0.979750617497815668
0.599000000000000421,-0.966222703554718954
0.600000000000000422,-0.952864121739388947
0.601000000000000423,-0.939673481790285203
0.602000000000000424,-0.926649392450518805
0.603000000000000425,-0.913790461758726247
0.604000000000000425,-0.901095297334107093
0.605000000000000426,-0.888562506655646067
0.606000000000000427,-0.876190697335641699
0.607000000000000428,-0.863978477387420840
0.608000000000000429,-0.851924455487552357
0.609000000000000430,-0.840027241232286892
0.610000000000000431,-0.828285445388585950
0.611000000000000432,-0.816697680139564897
0.612000000000000433,-0.805262559324477656
0.613000000000000433,-0.793978698673356797
