# PLA-CHARMM_HIPSCA-AC
# h[nm],U(h)[kJ/mol]
0.149999999999999994,112.335204187443920887
0.150999999999999995,110.815145926377880414
0.151999999999999996,109.178013711848350908
0.152999999999999997,107.546255191146016728
0.153999999999999998,105.958644864798628760
0.154999999999999999,104.415853301187240731
0.156000000000000000,102.905001302380384232
0.157000000000000001,101.411740276923950432
0.158000000000000002,99.925252654510103412
0.159000000000000002,98.439492987205554186
0.160000000000000003,96.952646145952797951
0.161000000000000004,95.465924357949447199
0.162000000000000005,93.982294936612220226
0.163000000000000006,92.505412894444390304
0.164000000000000007,91.038851090164911284
0.165000000000000008,89.585624258655670360
0.166000000000000009,88.147958655231292369
0.167000000000000010,86.727244374075866062
0.168000000000000010,85.324108895580096146
0.169000000000000011,83.938559599322857707
0.170000000000000012,82.570154841593762285
0.171000000000000013,81.218174962227365654
0.172000000000000014,79.881774874501019212
0.173000000000000015,78.560108165866267882
0.174000000000000016,77.252418840449578852
0.175000000000000017,75.958101163423407343
0.176000000000000018,74.676730830369663749
0.177000000000000018,73.408072216758682771
0.178000000000000019,72.152067079779698133
0.179000000000000020,70.908810061563897875
0.180000000000000021,69.678515904285646343
0.181000000000000022,68.461482609226976592
0.182000000000000023,67.258053984440522299
0.183000000000000024,66.068584221830576553
0.184000000000000025,64.893406386013467113
0.185000000000000026,63.732806021764396576
0.186000000000000026,62.587000513579994276
0.187000000000000027,61.456124366178073615
0.188000000000000028,60.340220215931005043
0.189000000000000029,59.239235121862080291
0.190000000000000030,58.153021509216465290
0.191000000000000031,57.081342035542760982
0.192000000000000032,56.023877605272105029
0.193000000000000033,54.980237761156821819
0.194000000000000034,53.949972717990291926
0.195000000000000034,52.932586365561157038
0.196000000000000035,51.927549645136991785
0.197000000000000036,50.934313789804100736
0.198000000000000037,49.952323008030226958
0.199000000000000038,48.981026277510082423
0.200000000000000039,48.019887999485902697
0.201000000000000040,47.068397340083365066
0.202000000000000041,46.126076153353515963
0.203000000000000042,45.192485439921227908
0.204000000000000042,44.267230345173032902
0.205000000000000043,43.349963741947462381
0.206000000000000044,42.440388475165391924
0.207000000000000045,41.538258370418830623
0.208000000000000046,40.643378125999397810
0.209000000000000047,39.755602219041293210
0.210000000000000048,38.874832962246010482
0.211000000000000049,38.001017848902769458
0.212000000000000050,37.134146321429156501
0.213000000000000050,36.274246093197135110
0.214000000000000051,35.421379145658882237
0.215000000000000052,34.575637513368995712
0.216000000000000053,33.737138958945656952
0.217000000000000054,32.906022628788853979
0.218000000000000055,32.082444768867183882
0.219000000000000056,31.266574568416910296
0.220000000000000057,30.458590188225105777
0.221000000000000058,29.658675019499231240
0.222000000000000058,28.867014209302123362
0.223000000000000059,28.083791479271894787
0.224000000000000060,27.309186255913090235
0.225000000000000061,26.543371123181906057
0.226000000000000062,25.786509601405850134
0.227000000000000063,25.038754250767048859
0.228000000000000064,24.300245092614296993
0.229000000000000065,23.571108337710647618
0.230000000000000066,22.851455407124877439
0.231000000000000066,22.141382228777935381
0.232000000000000067,21.440968790602781269
0.233000000000000068,20.750278929803076977
0.234000000000000069,20.069360336742352757
0.235000000000000070,19.398244751497781380
0.236000000000000071,18.736948331012875713
0.237000000000000072,18.085472165021762692
0.238000000000000073,17.443802919444021171
0.239000000000000073,16.811913586711192181
0.240000000000000074,16.189764323437017879
0.241000000000000075,15.577303356945375157
0.242000000000000076,14.974467943381233326
0.243000000000000077,14.381185361419278834
0.244000000000000078,13.797373926922773535
0.245000000000000079,13.222944015265005291
0.246000000000000080,12.657799079387249463
0.247000000000000081,12.101836653008728462
0.248000000000000081,11.554949329713755546
0.249000000000000082,11.017025709903720099
0.250000000000000111,10.487951308807115680
0.251000000000000112,9.967609419883117994
0.252000000000000113,9.455881929023965071
0.253000000000000114,8.952650075960537635
0.254000000000000115,8.457795160193748885
0.255000000000000115,7.971199189618526582
0.256000000000000116,7.492745470771124516
0.257000000000000117,7.022319140319180697
0.258000000000000118,6.559807638027966625
0.259000000000000119,6.105101121977571488
0.260000000000000120,5.658092827278147219
0.261000000000000121,5.218679369937921919
0.262000000000000122,4.786760997883300561
0.263000000000000123,4.362241791418346892
0.264000000000000123,3.945029815644190307
0.265000000000000124,3.535037227543443628
0.266000000000000125,3.132180340573306410
0.267000000000000126,2.736379649708796880
0.268000000000000127,2.347559819937193648
0.269000000000000128,1.965649641232291911
0.270000000000000129,1.590581953033726181
0.271000000000000130,1.222293541227348346
0.272000000000000131,0.860725010571234961
0.273000000000000131,0.505820635439779842
0.274000000000000132,0.157528191670376710
0.275000000000000133,-0.184201227805402601
0.276000000000000134,-0.519413410978202816
0.277000000000000135,-0.848151235979322182
0.278000000000000136,-1.170454889186616887
0.279000000000000137,-1.486362090038114925
0.280000000000000138,-1.795908320512086265
0.281000000000000139,-2.099127057373598504
0.282000000000000139,-2.396050005428064011
0.283000000000000140,-2.686707330163311092
0.284000000000000141,-2.971127888300084230
0.285000000000000142,-3.249339454907367752
0.286000000000000143,-3.521368945871473422
0.287000000000000144,-3.787242634636377225
0.288000000000000145,-4.046986362257451120
0.289000000000000146,-4.300625739928789493
0.290000000000000147,-4.548186343258974418
0.291000000000000147,-4.789693897677194556
0.292000000000000148,-5.025174454454536921
0.293000000000000149,-5.254654556920598907
0.294000000000000150,-5.478161396546325612
0.295000000000000151,-5.695722958647634115
0.296000000000000152,-5.907368157542638443
0.297000000000000153,-6.113126961067246512
0.298000000000000154,-6.313030504420423128
0.299000000000000155,-6.507111193370898938
0.300000000000000155,-6.695402796912420129
0.301000000000000156,-6.877940529504243727
0.302000000000000157,-7.054761123078785445
0.303000000000000158,-7.225902889037664423
0.304000000000000159,-7.391405770493172156
0.305000000000000160,-7.551311385042481561
0.306000000000000161,-7.705663058389026432
0.307000000000000162,-7.854505849147889407
0.308000000000000163,-7.997886565191166142
0.309000000000000163,-8.135853771904773879
0.310000000000000164,-8.268457792740671053
0.311000000000000165,-8.395750702457601022
0.312000000000000166,-8.517786313450290692
0.313000000000000167,-8.634620155570996047
0.314000000000000168,-8.746309449849023920
0.315000000000000169,-8.852913076513502233
0.316000000000000170,-8.954491537722560679
0.317000000000000171,-9.051106915397689079
0.318000000000000171,-9.142822824556720462
0.319000000000000172,-9.229704362531975903
0.320000000000000173,-9.311818054451658000
0.321000000000000174,-9.389231795353438770
0.322000000000000175,-9.462014789289096228
0.323000000000000176,-9.530237485767823813
0.324000000000000177,-9.593971513874395285
0.325000000000000178,-9.653289614385801798
0.326000000000000179,-9.708265570197804450
0.327000000000000179,-9.758974135359233415
0.328000000000000180,-9.805490962998892002
0.329000000000000181,-9.847892532416574696
0.330000000000000182,-9.886256075595557746
0.331000000000000183,-9.920659503381168420
0.332000000000000184,-9.951181331555558174
0.333000000000000185,-9.977900607026082724
0.334000000000000186,-10.000896834330841756
0.335000000000000187,-10.020249902652047069
0.336000000000000187,-10.036040013514959668
0.337000000000000188,-10.048347609337213271
0.338000000000000189,-10.057253302981395748
0.339000000000000190,-10.062837808451435606
0.340000000000000191,-10.065181872861629131
0.341000000000000192,-10.064366209796068219
0.342000000000000193,-10.060471434165002336
0.343000000000000194,-10.053577998654386505
0.344000000000000195,-10.043766131854315660
0.345000000000000195,-10.031115778142936534
0.346000000000000196,-10.015706539392406071
0.347000000000000197,-9.997617618555070251
0.348000000000000198,-9.976927765179336660
0.349000000000000199,-9.953715222896647674
0.350000000000000200,-9.928057678913406292
0.351000000000000201,-9.900032215534345426
0.352000000000000202,-9.869715263737006694
0.353000000000000203,-9.837182558810654953
0.354000000000000203,-9.802509098066829907
0.355000000000000204,-9.765769100622900822
0.356000000000000205,-9.727035969255013015
0.357000000000000206,-9.686382254311665108
0.358000000000000207,-9.643879619674439851
0.359000000000000208,-9.599598810748483757
0.360000000000000209,-9.553609624461154581
0.361000000000000210,-9.505980881243667469
0.362000000000000210,-9.456780398967401524
0.363000000000000211,-9.406074968803277869
0.364000000000000212,-9.353930332970206152
0.365000000000000213,-9.300411164335782743
0.366000000000000214,-9.245581047830455645
0.367000000000000215,-9.189502463634282137
0.368000000000000216,-9.132236772093765609
0.369000000000000217,-9.073844200324582943
0.370000000000000218,-9.014383830454946178
0.371000000000000218,-8.953913589462926481
0.372000000000000219,-8.892490240560459114
0.373000000000000220,-8.830169376075739152
0.374000000000000221,-8.767005411785426361
0.375000000000000222,-8.703051582647178819
0.376000000000000223,-8.638359939883400784
0.377000000000000224,-8.572981349366374459
0.378000000000000225,-8.506965491255197520
0.379000000000000226,-8.440360860835053103
0.380000000000000226,-8.373214770509505911
0.381000000000000227,-8.305573352896709949
0.382000000000000228,-8.237481564981113280
0.383000000000000229,-8.168983193272442378
0.384000000000000230,-8.100120859924382799
0.385000000000000231,-8.030936029766245099
0.386000000000000232,-7.961469018201230874
0.387000000000000233,-7.891758999926027585
0.388000000000000234,-7.821844018426975076
0.389000000000000234,-7.751760996209235088
0.390000000000000235,-7.681545745715945728
0.391000000000000236,-7.611232980895636047
0.392000000000000237,-7.540856329376808276
0.393000000000000238,-7.470448345209932839
0.394000000000000239,-7.400040522137810051
0.395000000000000240,-7.329663307356552693
0.396000000000000241,-7.259346115730364701
0.397000000000000242,-7.189117344424316158
0.398000000000000242,-7.119004387920631061
0.399000000000000243,-7.049033653384756626
0.400000000000000244,-6.979230576348808945
0.401000000000000245,-6.909619636681069821
0.402000000000000246,-6.840224374811134211
0.403000000000000247,-6.771067408181494329
0.404000000000000248,-6.702170447897482397
0.405000000000000249,-6.633554315548428448
0.406000000000000250,-6.565238960173976679
0.407000000000000250,-6.497243475350657604
0.408000000000000251,-6.429586116374605531
0.409000000000000252,-6.362284317517659993
0.410000000000000253,-6.295354709334693766
0.411000000000000254,-6.228813136001354778
0.412000000000000255,-6.162674672662087794
0.413000000000000256,-6.096953642769472381
0.414000000000000257,-6.031663635396592227
0.415000000000000258,-5.966817522505343696
0.416000000000000258,-5.902427476154168851
0.417000000000000259,-5.838504985629824340
0.418000000000000260,-5.775060874488446849
0.419000000000000261,-5.712105317492089718
0.420000000000000262,-5.649647857427675390
0.421000000000000263,-5.587697421796097075
0.422000000000000264,-5.526262339359900189
0.423000000000000265,-5.465350356538711374
0.424000000000000266,-5.404968653642470144
0.425000000000000266,-5.345123860932803339
0.426000000000000267,-5.285822074504002543
0.427000000000000268,-5.227068871975352415
0.428000000000000269,-5.168869327987325235
0.429000000000000270,-5.111228029494824909
0.430000000000000271,-5.054149090850978077
0.431000000000000272,-4.997636168675852808
0.432000000000000273,-4.941692476504718101
0.433000000000000274,-4.886320799211216759
0.434000000000000274,-4.831523507201066714
0.435000000000000275,-4.777302570372627954
0.436000000000000276,-4.723659571840942206
0.437000000000000277,-4.670595721422311719
0.438000000000000278,-4.618111868876992432
0.439000000000000279,-4.566208516907892978
0.440000000000000280,-4.514885833913485413
0.441000000000000281,-4.464143666493670892
0.442000000000000282,-4.413981551707538920
0.443000000000000282,-4.364398729082270556
0.444000000000000283,-4.315394152372914682
0.445000000000000284,-4.266966501072881890
0.446000000000000285,-4.219114191675263470
0.447000000000000286,-4.171835388685666501
0.448000000000000287,-4.125128015386953173
0.449000000000000288,-4.078989764357126013
0.450000000000000289,-4.033418107741264969
0.451000000000000290,-3.988410307279062206
0.452000000000000290,-3.943963424089440561
0.453000000000000291,-3.900074328213983144
0.454000000000000292,-3.856739707921192917
0.455000000000000293,-3.813956078773534042
0.456000000000000294,-3.771719792459605092
0.457000000000000295,-3.730027045393759177
0.458000000000000296,-3.688873887085661885
0.459000000000000297,-3.648256228282463987
0.460000000000000298,-3.608169848886249476
0.461000000000000298,-3.568610405649676132
0.462000000000000299,-3.529573439652679667
0.463000000000000300,-3.491054383563229724
0.464000000000000301,-3.453048568685319619
0.465000000000000302,-3.415551231797283371
0.466000000000000303,-3.378557521783632556
0.467000000000000304,-3.342062506063759653
0.468000000000000305,-3.306061176820800362
0.469000000000000306,-3.270548457033980672
0.470000000000000306,-3.235519206317948537
0.471000000000000307,-3.200968226572393771
0.472000000000000308,-3.166890267445530149
0.473000000000000309,-3.133280031614837924
0.474000000000000310,-3.100132179888596795
0.475000000000000311,-3.067441336131669694
0.476000000000000312,-3.035202092019148257
0.477000000000000313,-3.003409011621200442
0.478000000000000314,-2.972056635822755144
0.479000000000000314,-2.941139486581523244
0.480000000000000315,-2.910652071027725718
0.481000000000000316,-2.880588885409170352
0.482000000000000317,-2.850944418884977516
0.483000000000000318,-2.821713157171521935
0.484000000000000319,-2.792889586043918015
0.485000000000000320,-2.764468194696517500
0.486000000000000321,-2.736443478965715492
0.487000000000000322,-2.708809944418476334
0.488000000000000322,-2.681562109309775899
0.489000000000000323,-2.654694507412398874
0.490000000000000324,-2.628201690722161921
0.491000000000000325,-2.602078232041879602
0.492000000000000326,-2.576318727447153289
0.493000000000000327,-2.550917798637196032
0.494000000000000328,-2.525870095173698981
0.495000000000000329,-2.501170296610825794
0.496000000000000330,-2.476813114519301084
0.497000000000000330,-2.452793294407611402
0.498000000000000331,-2.429105617543104945
0.499000000000000332,-2.405744902676018260
0.500000000000000333,-2.382706007669130432
0.501000000000000334,-2.359983831035814550
0.502000000000000335,-2.337573313389305074
0.503000000000000336,-2.315469438805771052
0.504000000000000337,-2.293667236103854812
0.505000000000000338,-2.272161780043262969
0.506000000000000338,-2.250948192444946372
0.507000000000000339,-2.230021643235327922
0.508000000000000340,-2.209377351417028734
0.509000000000000341,-2.189010585968530265
0.510000000000000342,-2.168916666675008820
0.511000000000000343,-2.149090964892741429
0.512000000000000344,-2.129528904249235133
0.513000000000000345,-2.110225961281355200
0.514000000000000346,-2.091177666013558589
0.515000000000000346,-2.072379602478322091
0.516000000000000347,-2.053827409180841279
0.517000000000000348,-2.035516779510042618
0.518000000000000349,-2.017443462097766815
0.519000000000000350,-1.999603261128154674
0.520000000000000351,-1.981992036599024898
0.521000000000000352,-1.964605704537122577
0.522000000000000353,-1.947440237168972299
0.523000000000000353,-1.930491663049088924
0.524000000000000354,-1.913756067147280859
0.525000000000000355,-1.897229590896623908
0.526000000000000356,-1.880908432203741043
0.527000000000000357,-1.864788845423025920
0.528000000000000358,-1.848867141296173688
0.529000000000000359,-1.833139686858701101
0.530000000000000360,-1.817602905314717132
0.531000000000000361,-1.802253275881489314
0.532000000000000361,-1.787087333605076322
0.533000000000000362,-1.772101669148430592
0.534000000000000363,-1.757292928553186417
0.535000000000000364,-1.742657812976454057
0.536000000000000365,-1.728193078403798877
0.537000000000000366,-1.713895535339606813
0.538000000000000367,-1.699762048475943699
0.539000000000000368,-1.685789536341120609
0.540000000000000369,-1.671974970928894466
0.541000000000000369,-1.658315377309515615
0.542000000000000370,-1.644807833223498106
0.543000000000000371,-1.631449468659174284
0.544000000000000372,-1.618237465414980036
0.545000000000000373,-1.605169056647368420
0.546000000000000374,-1.592241526405237195
0.547000000000000375,-1.579452209151774644
0.548000000000000376,-1.566798489274536577
0.549000000000000377,-1.554277800584549230
0.550000000000000377,-1.541887625805226536
0.551000000000000378,-1.529625496051876921
0.552000000000000379,-1.517488990302487739
0.553000000000000380,-1.505475734860542980
0.554000000000000381,-1.493583402810472860
0.555000000000000382,-1.481809713466504252
0.556000000000000383,-1.470152431815402005
0.557000000000000384,-1.458609367953854319
0.558000000000000385,-1.447178376520950271
0.559000000000000385,-1.435857356126434503
0.560000000000000386,-1.424644248775183364
0.561000000000000387,-1.413537039288494057
0.562000000000000388,-1.402533754722635084
0.563000000000000389,-1.391632463785192231
0.564000000000000390,-1.380831276249619766
0.565000000000000391,-1.370128342368479135
0.566000000000000392,-1.359521852285769272
0.567000000000000393,-1.349010035448783729
0.568000000000000393,-1.338591160019843240
0.569000000000000394,-1.328263532288312287
0.570000000000000395,-1.318025496083260029
0.571000000000000396,-1.307875432187067144
0.572000000000000397,-1.297811757750375605
0.573000000000000398,-1.287832925708610521
0.574000000000000399,-1.277937424200457750
0.575000000000000400,-1.268123775988498902
0.576000000000000401,-1.258390537882329907
0.577000000000000401,-1.248736300164430713
0.578000000000000402,-1.239159686018966422
0.579000000000000403,-1.229659350963799191
0.580000000000000404,-1.220233982285955365
0.581000000000000405,-1.210882298480676855
0.582000000000000406,-1.201603048694346532
0.583000000000000407,-1.192395012171397761
0.584000000000000408,-1.183256997705432800
0.585000000000000409,-1.174187843094696593
0.586000000000000409,-1.165186414602064513
0.587000000000000410,-1.156251606419695044
0.588000000000000411,-1.147382340138472179
0.589000000000000412,-1.138577564222398975
0.590000000000000413,-1.129836253488003761
0.591000000000000414,-1.121157408588931981
0.592000000000000415,-1.112540055505803815
0.593000000000000416,-1.103983245041404881
0.594000000000000417,-1.095486052321338999
0.595000000000000417,-1.087047576300240292
0.596000000000000418,-1.078666939273512870
0.597000000000000419,-1.070343286394832338
0.598000000000000420,-1.062075785199302569
0.599000000000000421,-1.053863625132448023
0.600000000000000422,-1.045706017085019646
0.601000000000000423,-1.037602192933684275
0.602000000000000424,-1.029551405087638649
0.603000000000000425,-1.021552926041164877
0.604000000000000425,-1.013606047932168019
0.605000000000000426,-1.005710082106696657
0.606000000000000427,-0.997864358689540376
0.607000000000000428,-0.990068226160740417
0.608000000000000429,-0.982321050938301132
0.609000000000000430,-0.974622216966780974
0.610000000000000431,-0.966971125312061530
0.611000000000000432,-0.959367193762094339
0.612000000000000433,-0.951809856433674328
0.613000000000000433,-0.944298563385295386
