# PLA-CHARMM_CS-1913-AC
# h[nm],U(h)[kJ/mol]
0.149999999999999994,93.139353692873129376
0.150999999999999995,92.079941160120512222
0.151999999999999996,90.993207129330585303
0.152999999999999997,89.875494329843547803
0.153999999999999998,88.734661660447258669
0.154999999999999999,87.580854937232615498
0.156000000000000000,86.422607052910521475
0.157000000000000001,85.265705075422914661
0.158000000000000002,84.113349509027841577
0.159000000000000002,82.966797471074727355
0.160000000000000003,81.826078902673970106
0.161000000000000004,80.690603202798897087
0.162000000000000005,79.559597988001655722
0.163000000000000006,78.432383849643983353
0.164000000000000007,77.308515401849334125
0.165000000000000008,76.187825894273188965
0.166000000000000009,75.070410002243022518
0.167000000000000010,73.956572767384301414
0.168000000000000010,72.846765138474452783
0.169000000000000011,71.741519693052651974
0.170000000000000012,70.641394536223202749
0.171000000000000013,69.546929204550124837
0.172000000000000014,68.458613528258339898
0.173000000000000015,67.376868596793869415
0.174000000000000016,66.302037980240100978
0.175000000000000017,65.234386949905854181
0.176000000000000018,64.174107420522219059
0.177000000000000018,63.121326550894650609
0.178000000000000019,62.076117276331160610
0.179000000000000020,61.038509425636355843
0.180000000000000021,60.008500446379699156
0.181000000000000022,58.986065093949854088
0.182000000000000023,57.971163717316073871
0.183000000000000024,56.963748992671604299
0.184000000000000025,55.963771117290221468
0.185000000000000026,54.971181586044018275
0.186000000000000026,53.985935740157131590
0.187000000000000027,53.007994310551417527
0.188000000000000028,52.037324184921374126
0.189000000000000029,51.073898615969355319
0.190000000000000030,50.117697064448670119
0.191000000000000031,49.168704840022847691
0.192000000000000032,48.226912669518370080
0.193000000000000033,47.292316288933292867
0.194000000000000034,46.364916124660858543
0.195000000000000034,45.444717102126730879
0.196000000000000035,44.531728597146461368
0.197000000000000036,43.625964527044722274
0.198000000000000037,42.727443564851476765
0.199000000000000038,41.836189450383976407
0.200000000000000039,40.952231366261884205
0.201000000000000040,40.075604344334031737
0.202000000000000041,39.206349668034093270
0.203000000000000042,38.344515238258182421
0.204000000000000042,37.490155873929474240
0.205000000000000043,36.643333523004159247
0.206000000000000044,35.804117364853986771
0.207000000000000045,34.972583790384973668
0.208000000000000046,34.148816251630343288
0.209000000000000047,33.332904977665705815
0.210000000000000048,32.524946558370977812
0.211000000000000049,31.725043401693859835
0.212000000000000050,30.933303073580553644
0.213000000000000050,30.149837532604323087
0.214000000000000051,29.374762273531974444
0.215000000000000052,28.608195395650358961
0.216000000000000053,27.850256612663525146
0.217000000000000054,27.101066221421763913
0.218000000000000055,26.360744046713485034
0.219000000000000056,25.629408378909154465
0.220000000000000057,24.907174920452110456
0.221000000000000058,24.194155756120316880
0.222000000000000058,23.490458360686776729
0.223000000000000059,22.796184656154160564
0.224000000000000060,22.111430129177488624
0.225000000000000061,21.436283017669126139
0.226000000000000062,20.770823573944646512
0.227000000000000063,20.115123410151902306
0.228000000000000064,19.469244930160417795
0.229000000000000065,18.833240850596936866
0.230000000000000066,18.207153812318175312
0.231000000000000066,17.591016082324323122
0.232000000000000067,16.984849344951054917
0.233000000000000068,16.388664580136406812
0.234000000000000069,15.802462025647949773
0.235000000000000070,15.226231219373300263
0.236000000000000071,14.659951117122925979
0.237000000000000072,14.103590280860899497
0.238000000000000073,13.557107131865262062
0.239000000000000073,13.020450263014666348
0.240000000000000074,12.493558804193781953
0.241000000000000075,11.976362834701173909
0.242000000000000076,11.468783836517594921
0.243000000000000077,10.970735182342053804
0.244000000000000078,10.482122652419494813
0.245000000000000079,10.002844974356415619
0.246000000000000080,9.532794380343521112
0.247000000000000081,9.071857176465650596
0.248000000000000081,8.619914319074945652
0.249000000000000082,8.176841993523675356
0.250000000000000111,7.742512190892287371
0.251000000000000112,7.316793278701150705
0.252000000000000113,6.899550561953148531
0.253000000000000114,6.490646831218052526
0.254000000000000115,6.089942894828775266
0.255000000000000115,5.697298092615623588
0.256000000000000116,5.312570788950549350
0.257000000000000117,4.935618843208269269
0.258000000000000118,4.566300056072905456
0.259000000000000119,4.204472590424172651
0.260000000000000120,3.849995365825937821
0.261000000000000121,3.502728425911377119
0.262000000000000122,3.162533278210550414
0.263000000000000123,2.829273206199898194
0.264000000000000123,2.502813553566354710
0.265000000000000124,2.183021980873561141
0.266000000000000125,1.869768694992861358
0.267000000000000126,1.562926651818680401
0.268000000000000127,1.262371732926000023
0.269000000000000128,0.967982896949391880
0.270000000000000129,0.679642306567128429
0.271000000000000130,0.397235432062292781
0.272000000000000131,0.120651132506712333
0.273000000000000131,-0.150218284327414464
0.274000000000000132,-0.415477022176698962
0.275000000000000133,-0.675225775431245623
0.276000000000000134,-0.929561726006662425
0.277000000000000135,-1.178578556722161608
0.278000000000000136,-1.422366479961012953
0.279000000000000137,-1.661012280394369656
0.280000000000000138,-1.894599370562189078
0.281000000000000139,-2.123207858124918079
0.282000000000000139,-2.346914623624553720
0.283000000000000140,-2.565793407624664901
0.284000000000000141,-2.779914906133646113
0.285000000000000142,-2.989346873254519643
0.286000000000000143,-3.194154230046341247
0.287000000000000144,-3.394399178626547720
0.288000000000000145,-3.590141320590483076
0.289000000000000146,-3.781437778871448163
0.290000000000000147,-3.968343322214324509
0.291000000000000147,-4.150910491484673059
0.292000000000000148,-4.329189727085557493
0.293000000000000149,-4.503229496803354159
0.294000000000000150,-4.673076423453588646
0.295000000000000151,-4.838775411746031985
0.296000000000000152,-5.000369773836110809
0.297000000000000153,-5.157901353076038475
0.298000000000000154,-5.311410645524537344
0.299000000000000155,-5.460936918817552943
0.300000000000000155,-5.606518328044771238
0.301000000000000156,-5.748192028317140156
0.302000000000000157,-5.885994283749649725
0.303000000000000158,-6.019960572620326467
0.304000000000000159,-6.150125688501869803
0.305000000000000160,-6.276523837195354893
0.306000000000000161,-6.399188729327078384
0.307000000000000162,-6.518153668498999131
0.308000000000000163,-6.633451634910900729
0.309000000000000163,-6.745115364398171387
0.310000000000000164,-6.853177422853176992
0.311000000000000165,-6.957670276020162525
0.312000000000000166,-7.058626354674390591
0.313000000000000167,-7.156078115214654645
0.314000000000000168,-7.250058095715647077
0.315000000000000169,-7.340598967502105943
0.316000000000000170,-7.427733582320859895
0.317000000000000171,-7.511495015199249004
0.318000000000000171,-7.591916603089714499
0.319000000000000172,-7.669031979410450894
0.320000000000000173,-7.742875104600280167
0.321000000000000174,-7.813480292813603789
0.322000000000000175,-7.880882234887704563
0.323000000000000176,-7.945116017719740853
0.324000000000000177,-8.006217140195362347
0.325000000000000178,-8.064221525813991320
0.326000000000000179,-8.119165532158767462
0.327000000000000179,-8.171085957360475049
0.328000000000000180,-8.220020043706091073
0.329000000000000181,-8.266005478542973961
0.330000000000000182,-8.309080392629132561
0.331000000000000183,-8.349283356079650886
0.332000000000000184,-8.386653372057557121
0.333000000000000185,-8.421229868355906589
0.334000000000000186,-8.453052687015496502
0.335000000000000187,-8.482162072120049245
0.336000000000000187,-8.508598655907825048
0.337000000000000188,-8.532403443335146775
0.338000000000000189,-8.553617795224216280
0.339000000000000190,-8.572283410123585412
0.340000000000000191,-8.588442305005786537
0.341000000000000192,-8.602136794922689234
0.342000000000000193,-8.613409471734827960
0.343000000000000194,-8.622303182026822554
0.344000000000000195,-8.628861004316252803
0.345000000000000195,-8.633126225659555786
0.346000000000000196,-8.635142317753349062
0.347000000000000197,-8.634952912625660559
0.348000000000000198,-8.632601778006733895
0.349000000000000199,-8.628132792464771939
0.350000000000000200,-8.621589920387560113
0.351000000000000201,-8.613017186886414933
0.352000000000000202,-8.602458652694725316
0.353000000000000203,-8.589958389129037641
0.354000000000000203,-8.575560453176525044
0.355000000000000204,-8.559308862768402193
0.356000000000000205,-8.541247572295162627
0.357000000000000206,-8.521420448415494064
0.358000000000000207,-8.499871246206705422
0.359000000000000208,-8.476643585701335581
0.360000000000000209,-8.451780928850599395
0.361000000000000210,-8.425326556952127177
0.362000000000000210,-8.397323548576068220
0.363000000000000211,-8.367814758020449162
0.364000000000000212,-8.336842794323599648
0.365000000000000213,-8.304450000858537351
0.366000000000000214,-8.270678435531300110
0.367000000000000215,-8.235569851602578595
0.368000000000000216,-8.199165679149494679
0.369000000000000217,-8.161507007181674211
0.370000000000000218,-8.122634566423750258
0.371000000000000218,-8.082588712773876694
0.372000000000000219,-8.041409411446011291
0.373000000000000220,-7.999136221801596669
0.374000000000000221,-7.955808282874388127
0.375000000000000222,-7.911464299590410754
0.376000000000000223,-7.866142529683470386
0.377000000000000224,-7.819880771304973166
0.378000000000000225,-7.772716351325316353
0.379000000000000226,-7.724686114322883768
0.380000000000000226,-7.675826412255389641
0.381000000000000227,-7.626173094806937058
0.382000000000000228,-7.575761500403419113
0.383000000000000229,-7.524626447887586167
0.384000000000000230,-7.472802228844275696
0.385000000000000231,-7.420322600565603111
0.386000000000000232,-7.367220779644872763
0.387000000000000233,-7.313529436187555355
0.388000000000000234,-7.259280688626762235
0.389000000000000234,-7.204506099130438379
0.390000000000000235,-7.149236669586604087
0.391000000000000236,-7.093502838152900836
0.392000000000000237,-7.037334476356008395
0.393000000000000238,-6.980760886726453229
0.394000000000000239,-6.923810800953759781
0.395000000000000240,-6.866512378546964612
0.396000000000000241,-6.808893205985119046
0.397000000000000242,-6.750980296342265596
0.398000000000000242,-6.692800089371511163
0.399000000000000243,-6.634378452032434481
0.400000000000000244,-6.575740679446221648
0.401000000000000245,-6.516911496263003478
0.402000000000000246,-6.457915058425685473
0.403000000000000247,-6.398774955314777912
0.404000000000000248,-6.339514212258859693
0.405000000000000249,-6.280155293395315752
0.406000000000000250,-6.220720104866152234
0.407000000000000250,-6.161229998333983104
0.408000000000000251,-6.101705774803257931
0.409000000000000252,-6.042167688732209996
0.410000000000000253,-5.982635452421033229
0.411000000000000254,-5.923128240662210331
0.412000000000000255,-5.863664695638963309
0.413000000000000256,-5.804262932058284363
0.414000000000000257,-5.744940542504986425
0.415000000000000258,-5.685714603003825474
0.416000000000000258,-5.626601678776703253
0.417000000000000259,-5.567617830182504335
0.418000000000000260,-5.508778618827280482
0.419000000000000261,-5.450099113832811426
0.420000000000000262,-5.391593898251983319
0.421000000000000263,-5.333277075619575314
0.422000000000000264,-5.275162276627498592
0.423000000000000265,-5.217262665913709796
0.424000000000000266,-5.159590948954588363
0.425000000000000266,-5.102159379050473120
0.426000000000000267,-5.044979764394832422
0.427000000000000268,-4.988063475217472842
0.428000000000000269,-4.931421450992742095
0.429000000000000270,-4.875064207703943886
0.430000000000000271,-4.819001845155360009
0.431000000000000272,-4.763244054323798160
0.432000000000000273,-4.707800124741691405
0.433000000000000274,-4.652678951904246851
0.434000000000000274,-4.597889044693213911
0.435000000000000275,-4.543438532810424313
0.436000000000000276,-4.489335174214292401
0.437000000000000277,-4.435586362552824014
0.438000000000000278,-4.382199134587054346
0.439000000000000279,-4.329180177598988877
0.440000000000000280,-4.276535836778389665
0.441000000000000281,-4.224272122583119682
0.442000000000000282,-4.172394718067918618
0.443000000000000282,-4.120908986176708311
0.444000000000000283,-4.069819976993915844
0.445000000000000284,-4.019132434950376975
0.446000000000000285,-3.968850805979635687
0.447000000000000286,-3.918979244620922398
0.448000000000000287,-3.869521621064853978
0.449000000000000288,-3.820481528138628846
0.450000000000000289,-3.771862288227266991
0.451000000000000290,-3.723666960127935077
0.452000000000000290,-3.675898345834474501
0.453000000000000291,-3.628558997249394569
0.454000000000000292,-3.581651222820938507
0.455000000000000293,-3.535177094102808670
0.456000000000000294,-3.489138452234485044
0.457000000000000295,-3.443536914340138644
0.458000000000000296,-3.398373879844297285
0.459000000000000297,-3.353650536702690310
0.460000000000000298,-3.309367867546661124
0.461000000000000298,-3.265526655739886763
0.462000000000000299,-3.222127491346132189
0.463000000000000300,-3.179170777006945947
0.464000000000000301,-3.136656733728376611
0.465000000000000302,-3.094585406575888875
0.466000000000000303,-3.052956670276692819
0.467000000000000304,-3.011770234728962770
0.468000000000000305,-2.971025650417449704
0.469000000000000306,-2.930722313735047102
0.470000000000000306,-2.890859472210133507
0.471000000000000307,-2.851436229639363162
0.472000000000000308,-2.812451551125963789
0.473000000000000309,-2.773904268023405173
0.474000000000000310,-2.735793082784611308
0.475000000000000311,-2.698116573716771605
0.476000000000000312,-2.660873199642144638
0.477000000000000313,-2.624061304464943234
0.478000000000000314,-2.587679121644838709
0.479000000000000314,-2.551724778577482589
0.480000000000000315,-2.516196300882462822
0.481000000000000316,-2.481091616599385041
0.482000000000000317,-2.446408560292544276
0.483000000000000318,-2.412144877064956283
0.484000000000000319,-2.378298226482387978
0.485000000000000320,-2.344866186408195663
0.486000000000000321,-2.311846256749704231
0.487000000000000322,-2.279235863117028416
0.488000000000000322,-2.247032360395111006
0.489000000000000323,-2.215233036230026986
0.490000000000000324,-2.183835114430346724
0.491000000000000325,-2.152835758284629364
0.492000000000000326,-2.122232073795947915
0.493000000000000327,-2.092021112834571372
0.494000000000000328,-2.062199876209754645
0.495000000000000329,-2.032765316661752752
0.496000000000000330,-2.003714341775094887
0.497000000000000330,-1.975043816814287867
0.498000000000000331,-1.946750567482948613
0.499000000000000332,-1.918831382607639302
0.500000000000000333,-1.891283016747413059
0.501000000000000334,-1.864102192730267671
0.502000000000000335,-1.837285604117686599
0.503000000000000336,-1.810829917598406835
0.504000000000000337,-1.784731775312566437
0.505000000000000338,-1.758987797107441908
0.506000000000000338,-1.733594582725934474
0.507000000000000339,-1.708548713928969676
0.508000000000000340,-1.683846756552997759
0.509000000000000341,-1.659485262503823666
0.510000000000000342,-1.635460771687841319
0.511000000000000343,-1.611769813881952729
0.512000000000000344,-1.588408910543259278
0.513000000000000345,-1.565374576559755537
0.514000000000000346,-1.542663321943167576
0.515000000000000346,-1.520271653465063100
0.516000000000000347,-1.498196076237416907
0.517000000000000348,-1.476433095238804505
0.518000000000000349,-1.454979216787253060
0.519000000000000350,-1.433830949961011347
0.520000000000000351,-1.412984807968240775
0.521000000000000352,-1.392437309466819206
0.522000000000000353,-1.372184979835311847
0.523000000000000353,-1.352224352396178331
0.524000000000000354,-1.332551969592373542
0.525000000000000355,-1.313164384118307826
0.526000000000000356,-1.294058160006275049
0.527000000000000357,-1.275229873669416980
0.528000000000000358,-1.256676114902143038
0.529000000000000359,-1.238393487839181795
0.530000000000000360,-1.220378611874101349
0.531000000000000361,-1.202628122538419664
0.532000000000000361,-1.185138672342195276
0.533000000000000362,-1.167906931577118446
0.534000000000000363,-1.150929589083007132
0.535000000000000364,-1.134203352978671253
0.536000000000000365,-1.117724951358054941
0.537000000000000366,-1.101491132952577834
0.538000000000000367,-1.085498667760515401
0.539000000000000368,-1.069744347644405513
0.540000000000000369,-1.054224986897195349
0.541000000000000369,-1.038937422778132502
0.542000000000000370,-1.023878516019112173
0.543000000000000371,-1.009045151302362164
0.544000000000000372,-0.994434237710276170
0.545000000000000373,-0.980042709148158386
0.546000000000000374,-0.965867524740656291
0.547000000000000375,-0.951905669202672167
0.548000000000000376,-0.938154153185491224
0.549000000000000377,-0.924610013598849201
0.550000000000000377,-0.911270313909652740
0.551000000000000378,-0.898132144418095857
0.552000000000000379,-0.885192622511823624
0.553000000000000380,-0.872448892898855632
0.554000000000000381,-0.859898127819884062
0.555000000000000382,-0.847537527240680766
0.556000000000000383,-0.835364319025136304
0.557000000000000384,-0.823375759089680748
0.558000000000000385,-0.811569131539577548
0.559000000000000385,-0.799941748787786233
0.560000000000000386,-0.788490951656903860
0.561000000000000387,-0.777214109464812175
0.562000000000000388,-0.766108620094539505
0.563000000000000389,-0.755171910048933803
0.564000000000000390,-0.744401434490632008
0.565000000000000391,-0.733794677267886386
0.566000000000000392,-0.723349150926718809
0.567000000000000393,-0.713062396709954305
0.568000000000000393,-0.702931984543546440
0.569000000000000394,-0.692955513010733215
0.570000000000000395,-0.683130609314454462
0.571000000000000396,-0.673454929228471832
0.572000000000000397,-0.663926157037678988
0.573000000000000398,-0.654542005467949162
0.574000000000000399,-0.645300215606044891
0.575000000000000400,-0.636198556809879245
0.576000000000000401,-0.627234826609620377
0.577000000000000401,-0.618406850599995783
0.578000000000000402,-0.609712482324145100
0.579000000000000403,-0.601149603149408351
0.580000000000000404,-0.592716122135441781
0.581000000000000405,-0.584409975894939482
0.582000000000000406,-0.576229128447353967
0.583000000000000407,-0.568171571065921088
0.584000000000000408,-0.560235322118311618
0.585000000000000409,-0.552418426901219339
0.586000000000000409,-0.544718957469196075
0.587000000000000410,-0.537135012458021754
0.588000000000000411,-0.529664716902882526
0.589000000000000412,-0.522306222051667435
0.590000000000000413,-0.515057705173603497
0.591000000000000414,-0.507917369363538040
0.592000000000000415,-0.500883443342098555
0.593000000000000416,-0.493954181251968882
0.594000000000000417,-0.487127862450526528
0.595000000000000417,-0.480402791299113563
0.596000000000000418,-0.473777296949057791
0.597000000000000419,-0.467249733124806610
0.598000000000000420,-0.460818477904245571
0.599000000000000421,-0.454481933496510560
0.600000000000000422,-0.448238526017419203
0.601000000000000423,-0.442086705262759616
0.602000000000000424,-0.436024944479592835
0.603000000000000425,-0.430051740135764138
0.604000000000000425,-0.424165611687783273
0.605000000000000426,-0.418365101347239254
0.606000000000000427,-0.412648773845961270
0.607000000000000428,-0.407015216199948349
0.608000000000000429,-0.401463037472435835
0.609000000000000430,-0.395990868535977203
0.610000000000000431,-0.390597361833940782
0.611000000000000432,-0.385281191141367274
0.612000000000000433,-0.380041051325391066
0.613000000000000433,-0.374875658105384590
