# PLA-CHARMM_CS-19489-AC
# h[nm],U(h)[kJ/mol]
0.149999999999999994,114.537625815023517362
0.150999999999999995,113.445485173004314561
0.151999999999999996,112.009130841817110991
0.152999999999999997,110.513550554830970896
0.153999999999999998,109.055075539766264114
0.154999999999999999,107.645715851791194950
0.156000000000000000,106.267633755795486650
0.157000000000000001,104.898956890840466372
0.158000000000000002,103.523919427614004007
0.159000000000000002,102.135060738602504671
0.160000000000000003,100.731904824821654643
0.161000000000000004,99.318512134610145381
0.162000000000000005,97.901083990864975704
0.163000000000000006,96.486106789401347328
0.164000000000000007,95.079150298365533445
0.165000000000000008,93.684253503565798837
0.166000000000000009,92.303760892652391590
0.167000000000000010,90.938461057565049828
0.168000000000000010,89.587897315359938943
0.169000000000000011,88.250748882214708146
0.170000000000000012,86.925211256472039167
0.171000000000000013,85.609331092118651441
0.172000000000000014,84.301272102222711169
0.173000000000000015,82.999504168708696739
0.174000000000000016,81.702918414922550028
0.175000000000000017,80.410877425284027709
0.176000000000000018,79.123213044439168584
0.177000000000000018,77.840185154496836617
0.178000000000000019,76.562414272288364714
0.179000000000000020,75.290799331590363863
0.180000000000000021,74.026430070759971613
0.181000000000000022,72.770501356609898380
0.182000000000000023,71.524234755959241738
0.183000000000000024,70.288810848940499909
0.184000000000000025,69.065314232252802640
0.185000000000000026,67.854691911086234768
0.186000000000000026,66.657724820378518871
0.187000000000000027,65.475011525581905403
0.188000000000000028,64.306962695995110835
0.189000000000000029,63.153804681320423242
0.190000000000000030,62.015590415513841549
0.191000000000000031,60.892215884626878619
0.192000000000000032,59.783440494514749730
0.193000000000000033,58.688909831960003771
0.194000000000000034,57.608179505742825199
0.195000000000000034,56.540738963951241658
0.196000000000000035,55.486034396119961798
0.197000000000000036,54.443490033143248752
0.198000000000000037,53.412527347043294412
0.199000000000000038,52.392581821966508926
0.200000000000000039,51.383117114710593398
0.201000000000000040,50.383636546780948606
0.202000000000000041,49.393691970790953860
0.203000000000000042,48.412890133184660613
0.204000000000000042,47.440896714581150206
0.205000000000000043,46.477438270684203303
0.206000000000000044,45.522302322992047152
0.207000000000000045,44.575335861844607166
0.208000000000000046,43.636442526940697917
0.209000000000000047,42.705578724490450782
0.210000000000000048,41.782748927592088251
0.211000000000000049,40.868000388977293369
0.212000000000000050,39.961417474468795774
0.213000000000000050,39.063115802631877216
0.214000000000000051,38.173236352248920866
0.215000000000000052,37.291939675280538324
0.216000000000000053,36.419400329589983301
0.217000000000000054,35.555801623426432911
0.218000000000000055,34.701330742875505564
0.219000000000000056,33.856174314457732066
0.220000000000000057,33.020514437943383257
0.221000000000000058,32.194525209342089056
0.222000000000000058,31.378369740913477415
0.223000000000000059,30.572197673897335335
0.224000000000000060,29.776143170382596281
0.225000000000000061,28.990323363212411323
0.226000000000000062,28.214837236918516084
0.227000000000000063,27.449764908242052286
0.228000000000000064,26.695167271676059073
0.229000000000000065,25.951085973495388259
0.230000000000000066,25.217543676775601824
0.231000000000000066,24.494544579787579153
0.232000000000000067,23.782075150757634674
0.233000000000000068,23.080105043167680634
0.234000000000000069,22.388588157422610436
0.235000000000000070,21.707463816723453931
0.236000000000000071,21.036658027260664028
0.237000000000000072,20.376084795296733887
0.238000000000000073,19.725647476270911085
0.239000000000000073,19.085240133667763729
0.240000000000000074,18.454748887990920281
0.241000000000000075,17.834053238735368296
0.242000000000000076,17.223027344715923448
0.243000000000000077,16.621541250461177697
0.244000000000000078,16.029462048599448565
0.245000000000000079,15.446654970230444093
0.246000000000000080,14.872984397184595196
0.247000000000000081,14.308314791812776434
0.248000000000000081,13.752511541523608329
0.249000000000000082,13.205441716692291720
0.250000000000000111,12.666974741807702998
0.251000000000000112,12.136982980810174126
0.252000000000000113,11.615342238505109052
0.253000000000000114,11.101932180730425870
0.254000000000000115,10.596636676611741024
0.255000000000000115,10.099344066773769057
0.256000000000000116,9.609947361795558862
0.257000000000000117,9.128344375512766007
0.258000000000000118,8.654437797993065118
0.259000000000000119,8.188135213148479252
0.260000000000000120,7.729349066012481728
0.261000000000000121,7.277996584709268468
0.262000000000000122,6.833999662084340621
0.263000000000000123,6.397284701860744605
0.264000000000000123,5.967782434038179318
0.265000000000000124,5.545427704072660724
0.266000000000000125,5.130159240167086132
0.267000000000000126,4.721919402774610752
0.268000000000000127,4.320653920171827700
0.269000000000000128,3.926311613703354020
0.270000000000000129,3.538844116036305998
0.271000000000000130,3.158205585496475010
0.272000000000000131,2.784352419292187797
0.273000000000000131,2.417242968167484740
0.274000000000000132,2.056837254768052237
0.275000000000000133,1.703096697751347977
0.276000000000000134,1.355983843429383828
0.277000000000000135,1.015462106500462536
0.278000000000000136,0.681495521203605237
0.279000000000000137,0.354048504020042565
0.280000000000000138,0.033085628849209049
0.281000000000000139,-0.281428584598477638
0.282000000000000139,-0.589529868620339625
0.283000000000000140,-0.891254391138729174
0.284000000000000141,-1.186638924848854471
0.285000000000000142,-1.475721001761740592
0.286000000000000143,-1.758539053126894958
0.287000000000000144,-2.035132534826876505
0.288000000000000145,-2.305542038432856877
0.289000000000000146,-2.569809388194408406
0.290000000000000147,-2.827977724312346286
0.291000000000000147,-3.080091572907040387
0.292000000000000148,-3.326196903150520967
0.293000000000000149,-3.566341172076170185
0.294000000000000150,-3.800573357618502346
0.295000000000000151,-4.028943980465502506
0.296000000000000152,-4.251505115329704765
0.297000000000000153,-4.468310392260788078
0.298000000000000154,-4.679414988633955552
0.299000000000000155,-4.884875612453756233
0.300000000000000155,-5.084750477614192299
0.301000000000000156,-5.279099271752271783
0.302000000000000157,-5.467983117325519338
0.303000000000000158,-5.651464526532749666
0.304000000000000159,-5.829607350684428368
0.305000000000000160,-6.002476724612534120
0.306000000000000161,-6.170139006691867323
0.307000000000000162,-6.332661715024484828
0.308000000000000163,-6.490113460317563643
0.309000000000000163,-6.642563875961961628
0.310000000000000164,-6.790083545795378761
0.311000000000000165,-6.932743930009263700
0.312000000000000166,-7.070617289633955416
0.313000000000000167,-7.203776610011368930
0.314000000000000168,-7.332295523639158930
0.315000000000000169,-7.456248232745345206
0.316000000000000170,-7.575709431927417192
0.317000000000000171,-7.690754231165266575
0.318000000000000171,-7.801458079493164277
0.319000000000000172,-7.907896689592834427
0.320000000000000173,-8.010145963546206005
0.321000000000000174,-8.108281919964651863
0.322000000000000175,-8.202380622689997125
0.323000000000000176,-8.292518111241935941
0.324000000000000177,-8.378770333166841056
0.325000000000000178,-8.461213078423874379
0.326000000000000179,-8.539921915926807827
0.327000000000000179,-8.614972132342327171
0.328000000000000180,-8.686438673229881502
0.329000000000000181,-8.754396086592938886
0.330000000000000182,-8.818918468896786322
0.331000000000000183,-8.880079413595302285
0.332000000000000184,-8.937951962195914035
0.333000000000000185,-8.992608557880879872
0.334000000000000186,-9.044121001691914685
0.335000000000000187,-9.092560411275345089
0.336000000000000187,-9.137997182175949362
0.337000000000000188,-9.180500951658789432
0.338000000000000189,-9.220140565031357482
0.339000000000000190,-9.256984044430947023
0.340000000000000191,-9.291098560035951692
0.341000000000000192,-9.322550403654469520
0.342000000000000193,-9.351404964638316386
0.343000000000000194,-9.377726708066436601
0.344000000000000195,-9.401579155137415711
0.345000000000000195,-9.423024865708214293
0.346000000000000196,-9.442125422912596378
0.347000000000000197,-9.458941419791070615
0.348000000000000198,-9.473532447861799710
0.349000000000000199,-9.485957087560645817
0.350000000000000200,-9.496272900477311651
0.351000000000000201,-9.504536423313798110
0.352000000000000202,-9.510803163490786361
0.353000000000000203,-9.515127596327641157
0.354000000000000203,-9.517563163721719732
0.355000000000000204,-9.518162274252821575
0.356000000000000205,-9.516976304639614526
0.357000000000000206,-9.514055602475476547
0.358000000000000207,-9.509449490171903108
0.359000000000000208,-9.503206270039324721
0.360000000000000209,-9.495373230436062073
0.361000000000000210,-9.485996652917668470
0.362000000000000210,-9.475121820320620003
0.363000000000000211,-9.462793025715674489
0.364000000000000212,-9.449053582168327026
0.365000000000000213,-9.433945833245173773
0.366000000000000214,-9.417511164207265750
0.367000000000000215,-9.399790013833115410
0.368000000000000216,-9.380821886816285371
0.369000000000000217,-9.360645366684163804
0.370000000000000218,-9.339298129186843767
0.371000000000000218,-9.316816956106704239
0.372000000000000219,-9.293237749441669138
0.373000000000000220,-9.268595545916843648
0.374000000000000221,-9.242924531781405051
0.375000000000000222,-9.216258057849412211
0.376000000000000223,-9.188628654745542690
0.377000000000000224,-9.160068048318251499
0.378000000000000225,-9.130607175185028623
0.379000000000000226,-9.100276198376260339
0.380000000000000226,-9.069104523046071620
0.381000000000000227,-9.037120812220084787
0.382000000000000228,-9.004353002552200280
0.383000000000000229,-8.970828320063823469
0.384000000000000230,-8.936573295840766207
0.385000000000000231,-8.901613781664810432
0.386000000000000232,-8.865974965558176990
0.387000000000000233,-8.829681387220947641
0.388000000000000234,-8.792756953342706794
0.389000000000000234,-8.755224952771303748
0.390000000000000235,-8.717108071522769563
0.391000000000000236,-8.678428407617914786
0.392000000000000237,-8.639207485732219638
0.393000000000000238,-8.599466271646997839
0.394000000000000239,-8.559225186490765580
0.395000000000000240,-8.518504120761054565
0.396000000000000241,-8.477322448117796228
0.397000000000000242,-8.435699038940413175
0.398000000000000242,-8.393652273641860617
0.399000000000000243,-8.351200055733531968
0.400000000000000244,-8.308359824635939361
0.401000000000000245,-8.265148568230930692
0.402000000000000246,-8.221582835151814095
0.403000000000000247,-8.177678746808568988
0.404000000000000248,-8.133452009146081352
0.405000000000000249,-8.088917924133847137
0.406000000000000250,-8.044091400986221885
0.407000000000000250,-7.998986967112950985
0.408000000000000251,-7.953618778800070288
0.409000000000000252,-7.908000631621982635
0.410000000000000253,-7.862145970585707744
0.411000000000000254,-7.816067900008997427
0.412000000000000255,-7.769779193134127127
0.413000000000000256,-7.723292301479851574
0.414000000000000257,-7.676619363933968820
0.415000000000000258,-7.629772215589635032
0.416000000000000258,-7.582762396328510235
0.417000000000000259,-7.535601159154341921
0.418000000000000260,-7.488299478280586285
0.419000000000000261,-7.440868056976090550
0.420000000000000262,-7.393317335172855387
0.421000000000000263,-7.345657496840239276
0.422000000000000264,-7.297898477129910688
0.423000000000000265,-7.250049969296149754
0.424000000000000266,-7.202121431396197870
0.425000000000000266,-7.154122092775264896
0.426000000000000267,-7.106060960341125110
0.427000000000000268,-7.057946824633130056
0.428000000000000269,-7.009788265690542808
0.429000000000000270,-6.961593658725237610
0.430000000000000271,-6.913371179603603700
0.431000000000000272,-6.865128810142825166
0.432000000000000273,-6.816874343226341004
0.433000000000000274,-6.768615387743659895
0.434000000000000274,-6.720359373359285016
0.435000000000000275,-6.672113555115910977
0.436000000000000276,-6.623885017876626868
0.437000000000000277,-6.575680680611031725
0.438000000000000278,-6.527507300530118073
0.439000000000000279,-6.479371477074664654
0.440000000000000280,-6.431279655761779956
0.441000000000000281,-6.383238131894279022
0.442000000000000282,-6.335253054137501394
0.443000000000000282,-6.287330427967919633
0.444000000000000283,-6.239476118998116938
0.445000000000000284,-6.191695856182342084
0.446000000000000285,-6.143995234906883596
0.447000000000000286,-6.096379719969585942
0.448000000000000287,-6.048854648452322458
0.449000000000000288,-6.001425232490667838
0.450000000000000289,-5.954096561944447252
0.451000000000000290,-5.906873606973078950
0.452000000000000290,-5.859761220519421165
0.453000000000000291,-5.812764140705629856
0.454000000000000292,-5.765886993144674122
0.455000000000000293,-5.719134293170795580
0.456000000000000294,-5.672510447992348936
0.457000000000000295,-5.626019758770192780
0.458000000000000296,-5.579666422624756095
0.459000000000000297,-5.533454534574881123
0.460000000000000298,-5.487388089411278536
0.461000000000000298,-5.441470983507609382
0.462000000000000299,-5.395707016571793524
0.463000000000000300,-5.350099893340293455
0.464000000000000301,-5.304653225217968782
0.465000000000000302,-5.259370531865984688
0.466000000000000303,-5.214255242740111207
0.467000000000000304,-5.169310698581833563
0.468000000000000305,-5.124540152864460296
0.469000000000000306,-5.079946773196349241
0.470000000000000306,-5.035533642683440725
0.471000000000000307,-4.991303761252886773
0.472000000000000308,-4.947260046939941702
0.473000000000000309,-4.903405337139728815
0.474000000000000310,-4.859742389825806974
0.475000000000000311,-4.816273884737070965
0.476000000000000312,-4.773002424534850796
0.477000000000000313,-4.729930535931456070
0.478000000000000314,-4.687060670791867167
0.479000000000000314,-4.644395207209971232
0.480000000000000315,-4.601936450560553560
0.481000000000000316,-4.559686634528548055
0.482000000000000317,-4.517647922116576176
0.483000000000000318,-4.475822406632111949
0.484000000000000319,-4.434212112655280258
0.485000000000000320,-4.392818996988427926
0.486000000000000321,-4.351644949588430400
0.487000000000000322,-4.310691794482730543
0.488000000000000322,-4.269961290669929355
0.489000000000000323,-4.229455133005977530
0.490000000000000324,-4.189174953076576280
0.491000000000000325,-4.149122320056705782
0.492000000000000326,-4.109298741557893209
0.493000000000000327,-4.069705664464057904
0.494000000000000328,-4.030344475756413303
0.495000000000000329,-3.991216503328183229
0.496000000000000330,-3.952323016789580201
0.497000000000000330,-3.913665228263708773
0.498000000000000331,-3.875244293173730536
0.499000000000000332,-3.837061311021987109
0.500000000000000333,-3.799117326161320030
0.501000000000000334,-3.761413328559059632
0.502000000000000335,-3.723950254554128314
0.503000000000000336,-3.686728987607545971
0.504000000000000337,-3.649750359046662673
0.505000000000000338,-3.613015148803469856
0.506000000000000338,-3.576524086147227166
0.507000000000000339,-3.540277850411681193
0.508000000000000340,-3.504277071717070591
0.509000000000000341,-3.468522331687259985
0.510000000000000342,-3.433014164162001780
0.511000000000000343,-3.397753055904682018
0.512000000000000344,-3.362739447305588492
0.513000000000000345,-3.327973733080913377
0.514000000000000346,-3.293456262967614290
0.515000000000000346,-3.259187342414188837
0.516000000000000347,-3.225167233267502986
0.517000000000000348,-3.191396154455819367
0.518000000000000349,-3.157874282667928689
0.519000000000000350,-3.124601753028658724
0.520000000000000351,-3.091578659770611193
0.521000000000000352,-3.058805056902335728
0.522000000000000353,-3.026280958872864524
0.523000000000000353,-2.994006341232620549
0.524000000000000354,-2.961981141290844111
0.525000000000000355,-2.930205258769365884
0.526000000000000356,-2.898678556452839228
0.527000000000000357,-2.867400860835449539
0.528000000000000358,-2.836371962763910126
0.529000000000000359,-2.805591618076994642
0.530000000000000360,-2.775059548241311624
0.531000000000000361,-2.744775440983489023
0.532000000000000361,-2.714738950918616389
0.533000000000000362,-2.684949700174986909
0.534000000000000363,-2.655407279015027822
0.535000000000000364,-2.626111246452434322
0.536000000000000365,-2.597061130865414125
0.537000000000000366,-2.568256430606054685
0.538000000000000367,-2.539696614605641223
0.539000000000000368,-2.511381122976064084
0.540000000000000369,-2.483309367607039242
0.541000000000000369,-2.455480732759289797
0.542000000000000370,-2.427894575653473552
0.543000000000000371,-2.400550227054896624
0.544000000000000372,-2.373446991853917165
0.545000000000000373,-2.346584149642006345
0.546000000000000374,-2.319960955283349779
0.547000000000000375,-2.293576639482000079
0.548000000000000376,-2.267430409344509457
0.549000000000000377,-2.241521448937949579
0.550000000000000377,-2.215848919843284470
0.551000000000000378,-2.190411961704044952
0.552000000000000379,-2.165209692770266425
0.553000000000000380,-2.140241210437591413
0.554000000000000381,-2.115505591781501327
0.555000000000000382,-2.091001894086694346
0.556000000000000383,-2.066729155371412663
0.557000000000000384,-2.042686394906847891
0.558000000000000385,-2.018872613731415466
0.559000000000000385,-1.995286795159977755
0.560000000000000386,-1.971927905287899518
0.561000000000000387,-1.948794893489925739
0.562000000000000388,-1.925886692913814313
0.563000000000000389,-1.903202220968740477
0.564000000000000390,-1.880740379808366836
0.565000000000000391,-1.858500056808599421
0.566000000000000392,-1.836480125039960942
0.567000000000000393,-1.814679443734603881
0.568000000000000393,-1.793096858747858180
0.569000000000000394,-1.771731203014341061
0.570000000000000395,-1.750581296998625636
0.571000000000000396,-1.729645949140355965
0.572000000000000397,-1.708923956293912028
0.573000000000000398,-1.688414104162477170
0.574000000000000399,-1.668115167726626158
0.575000000000000400,-1.648025911667276633
0.576000000000000401,-1.628145090783118976
0.577000000000000401,-1.608471450402460645
0.578000000000000402,-1.589003726789453230
0.579000000000000403,-1.569740647544718426
0.580000000000000404,-1.550680932000425782
0.581000000000000405,-1.531823291609701654
0.582000000000000406,-1.513166430330489032
0.583000000000000407,-1.494709045003765002
0.584000000000000408,-1.476449825726193765
0.585000000000000409,-1.458387456217172140
0.586000000000000409,-1.440520614180291981
0.587000000000000410,-1.422847971659243260
0.588000000000000411,-1.405368195388125629
0.589000000000000412,-1.388079947136251047
0.590000000000000413,-1.370981884047366872
0.591000000000000414,-1.354072658973381804
0.592000000000000415,-1.337350920802602872
0.593000000000000416,-1.320815314782457728
0.594000000000000417,-1.304464482836754424
0.595000000000000417,-1.288297063877570592
0.596000000000000418,-1.272311694111599945
0.597000000000000419,-1.256507007341240767
0.598000000000000420,-1.240881635260213667
0.599000000000000421,-1.225434207743909543
0.600000000000000422,-1.210163353134388498
0.601000000000000423,-1.195067698520123400
0.602000000000000424,-1.180145870010482989
0.603000000000000425,-1.165396493005006029
0.604000000000000425,-1.150818192457494504
0.605000000000000426,-1.136409593134943163
0.606000000000000427,-1.122169319871415771
0.607000000000000428,-1.108095997816733957
0.608000000000000429,-1.094188252680286189
0.609000000000000430,-1.080444710969669320
0.610000000000000431,-1.066864000224518438
0.611000000000000432,-1.053444749245335599
0.612000000000000433,-1.040185588317443788
0.613000000000000433,-1.027085149430151390
