# PLA-CHARMM_CS-20788-AC
# h[nm],U(h)[kJ/mol]
0.149999999999999994,157.197771615238821141
0.150999999999999995,155.878752601246588938
0.151999999999999996,154.156996532729721139
0.152999999999999997,152.358353001141551886
0.153999999999999998,150.594356564170738011
0.154999999999999999,148.880522438777319394
0.156000000000000000,147.198189097827537353
0.157000000000000001,145.523856602549301442
0.158000000000000002,143.840723593620339216
0.159000000000000002,142.141191695286579488
0.160000000000000003,140.425365772676684628
0.161000000000000004,138.698274261988728995
0.162000000000000005,136.967156180379504349
0.163000000000000006,135.239371123169803468
0.164000000000000007,133.521062179145047821
0.165000000000000008,131.816494178487090494
0.166000000000000009,130.127908432692606766
0.167000000000000010,128.455722294503146941
0.168000000000000010,126.798922357971790120
0.169000000000000011,125.155533468262021302
0.170000000000000012,123.523080680826794264
0.171000000000000013,121.898992329950743851
0.172000000000000014,120.280917219568095788
0.173000000000000015,118.666947294619191666
0.174000000000000016,117.055749608630549119
0.175000000000000017,115.446618999845469489
0.176000000000000018,113.839466741944050909
0.177000000000000018,112.234761586604605554
0.178000000000000019,110.633438949792065387
0.179000000000000020,109.036792219617382216
0.180000000000000021,107.446357816875021740
0.181000000000000022,105.863803104628487972
0.182000000000000023,104.290823780147206890
0.183000000000000024,102.729055152362505510
0.184000000000000025,101.179999797967056452
0.185000000000000026,99.644972533159304362
0.186000000000000026,98.125062433215788360
0.187000000000000027,96.621110752737152438
0.188000000000000028,95.133703006467882801
0.189000000000000029,93.663173118927545602
0.190000000000000030,92.209617394573001548
0.191000000000000031,90.772916054970394839
0.192000000000000032,89.352760195870416737
0.193000000000000033,87.948682200783679264
0.194000000000000034,86.560087879899128893
0.195000000000000034,85.186288860723038852
0.196000000000000035,83.826534021489834458
0.197000000000000036,82.480039016613758918
0.198000000000000037,81.146013185516309818
0.199000000000000038,79.823683355667867545
0.200000000000000039,78.512314243853467133
0.201000000000000040,77.211225324839347195
0.202000000000000041,75.919804173694942051
0.203000000000000042,74.637516398097403680
0.204000000000000042,73.363912361896808534
0.205000000000000043,72.098630963459697796
0.206000000000000044,70.841400774515435046
0.207000000000000045,69.592038870202614476
0.208000000000000046,68.350447691505166858
0.209000000000000047,67.116610279918660353
0.210000000000000048,65.890584213431253602
0.211000000000000049,64.672494554957694390
0.212000000000000050,63.462526101171363280
0.213000000000000050,62.260915192942547947
0.214000000000000051,61.067941319742672590
0.215000000000000052,59.883918720610004982
0.216000000000000053,58.709188154567449658
0.217000000000000054,57.544108984497270853
0.218000000000000055,56.389051691002819666
0.219000000000000056,55.244390907149281134
0.220000000000000057,54.110499041462233549
0.221000000000000058,52.987740535362647165
0.222000000000000058,51.876466782400257216
0.223000000000000059,50.777011720233744541
0.224000000000000060,49.689688092235087424
0.225000000000000061,48.614784363770652931
0.226000000000000062,47.552562268499990239
0.227000000000000063,46.503254952277529810
0.228000000000000064,45.467065676272468977
0.229000000000000065,44.444167036554965478
0.230000000000000066,43.434700654458495706
0.231000000000000066,42.438777290330634173
0.232000000000000067,41.456477332666267444
0.233000000000000068,40.487851614905508768
0.234000000000000069,39.532922513227518380
0.235000000000000070,38.591685280337529207
0.236000000000000071,37.664109572400995773
0.237000000000000072,36.750141128809261204
0.238000000000000073,35.849703567265876814
0.239000000000000073,34.962700259671919412
0.240000000000000074,34.089016257380201580
0.241000000000000075,33.228520237523561320
0.242000000000000076,32.381066445238715801
0.243000000000000077,31.546496609660795940
0.244000000000000078,30.724641814518246719
0.245000000000000079,29.915324306980359381
0.246000000000000080,29.118359231081591076
0.247000000000000081,28.333556274546509712
0.248000000000000081,27.560721220160040446
0.249000000000000082,26.799657394960455292
0.250000000000000111,26.050167012474531703
0.251000000000000112,25.312052404967484875
0.252000000000000113,24.585117144245412391
0.253000000000000114,23.869167050935196528
0.254000000000000115,23.164011093376750239
0.255000000000000115,22.469462178310458000
0.256000000000000116,21.785337836433221526
0.257000000000000117,21.111460806642334376
0.258000000000000118,20.447659523399018155
0.259000000000000119,19.793768512130363035
0.260000000000000120,19.149628697963741786
0.261000000000000121,18.515087633361666519
0.262000000000000122,17.889999650405744802
0.263000000000000123,17.274225943579558873
0.264000000000000123,16.667634588927960237
0.265000000000000124,16.070100505436407445
0.266000000000000125,15.481505364385327539
0.267000000000000126,14.901737452300247710
0.268000000000000127,14.330691492944257703
0.269000000000000128,13.768268433595043376
0.270000000000000129,13.214375200617237027
0.271000000000000130,12.668924429089097217
0.272000000000000131,12.131834170977388254
0.273000000000000131,11.603027586076429145
0.274000000000000132,11.082432619645024019
0.275000000000000133,10.569981670388084893
0.276000000000000134,10.065611252143916943
0.277000000000000135,9.569261652355645964
0.278000000000000136,9.080876590126191417
0.279000000000000137,8.600402876385896178
0.280000000000000138,8.127790078439817378
0.281000000000000139,7.662990190908688604
0.282000000000000139,7.205957314837095673
0.283000000000000140,6.756647346512319352
0.284000000000000141,6.315017677320677869
0.285000000000000142,5.881026905763703461
0.286000000000000143,5.454634562565203737
0.287000000000000144,5.035800849622445341
0.288000000000000145,4.624486393388720806
0.289000000000000146,4.220652013123450175
0.290000000000000147,3.824258504304975048
0.291000000000000147,3.435266437374945525
0.292000000000000148,3.053635971866524024
0.293000000000000149,2.679326685865609736
0.294000000000000150,2.312297420660054392
0.295000000000000151,1.952506140349776986
0.296000000000000152,1.599909806117155497
0.297000000000000153,1.254464264794022954
0.298000000000000154,0.916124151306026646
0.299000000000000155,0.584842804528951876
0.300000000000000155,0.260572196052042404
0.301000000000000156,-0.056737128688191141
0.302000000000000157,-0.367136097466505995
0.303000000000000158,-0.670677147101301774
0.304000000000000159,-0.967414248657156195
0.305000000000000160,-1.257402922622429475
0.306000000000000161,-1.540700244671717289
0.307000000000000162,-1.817364842623360843
0.308000000000000163,-2.087456885199026502
0.309000000000000163,-2.351038063185970195
0.310000000000000164,-2.608171563593598030
0.311000000000000165,-2.858922037383819337
0.312000000000000166,-3.103355561341157198
0.313000000000000167,-3.341539594632526367
0.314000000000000168,-3.573542930589318267
0.315000000000000169,-3.799435644225789055
0.316000000000000170,-4.019289035988127701
0.317000000000000171,-4.233175572207700021
0.318000000000000171,-4.441168822711007991
0.319000000000000172,-4.643343396017300506
0.320000000000000173,-4.839774872532585093
0.321000000000000174,-5.030539736126804051
0.322000000000000175,-5.215715304459105361
0.323000000000000176,-5.395379658393793854
0.324000000000000177,-5.569611570828310931
0.325000000000000178,-5.738490435232627362
0.326000000000000179,-5.902096194179291544
0.327000000000000179,-6.060509268122004300
0.328000000000000180,-6.213810484661340894
0.329000000000000181,-6.362081008516623726
0.330000000000000182,-6.505402272404174013
0.331000000000000183,-6.643855909004480864
0.332000000000000184,-6.777523684183071495
0.333000000000000185,-6.906487431613594019
0.334000000000000186,-7.030828988935647672
0.335000000000000187,-7.150630135564666645
0.336000000000000187,-7.265972532257125138
0.337000000000000188,-7.376937662520056449
0.338000000000000189,-7.483606775941782807
0.339000000000000190,-7.586060833508057044
0.340000000000000191,-7.684380454956415640
0.341000000000000192,-7.778645868211112813
0.342000000000000193,-7.868936860930707766
0.343000000000000194,-7.955332734191252086
0.344000000000000195,-8.037912258318817393
0.345000000000000195,-8.116753630878037029
0.346000000000000196,-8.191934436814666043
0.347000000000000197,-8.263531610744317746
0.348000000000000198,-8.331621401372691693
0.349000000000000199,-8.396279338027085259
0.350000000000000200,-8.457580199273685650
0.351000000000000201,-8.515597983590513564
0.352000000000000202,-8.570405882061479019
0.353000000000000203,-8.622076253053373662
0.354000000000000203,-8.670680598834316299
0.355000000000000204,-8.716289544088784425
0.356000000000000205,-8.758972816282296847
0.357000000000000206,-8.798799227826433977
0.358000000000000207,-8.835836659992569508
0.359000000000000208,-8.870152048521784849
0.360000000000000209,-8.901811370876650642
0.361000000000000210,-8.930879635079694623
0.362000000000000210,-8.957420870082689390
0.363000000000000211,-8.981498117610211551
0.364000000000000212,-9.003173425420829545
0.365000000000000213,-9.022507841928915084
0.366000000000000214,-9.039561412130405316
0.367000000000000215,-9.054393174775826836
0.368000000000000216,-9.067061160734636971
0.369000000000000217,-9.077622392495056758
0.370000000000000218,-9.086132884744678506
0.371000000000000218,-9.092647645977489645
0.372000000000000219,-9.097220681074196236
0.373000000000000220,-9.099904994803527103
0.374000000000000221,-9.100752596193270705
0.375000000000000222,-9.099814503720809356
0.376000000000000223,-9.097140751274530146
0.377000000000000224,-9.092780394838131386
0.378000000000000225,-9.086781519851594879
0.379000000000000226,-9.079191249203622860
0.380000000000000226,-9.070055751812013511
0.381000000000000227,-9.059420251749306985
0.382000000000000228,-9.047329037873051760
0.383000000000000229,-9.033825473920904514
0.384000000000000230,-9.018952009032407346
0.385000000000000231,-9.002750188660858299
0.386000000000000232,-8.985260665839641447
0.387000000000000233,-8.966523212769335061
0.388000000000000234,-8.946576732692752998
0.389000000000000234,-8.925459272026920132
0.390000000000000235,-8.903208032721996901
0.391000000000000236,-8.879859384818704626
0.392000000000000237,-8.855448879176959665
0.393000000000000238,-8.830011260349916569
0.394000000000000239,-8.803580479578599238
0.395000000000000240,-8.776189707883849778
0.396000000000000241,-8.747871349233298233
0.397000000000000242,-8.718657053762267850
0.398000000000000242,-8.688577731028860995
0.399000000000000243,-8.657663563284270225
0.400000000000000244,-8.625944018740719699
0.401000000000000245,-8.593447864820412008
0.402000000000000246,-8.560203181369699266
0.403000000000000247,-8.526237373823988719
0.404000000000000248,-8.491577186309550385
0.405000000000000249,-8.456248714669555966
0.406000000000000250,-8.420277419402285801
0.407000000000000250,-8.383688138500618336
0.408000000000000251,-8.346505100182408654
0.409000000000000252,-8.308751935502412422
0.410000000000000253,-8.270451690836996050
0.411000000000000254,-8.231626840233628783
0.412000000000000255,-8.192299297617898546
0.413000000000000256,-8.152490428851459470
0.414000000000000257,-8.112221063634740048
0.415000000000000258,-8.071511507249240935
0.416000000000000258,-8.030381552134354450
0.417000000000000259,-7.988850489294600621
0.418000000000000260,-7.946937119533390437
0.419000000000000261,-7.904659764510088671
0.420000000000000262,-7.862036277617503011
0.421000000000000263,-7.819084054677543527
0.422000000000000264,-7.775820044452913749
0.423000000000000265,-7.732260758973379389
0.424000000000000266,-7.688422283675466318
0.425000000000000266,-7.644320287354538834
0.426000000000000267,-7.599970031928973135
0.427000000000000268,-7.555386382016022750
0.428000000000000269,-7.510583814319547358
0.429000000000000270,-7.465576426829942491
0.430000000000000271,-7.420377947836780841
0.431000000000000272,-7.375001744755119937
0.432000000000000273,-7.329460832766381273
0.433000000000000274,-7.283767883275184651
0.434000000000000274,-7.237935232183429157
0.435000000000000275,-7.191974887983320741
0.436000000000000276,-7.145898539671111216
0.437000000000000277,-7.099717564483346344
0.438000000000000278,-7.053443035457780397
0.439000000000000279,-7.007085728821084381
0.440000000000000280,-6.960656131205533725
0.441000000000000281,-6.914164446697133926
0.442000000000000282,-6.867620603717642602
0.443000000000000282,-6.821034261742870974
0.444000000000000283,-6.774414817860085591
0.445000000000000284,-6.727771413166967918
0.446000000000000285,-6.681112939014897556
0.447000000000000286,-6.634448043099442138
0.448000000000000287,-6.587785135400595848
0.449000000000000288,-6.541132393975833459
0.450000000000000289,-6.494497770608630205
0.451000000000000290,-6.447888996315403354
0.452000000000000290,-6.401313586713752279
0.453000000000000291,-6.354778847254789476
0.454000000000000292,-6.308291878322528135
0.455000000000000293,-6.261859580203131159
0.456000000000000294,-6.215488657926924176
0.457000000000000295,-6.169185625986035149
0.458000000000000296,-6.122956812930398840
0.459000000000000297,-6.076808365845113968
0.460000000000000298,-6.030746254711742083
0.461000000000000298,-5.984776276656515570
0.462000000000000299,-5.938904060088046499
0.463000000000000300,-5.893135068727281656
0.464000000000000301,-5.847474605532436698
0.465000000000000302,-5.801927816521526893
0.466000000000000303,-5.756499694495003538
0.467000000000000304,-5.711195082661229883
0.468000000000000305,-5.666018678167185740
0.469000000000000306,-5.620975035536925901
0.470000000000000306,-5.576068570020341397
0.471000000000000307,-5.531303560854377466
0.472000000000000308,-5.486684154439378958
0.473000000000000309,-5.442214367432596234
0.474000000000000310,-5.397898089761314466
0.475000000000000311,-5.353739087557668697
0.476000000000000312,-5.309741006017538290
0.477000000000000313,-5.265907372185376190
0.478000000000000314,-5.222241597667253821
0.479000000000000314,-5.178746981274143124
0.480000000000000315,-5.135426711597280480
0.481000000000000316,-5.092283869517775230
0.482000000000000317,-5.049321430652145004
0.483000000000000318,-5.006542267735786922
0.484000000000000319,-4.963949152946098842
0.485000000000000320,-4.921544760167073207
0.486000000000000321,-4.879331667197023492
0.487000000000000322,-4.837312357901187632
0.488000000000000322,-4.795489224310673038
0.489000000000000323,-4.753864568669600388
0.490000000000000324,-4.712440605431723384
0.491000000000000325,-4.671219463208164058
0.492000000000000326,-4.630203186667655402
0.493000000000000327,-4.589393738390792343
0.494000000000000328,-4.548793000679552279
0.495000000000000329,-4.508402777323537336
0.496000000000000330,-4.468224795324107212
0.497000000000000330,-4.428260706577837880
0.498000000000000331,-4.388512089520264503
0.499000000000000332,-4.348980450731427361
0.500000000000000333,-4.309667226504089399
0.501000000000000334,-4.270573784375828907
0.502000000000000335,-4.231701424626153951
0.503000000000000336,-4.193051381739616446
0.504000000000000337,-4.154624825835933954
0.505000000000000338,-4.116422864068121967
0.506000000000000338,-4.078446541989592333
0.507000000000000339,-4.040696844891131789
0.508000000000000340,-4.003174699108578594
0.509000000000000341,-3.965880973302240875
0.510000000000000342,-3.928816479708652221
0.511000000000000343,-3.891981975365667701
0.512000000000000344,-3.855378163311527828
0.513000000000000345,-3.819005693758749320
0.514000000000000346,-3.782865165243554539
0.515000000000000346,-3.746957125751445794
0.516000000000000347,-3.711282073819700322
0.517000000000000348,-3.675840459617469413
0.518000000000000349,-3.640632686003941298
0.519000000000000350,-3.605659109565409359
0.520000000000000351,-3.570920041631608033
0.521000000000000352,-3.536415749272102893
0.522000000000000353,-3.502146456273093289
0.523000000000000353,-3.468112344095247490
0.524000000000000354,-3.434313552813134329
0.525000000000000355,-3.400750182036600400
0.526000000000000356,-3.367422291814686108
0.527000000000000357,-3.334329903522541994
0.528000000000000358,-3.301473000731634411
0.529000000000000359,-3.268851530063932920
0.530000000000000360,-3.236465402030191285
0.531000000000000361,-3.204314491852967794
0.532000000000000361,-3.172398640274604720
0.533000000000000362,-3.140717654350634103
0.534000000000000363,-3.109271308228890973
0.535000000000000364,-3.078059343914739454
0.536000000000000365,-3.047081472022695969
0.537000000000000366,-3.016337372514811044
0.538000000000000367,-2.985826695426026411
0.539000000000000368,-2.955549061576984826
0.540000000000000369,-2.925504063274324107
0.541000000000000369,-2.895691264998998982
0.542000000000000370,-2.866110204082665813
0.543000000000000371,-2.836760391372539658
0.544000000000000372,-2.807641311884902624
0.545000000000000373,-2.778752425447539309
0.546000000000000374,-2.750093167331258304
0.547000000000000375,-2.721662948870807064
0.548000000000000376,-2.693461158075361794
0.549000000000000377,-2.665487160228791286
0.550000000000000377,-2.637740298479865686
0.551000000000000378,-2.610219894422676656
0.552000000000000379,-2.582925248667412355
0.553000000000000380,-2.555855641401640899
0.554000000000000381,-2.529010332942313699
0.555000000000000382,-2.502388564278693828
0.556000000000000383,-2.475989557606236069
0.557000000000000384,-2.449812516851781030
0.558000000000000385,-2.423856628189978490
0.559000000000000385,-2.398121060551317463
0.560000000000000386,-2.372604966121734549
0.561000000000000387,-2.347307480834030624
0.562000000000000388,-2.322227724851182451
0.563000000000000389,-2.297364803041724191
0.564000000000000390,-2.272717805447285855
0.565000000000000391,-2.248285807742428144
0.566000000000000392,-2.224067871686870479
0.567000000000000393,-2.200063045570311626
0.568000000000000393,-2.176270364649806943
0.569000000000000394,-2.152688851579945606
0.570000000000000395,-2.129317516835892654
0.571000000000000396,-2.106155359129338045
0.572000000000000397,-2.083201365817581863
0.573000000000000398,-2.060454513305694402
0.574000000000000399,-2.037913767442020685
0.575000000000000400,-2.015578083906944151
0.576000000000000401,-1.993446408595133779
0.577000000000000401,-1.971517677991348139
0.578000000000000402,-1.949790819539799047
0.579000000000000403,-1.928264752007213811
0.580000000000000404,-1.906938385839754391
0.581000000000000405,-1.885810623513706430
0.582000000000000406,-1.864880359880187743
0.583000000000000407,-1.844146482503818962
0.584000000000000408,-1.823607871995542640
0.585000000000000409,-1.803263402339592147
0.586000000000000409,-1.783111941214688745
0.587000000000000410,-1.763152350309616923
0.588000000000000411,-1.743383485633113406
0.589000000000000412,-1.723804197818301187
0.590000000000000413,-1.704413332421575999
0.591000000000000414,-1.685209730216133961
0.592000000000000415,-1.666192227480173482
0.593000000000000416,-1.647359656279782980
0.594000000000000417,-1.628710844746635189
0.595000000000000417,-1.610244617350617302
0.596000000000000418,-1.591959795167224412
0.597000000000000419,-1.573855196140115265
0.598000000000000420,-1.555929635338564321
0.599000000000000421,-1.538181925210112988
0.600000000000000422,-1.520610875828340314
0.601000000000000423,-1.503215295135869489
0.602000000000000424,-1.485993989182659902
0.603000000000000425,-1.468945762359638252
0.604000000000000425,-1.452069417627716019
0.605000000000000426,-1.435363756742257912
0.606000000000000427,-1.418827580473123406
0.607000000000000428,-1.402459688820117067
0.608000000000000429,-1.386258881224284867
0.609000000000000430,-1.370223956774637708
0.610000000000000431,-1.354353714410811538
0.611000000000000432,-1.338646953121389149
0.612000000000000433,-1.323102472138064867
