# PLA-CHARMM_ADENINE
# h[nm],U(h)[kJ/mol]
0.149999999999999994,132.436528174749270192
0.150999999999999995,132.341842096963233644
0.151999999999999996,130.325260011229147494
0.152999999999999997,127.943492387934924182
0.153999999999999998,125.755365280036059517
0.154999999999999999,123.856214592768736793
0.156000000000000000,122.164038007396541730
0.157000000000000001,120.560420234500355718
0.158000000000000002,118.950160364483281228
0.159000000000000002,117.278256338267965475
0.160000000000000003,115.526826513889659509
0.161000000000000004,113.704532130566832393
0.162000000000000005,111.834986834473241402
0.163000000000000006,109.947081072519679878
0.164000000000000007,108.068169997100014257
0.165000000000000008,106.220058656971531263
0.166000000000000009,104.417271635501762717
0.167000000000000010,102.666965748795476543
0.168000000000000010,100.969879802650751799
0.169000000000000011,99.321822954547513973
0.170000000000000012,97.715330911990150753
0.171000000000000013,96.141239753953783520
0.172000000000000014,94.590028258948592566
0.173000000000000015,93.052857550161462541
0.174000000000000016,91.522292547925076178
0.175000000000000017,89.992726267831983478
0.176000000000000018,88.460549290097887365
0.177000000000000018,86.924116582188432290
0.178000000000000019,85.383565673491787607
0.179000000000000020,83.840536752779684093
0.180000000000000021,82.297838764388032473
0.181000000000000022,80.759097630417741698
0.182000000000000023,79.228414455857603116
0.183000000000000024,77.710053725363962940
0.184000000000000025,76.208174519182904305
0.185000000000000026,74.726611884822503384
0.186000000000000026,73.268710767870558698
0.187000000000000027,71.837211292915966965
0.188000000000000028,70.434181592737232336
0.189000000000000029,69.060992675045753231
0.190000000000000030,67.718328841898880910
0.191000000000000031,66.406226789096749030
0.192000000000000032,65.124136573141953477
0.193000000000000033,63.870998018652002770
0.194000000000000034,62.645326744221051740
0.195000000000000034,61.445304722649055407
0.196000000000000035,60.268871092748995011
0.197000000000000036,59.113809751154938965
0.198000000000000037,57.977831034289579293
0.199000000000000038,56.858645525459664327
0.200000000000000039,55.754028672355879337
0.201000000000000040,54.661875466367632725
0.202000000000000041,53.580244913567312892
0.203000000000000042,52.507394419064851832
0.204000000000000042,51.441804516082910936
0.205000000000000043,50.382194605184963621
0.206000000000000044,49.327530535587037264
0.207000000000000045,48.277024968061098775
0.208000000000000046,47.230131516402565239
0.209000000000000047,46.186533680366082422
0.210000000000000048,45.146129565449072629
0.211000000000000049,44.109013341323688451
0.212000000000000050,43.075454327695851475
0.213000000000000050,42.045874519706700312
0.214000000000000051,41.020825279637371352
0.215000000000000052,40.000963831801833237
0.216000000000000053,38.987030106518361094
0.217000000000000054,37.979824389661160922
0.218000000000000055,36.980186148613071850
0.219000000000000056,35.988974325034732260
0.220000000000000057,35.007049310822239363
0.221000000000000058,34.035256756656195876
0.222000000000000058,33.074413303003851183
0.223000000000000059,32.125294271438576743
0.224000000000000060,31.188623309564654562
0.225000000000000061,30.265063945409281132
0.226000000000000062,29.355212976464876817
0.227000000000000063,28.459595594149924125
0.228000000000000064,27.578662125762452462
0.229000000000000065,26.712786262452926422
0.230000000000000066,25.862264632763338312
0.231000000000000066,25.027317576283916623
0.232000000000000067,24.208090970414463783
0.233000000000000068,23.404658964548204381
0.234000000000000069,22.617027479727877193
0.235000000000000070,21.845138337498017478
0.236000000000000071,21.088873888877841978
0.237000000000000072,20.348062022730374565
0.238000000000000073,19.622481441976727723
0.239000000000000073,18.911867105808905620
0.240000000000000074,18.215915746036170475
0.241000000000000075,17.534291375752598441
0.242000000000000076,16.866630718452164217
0.243000000000000077,16.212548495398770854
0.244000000000000078,15.571642518364679830
0.245000000000000079,14.943498543687718794
0.246000000000000080,14.327694851899911654
0.247000000000000081,13.723806524894120784
0.248000000000000081,13.131409399695417761
0.249000000000000082,12.550083684368935621
0.250000000000000111,11.979417227425429360
0.251000000000000112,11.419008437285189217
0.252000000000000113,10.868468852945476044
0.253000000000000114,10.327425370991743847
0.254000000000000115,9.795522137521228245
0.255000000000000115,9.272422116446730200
0.256000000000000116,8.757808348048424563
0.257000000000000117,8.251384913582182179
0.258000000000000118,7.752877623270718388
0.259000000000000119,7.262034446135865906
0.260000000000000120,6.778625700915005048
0.261000000000000121,6.302444027779134039
0.262000000000000122,5.833304160767715629
0.263000000000000123,5.371042520812892462
0.264000000000000123,4.915516648972137581
0.265000000000000124,4.466604499056680666
0.266000000000000125,4.024203608259021792
0.267000000000000126,3.588230163674359208
0.268000000000000127,3.158617981799483942
0.269000000000000128,2.735317417203365853
0.270000000000000129,2.318294215612621390
0.271000000000000130,1.907528325662126933
0.272000000000000131,1.503012682541713385
0.273000000000000131,1.104751975736749436
0.274000000000000132,0.712761412027358210
0.275000000000000133,0.327065483886939012
0.276000000000000134,-0.052303247584609205
0.277000000000000135,-0.425305347035571490
0.278000000000000136,-0.791895669334997443
0.279000000000000137,-1.152024487841045275
0.280000000000000138,-1.505638581029585810
0.281000000000000139,-1.852682272870033842
0.282000000000000139,-2.193098423109360873
0.283000000000000140,-2.526829364351729446
0.284000000000000141,-2.853817783497325955
0.285000000000000142,-3.174007545730826330
0.286000000000000143,-3.487344459827081522
0.287000000000000144,-3.793776984069687330
0.288000000000000145,-4.093256872559280168
0.289000000000000146,-4.385739762121518837
0.290000000000000147,-4.671185700415197317
0.291000000000000147,-4.949559616186162359
0.292000000000000148,-5.220831732919099188
0.293000000000000149,-5.484977927404564468
0.294000000000000150,-5.741980034969246915
0.295000000000000151,-5.991826103311840512
0.296000000000000152,-6.234510597050305414
0.297000000000000153,-6.470034555218559191
0.298000000000000154,-6.698405704056165533
0.299000000000000155,-6.919638527513614079
0.300000000000000155,-7.133754297951941048
0.301000000000000156,-7.340781069549606741
0.302000000000000157,-7.540753636945278338
0.303000000000000158,-7.733713461642132359
0.304000000000000159,-7.919708568681818051
0.305000000000000160,-8.098793416063900352
0.306000000000000161,-8.271028739342829894
0.307000000000000162,-8.436481373779349369
0.308000000000000163,-8.595224056359167975
0.309000000000000163,-8.747335209919706145
0.310000000000000164,-8.892898711547212898
0.311000000000000165,-9.032003647322101259
0.312000000000000166,-9.164744055402206158
0.313000000000000167,-9.291218659341426545
0.314000000000000168,-9.411530593446974180
0.315000000000000169,-9.525787121882242303
0.316000000000000170,-9.634099353125517240
0.317000000000000171,-9.736581951297040405
0.318000000000000171,-9.833352845770317430
0.319000000000000172,-9.924532940387486235
0.320000000000000173,-10.010245823503513662
0.321000000000000174,-10.090617479991243144
0.322000000000000175,-10.165776006248414376
0.323000000000000176,-10.235851329159119771
0.324000000000000177,-10.300974929876637987
0.325000000000000178,-10.361279573211305660
0.326000000000000179,-10.416899043327727981
0.327000000000000179,-10.467967886378575670
0.328000000000000180,-10.514621160628973229
0.329000000000000181,-10.556994194556045485
0.330000000000000182,-10.595222353340778554
0.331000000000000183,-10.629440814107443458
0.332000000000000184,-10.659784350205338654
0.333000000000000185,-10.686387124772128487
0.334000000000000186,-10.709382493765158273
0.335000000000000187,-10.728902818597838120
0.336000000000000187,-10.745079288472384249
0.337000000000000188,-10.758041752456993123
0.338000000000000189,-10.767918561316605519
0.339000000000000190,-10.774836419069353965
0.340000000000000191,-10.778920244207233381
0.341000000000000192,-10.780293040489175027
0.342000000000000193,-10.779075777186294616
0.343000000000000194,-10.775387278634038779
0.344000000000000195,-10.769344122922806406
0.345000000000000195,-10.761060549538628450
0.346000000000000196,-10.750648375746859386
0.347000000000000197,-10.738216921496183787
0.348000000000000198,-10.723872942606178071
0.349000000000000199,-10.707720571989685965
0.350000000000000200,-10.689861268651158710
0.351000000000000201,-10.670393774193513536
0.352000000000000202,-10.649414076559363451
0.353000000000000203,-10.627015380727028671
0.354000000000000203,-10.603288086077832020
0.355000000000000204,-10.578319770148365109
0.356000000000000205,-10.552195178480147320
0.357000000000000206,-10.524996220278719505
0.358000000000000207,-10.496801969594525161
0.359000000000000208,-10.467688671740035034
0.360000000000000209,-10.437729754659660131
0.361000000000000210,-10.406995844972195542
0.362000000000000210,-10.375554788409676377
0.363000000000000211,-10.343471674380726455
0.364000000000000212,-10.310808864391926676
0.365000000000000213,-10.277626024065938282
0.366000000000000214,-10.243980158501454270
0.367000000000000215,-10.209925650726173529
0.368000000000000216,-10.175514303001012451
0.369000000000000217,-10.140795380740396325
0.370000000000000218,-10.105815658821187597
0.371000000000000218,-10.070619470059629208
0.372000000000000219,-10.035248755643856100
0.373000000000000220,-9.999743117316791441
0.374000000000000221,-9.964139871112227098
0.375000000000000222,-9.928474102454416084
0.376000000000000223,-9.892778722439826922
0.377000000000000224,-9.857084525126918351
0.378000000000000225,-9.821420245668008420
0.379000000000000226,-9.785812619124794054
0.380000000000000226,-9.750286439816919781
0.381000000000000227,-9.714864621060167238
0.382000000000000228,-9.679568255158804035
0.383000000000000229,-9.644416673523412697
0.384000000000000230,-9.609427506792959761
0.385000000000000231,-9.574616744846888849
0.386000000000000232,-9.539998796599707731
0.387000000000000233,-9.505586549477403224
0.388000000000000234,-9.471391428481288344
0.389000000000000234,-9.437423454751520779
0.390000000000000235,-9.403691303548328051
0.391000000000000236,-9.370202361575172390
0.392000000000000237,-9.336962783573643065
0.393000000000000238,-9.303977548125558883
0.394000000000000239,-9.271250512602984273
0.395000000000000240,-9.238784467212102669
0.396000000000000241,-9.206581188081784717
0.397000000000000242,-9.174641489352399759
0.398000000000000242,-9.142965274225140604
0.399000000000000243,-9.111551584936190551
0.400000000000000244,-9.080398651624538076
0.401000000000000245,-9.049503940066031760
0.402000000000000246,-9.018864198250021502
0.403000000000000247,-8.988475501778662391
0.404000000000000248,-8.958333298072309603
0.405000000000000249,-8.928432449367598167
0.406000000000000250,-8.898767274498030844
0.407000000000000250,-8.869331589449597431
0.408000000000000251,-8.840118746686865592
0.409000000000000252,-8.811121673247431119
0.410000000000000253,-8.782332907605086447
0.411000000000000254,-8.753744635304297361
0.412000000000000255,-8.725348723370753845
0.413000000000000256,-8.697136753504736362
0.414000000000000257,-8.669100054065737027
0.415000000000000258,-8.641229730858793090
0.416000000000000258,-8.613516696734185629
0.417000000000000259,-8.585951700014046395
0.418000000000000260,-8.558525351760346567
0.419000000000000261,-8.531228151900325685
0.420000000000000262,-8.504050514226332069
0.421000000000000263,-8.476982790288202452
0.422000000000000264,-8.450015292197074146
0.423000000000000265,-8.423138314360588907
0.424000000000000266,-8.396342154170023164
0.425000000000000266,-8.369617131660557874
0.426000000000000267,-8.342953608166554957
0.427000000000000268,-8.316342003994188659
0.428000000000000269,-8.289772815134091033
0.429000000000000270,-8.263236629037317371
0.430000000000000271,-8.236724139477832551
0.431000000000000272,-8.210226160525397887
0.432000000000000273,-8.183733639652507108
0.433000000000000274,-8.157237669999485519
0.434000000000000274,-8.130729501821660321
0.435000000000000275,-8.104200553142749897
0.436000000000000276,-8.077642419638475957
0.437000000000000277,-8.051046883774361618
0.438000000000000278,-8.024405923221586079
0.439000000000000279,-7.997711718574683104
0.440000000000000280,-7.970956660394574733
0.441000000000000281,-7.944133355600309088
0.442000000000000282,-7.917234633232721919
0.443000000000000282,-7.890253549612713968
0.444000000000000283,-7.863183392916913483
0.445000000000000284,-7.836017687192857295
0.446000000000000285,-7.808750195835687080
0.447000000000000286,-7.781374924548051908
0.448000000000000287,-7.753886123804273112
0.449000000000000288,-7.726278290839852403
0.450000000000000289,-7.698546171186622544
0.451000000000000290,-7.670684759773718220
0.452000000000000290,-7.642689301614041142
0.453000000000000291,-7.614555292095372074
0.454000000000000292,-7.586278476895063072
0.455000000000000293,-7.557854851536591312
0.456000000000000294,-7.529280660606014308
0.457000000000000295,-7.500552396645757014
0.458000000000000296,-7.471666798742819360
0.459000000000000297,-7.442620850828012280
0.460000000000000298,-7.413411779702395066
0.461000000000000298,-7.384037052806581514
0.462000000000000299,-7.354494375748279467
0.463000000000000300,-7.324781689602710699
0.464000000000000301,-7.294897168000505694
0.465000000000000302,-7.264839214016809876
0.466000000000000303,-7.234606456875203762
0.467000000000000304,-7.204197748479478136
0.468000000000000305,-7.173612159785868414
0.469000000000000306,-7.142848977027935753
0.470000000000000306,-7.111907697806015172
0.471000000000000307,-7.080788027052340006
0.472000000000000308,-7.049489872883087926
0.473000000000000309,-7.018013342347712680
0.474000000000000310,-6.986358737085801351
0.475000000000000311,-6.954526548901172944
0.476000000000000312,-6.922517455262761743
0.477000000000000313,-6.890332314741080211
0.478000000000000314,-6.857972162389065929
0.479000000000000314,-6.825438205075622378
0.480000000000000315,-6.792731816779607357
0.481000000000000316,-6.759854533852154290
0.482000000000000317,-6.726808050254274640
0.483000000000000318,-6.693594212776919683
0.484000000000000319,-6.660215016249955156
0.485000000000000320,-6.626672598746475629
0.486000000000000321,-6.592969236788310816
0.487000000000000322,-6.559107340558584909
0.488000000000000322,-6.525089449126532770
0.489000000000000323,-6.490918225689966903
0.490000000000000324,-6.456596452840022593
0.491000000000000325,-6.422127027852903680
0.492000000000000326,-6.387512958012899311
0.493000000000000327,-6.352757355970850561
0.494000000000000328,-6.317863435141804374
0.495000000000000329,-6.282834505145575399
0.496000000000000330,-6.247673967293514430
0.497000000000000330,-6.212385310124767912
0.498000000000000331,-6.176972104994813861
0.499000000000000332,-6.141438001719263795
0.500000000000000333,-6.105786724275315436
0.501000000000000334,-6.070022066563236507
0.502000000000000335,-6.034147888230180001
0.503000000000000336,-5.998168110558255606
0.504000000000000337,-5.962086712418699364
0.505000000000000338,-5.925907726293861089
0.506000000000000338,-5.889635234368503447
0.507000000000000339,-5.853273364691805369
0.508000000000000340,-5.816826287411215546
0.509000000000000341,-5.780298211079444748
0.510000000000000342,-5.743693379035269331
0.511000000000000343,-5.707016065859241927
0.512000000000000344,-5.670270573904804046
0.513000000000000345,-5.633461229905523560
0.514000000000000346,-5.596592381658915372
0.515000000000000346,-5.559668394787131263
0.516000000000000347,-5.522693649574876851
0.517000000000000348,-5.485672537884743960
0.518000000000000349,-5.448609460149893557
0.519000000000000350,-5.411508822444305977
0.520000000000000351,-5.374375033630268916
0.521000000000000352,-5.337212502583167151
0.522000000000000353,-5.300025635493137877
0.523000000000000353,-5.262818833243350980
0.524000000000000354,-5.225596488864637124
0.525000000000000355,-5.188362985065801958
0.526000000000000356,-5.151122691839299605
0.527000000000000357,-5.113879964141695211
0.528000000000000358,-5.076639139648134069
0.529000000000000359,-5.039404536580448735
0.530000000000000360,-5.002180451607863176
0.531000000000000361,-4.964971157819841885
0.532000000000000361,-4.927780902770085625
0.533000000000000362,-4.890613906590955295
0.534000000000000363,-4.853474360177417957
0.535000000000000364,-4.816366423439633948
0.536000000000000365,-4.779294223623261395
0.537000000000000366,-4.742261853696538410
0.538000000000000367,-4.705273370803089605
0.539000000000000368,-4.668332794779646022
0.540000000000000369,-4.631444106737387933
0.541000000000000369,-4.594611247706167134
0.542000000000000370,-4.557838117340295980
0.543000000000000371,-4.521128572685017666
0.544000000000000372,-4.484486427002494224
0.545000000000000373,-4.447915448656251769
0.546000000000000374,-4.411419360052933669
0.547000000000000375,-4.375001836640320718
0.548000000000000376,-4.338666505960480535
0.549000000000000377,-4.302416946756908445
0.550000000000000377,-4.266256688134545172
0.551000000000000378,-4.230189208771554021
0.552000000000000379,-4.194217936181757977
0.553000000000000380,-4.158346246026557225
0.554000000000000381,-4.122577461475216865
0.555000000000000382,-4.086914852612506976
0.556000000000000383,-4.051361635892357427
0.557000000000000384,-4.015920973636688984
0.558000000000000385,-3.980595973578058278
0.559000000000000385,-3.945389688445206211
0.560000000000000386,-3.910305115590305469
0.561000000000000387,-3.875345196656876823
0.562000000000000388,-3.840512817287244474
0.563000000000000389,-3.805810806868529905
0.564000000000000390,-3.771241938316064246
0.565000000000000391,-3.736808927893200405
0.566000000000000392,-3.702514435066467602
0.567000000000000393,-3.668361062395097516
0.568000000000000393,-3.634351355453804278
0.569000000000000394,-3.600487802787902147
0.570000000000000395,-3.566772835899775451
0.571000000000000396,-3.533208829265610973
0.572000000000000397,-3.499798100381600108
0.573000000000000398,-3.466542909838493891
0.574000000000000399,-3.433445461423705325
0.575000000000000400,-3.400507902249926051
0.576000000000000401,-3.367732322909422926
0.577000000000000401,-3.335120757653144974
0.578000000000000402,-3.302675184593630409
0.579000000000000403,-3.270397525930971661
0.580000000000000404,-3.238289648200991966
0.581000000000000405,-3.206353362544675178
0.582000000000000406,-3.174590424998186222
0.583000000000000407,-3.143002536802526947
0.584000000000000408,-3.111591344732184794
0.585000000000000409,-3.080358441441876760
0.586000000000000409,-3.049305365830679015
0.587000000000000410,-3.018433603422839617
0.588000000000000411,-2.987744586764442545
0.589000000000000412,-2.957239695835340410
0.590000000000000413,-2.926920258475516512
0.591000000000000414,-2.896787550825294488
0.592000000000000415,-2.866842797778732521
0.593000000000000416,-2.837087173449434729
0.594000000000000417,-2.807521801648244608
0.595000000000000417,-2.778147756372253863
0.596000000000000418,-2.748966062304252223
0.597000000000000419,-2.719977695322405076
0.598000000000000420,-2.691183583019209014
0.599000000000000421,-2.662584605229434853
0.600000000000000422,-2.634181594566336493
0.601000000000000423,-2.605975336965674849
0.602000000000000424,-2.577966572236995990
0.603000000000000425,-2.550155994621663869
0.604000000000000425,-2.522544253357140942
0.605000000000000426,-2.495131953247034851
0.606000000000000427,-2.467919655236500809
0.607000000000000428,-2.440907876992350012
0.608000000000000429,-2.414097093487751255
0.609000000000000430,-2.387487737590682446
0.610000000000000431,-2.361080200656112460
0.611000000000000432,-2.334874833121211690
