# PLA-CHARMM_PYRIDINE-AC
# h[nm],U(h)[kJ/mol]
0.149999999999999994,118.478780822841414988
0.150999999999999995,117.881409074261412684
0.151999999999999996,116.472779704527212630
0.152999999999999997,114.906374016593730403
0.153999999999999998,113.411392898952044561
0.154999999999999999,112.023605562333997909
0.156000000000000000,110.707258085797775493
0.157000000000000001,109.413920227757103021
0.158000000000000002,108.106506855131513589
0.159000000000000002,106.765378338545360748
0.160000000000000003,105.386271578770148949
0.161000000000000004,103.975396708469560281
0.162000000000000005,102.544384165852562774
0.163000000000000006,101.106237213079253934
0.164000000000000007,99.672611125365094153
0.165000000000000008,98.252326223399123251
0.166000000000000009,96.850851379111148276
0.167000000000000010,95.470457339330550894
0.168000000000000010,94.110768106057832938
0.169000000000000011,92.769494402002678157
0.170000000000000012,91.443194191896182588
0.171000000000000013,90.127960366026755423
0.172000000000000014,88.819980465730054675
0.173000000000000015,87.515946790184642623
0.174000000000000016,86.213318284408003933
0.175000000000000017,84.910450000870042686
0.176000000000000018,83.606613595401327643
0.177000000000000018,82.301935095592028802
0.178000000000000019,80.997275639238921485
0.179000000000000020,79.694078283945273711
0.180000000000000021,78.394200295756078845
0.181000000000000022,77.099746225359467644
0.182000000000000023,75.812913043056099127
0.183000000000000024,74.535854921201632806
0.184000000000000025,73.270572085843213017
0.185000000000000026,72.018825573384987138
0.186000000000000026,70.782077723912678380
0.187000000000000027,69.561456779442650600
0.188000000000000028,68.357742968265341688
0.189000000000000029,67.171372870262914034
0.190000000000000030,66.002458595099867011
0.191000000000000031,64.850818291780754521
0.192000000000000032,63.716014677744695405
0.193000000000000033,62.597398570931339634
0.194000000000000034,61.494154781213126171
0.195000000000000034,60.405348129742868934
0.196000000000000035,59.329967786281351039
0.197000000000000036,58.266968523324557339
0.198000000000000037,57.215307866298800832
0.199000000000000038,56.173978461168658782
0.200000000000000039,55.142035278839799162
0.201000000000000040,54.118617527506827969
0.202000000000000041,53.102965349952150120
0.203000000000000042,52.094431544960073666
0.204000000000000042,51.092488673949162603
0.205000000000000043,50.096731999891758846
0.206000000000000044,49.106878760221427171
0.207000000000000045,48.122764303464570901
0.208000000000000046,47.144335625390439759
0.209000000000000047,46.171642828904111866
0.210000000000000048,45.204829006694694726
0.211000000000000049,44.244119010354062027
0.212000000000000050,43.289807527404796872
0.213000000000000050,42.342246841079074215
0.214000000000000051,41.401834598983825231
0.215000000000000052,40.469001867786033699
0.216000000000000053,39.544201703184867824
0.217000000000000054,38.627898418806708492
0.218000000000000055,37.720557695070112914
0.219000000000000056,36.822637630076876292
0.220000000000000057,35.934580799529427964
0.221000000000000058,35.056807361728111516
0.222000000000000058,34.189709216875634468
0.223000000000000059,33.333645207134395605
0.224000000000000060,32.488937324959017872
0.225000000000000061,31.655867881930777941
0.226000000000000062,30.834677578368250295
0.227000000000000063,30.025564405071577312
0.228000000000000064,29.228683302355666029
0.229000000000000065,28.444146497713099109
0.230000000000000066,27.672024441705751485
0.231000000000000066,26.912347261704049117
0.232000000000000067,26.165106654589418866
0.233000000000000068,25.430258142236876751
0.234000000000000069,24.707723617256057480
0.235000000000000070,23.997394110868334849
0.236000000000000071,23.299132719735482056
0.237000000000000072,22.612777633857312765
0.238000000000000073,21.938145213171441839
0.239000000000000073,21.275033066087569722
0.240000000000000074,20.623223088759711885
0.241000000000000075,19.982484429357501909
0.242000000000000076,19.352576346863926915
0.243000000000000077,18.733250938945808173
0.244000000000000078,18.124255718172513241
0.245000000000000079,17.525336020263278414
0.246000000000000080,16.936237232106378769
0.247000000000000081,16.356706830998234636
0.248000000000000081,15.786496229897656107
0.249000000000000082,15.225362426478330491
0.250000000000000111,14.673069456400913424
0.251000000000000112,14.129389653526283510
0.252000000000000113,13.594104721767163113
0.253000000000000114,13.067006624948339422
0.254000000000000115,12.547898302429477013
0.255000000000000115,12.036594219366110181
0.256000000000000116,11.532920761360577089
0.257000000000000117,11.036716483909396302
0.258000000000000118,10.547832227508502356
0.259000000000000119,10.066131109552660661
0.260000000000000120,9.591488404281410141
0.261000000000000121,9.123791322001737925
0.262000000000000122,8.662938698673329441
0.263000000000000123,8.208840606696195863
0.264000000000000123,7.761417897406195365
0.265000000000000124,7.320601685378631984
0.266000000000000125,6.886332784176389055
0.267000000000000126,6.458561102669827747
0.268000000000000127,6.037245010511903764
0.269000000000000128,5.622350680785244137
0.270000000000000129,5.213851417255279230
0.271000000000000130,4.811726973074124558
0.272000000000000131,4.415962867191414176
0.273000000000000131,4.026549704144665398
0.274000000000000132,3.643482502330461337
0.275000000000000133,3.266760035301317089
0.276000000000000134,2.896384190095921518
0.277000000000000135,2.532359346096240138
0.278000000000000136,2.174691777413543470
0.279000000000000137,1.823389081341460827
0.280000000000000138,1.478459634977309589
0.281000000000000139,1.139912081703462254
0.282000000000000139,0.807754848840820161
0.283000000000000140,0.481995697434411785
0.284000000000000141,0.162641304808314568
0.285000000000000142,-0.150303119768251836
0.286000000000000143,-0.456834186229408634
0.287000000000000144,-0.756950641842515815
0.288000000000000145,-1.050653656702430050
0.289000000000000146,-1.337947077163383014
0.290000000000000147,-1.618837647950513770
0.291000000000000147,-1.893335203837992697
0.292000000000000148,-2.161452831906468752
0.293000000000000149,-2.423207005497150845
0.294000000000000150,-2.678617691067944229
0.295000000000000151,-2.927708429226868692
0.296000000000000152,-3.170506391273232083
0.297000000000000153,-3.407042412617177440
0.298000000000000154,-3.637351004476035321
0.299000000000000155,-3.861470345261202031
0.300000000000000155,-4.079442253074203606
0.301000000000000156,-4.291312140725640489
0.302000000000000157,-4.497128954677661383
0.303000000000000158,-4.696945099289095538
0.304000000000000159,-4.890816347715219337
0.305000000000000160,-5.078801740780272134
0.306000000000000161,-5.260963475102686360
0.307000000000000162,-5.437366781710378127
0.308000000000000163,-5.608079796337164247
0.309000000000000163,-5.773173422542616784
0.310000000000000164,-5.932721188746542751
0.311000000000000165,-6.086799100216193636
0.312000000000000166,-6.235485486990619997
0.313000000000000167,-6.378860848671567219
0.314000000000000168,-6.517007696955370299
0.315000000000000169,-6.650010396725216211
0.316000000000000170,-6.777955006468674881
0.317000000000000171,-6.900929118731132128
0.318000000000000171,-7.019021701262833979
0.319000000000000172,-7.132322939465510103
0.320000000000000173,-7.240924080693535991
0.321000000000000174,-7.344917280915753466
0.322000000000000175,-7.444395454196525819
0.323000000000000176,-7.539452125408713457
0.324000000000000177,-7.630181286547490060
0.325000000000000178,-7.716677256971486543
0.326000000000000179,-7.799034547858151534
0.327000000000000179,-7.877347731121514762
0.328000000000000180,-7.951711313004588888
0.329000000000000181,-8.022219612524596144
0.330000000000000182,-8.088966644916562032
0.331000000000000183,-8.152046010191101644
0.332000000000000184,-8.211550786893431209
0.333000000000000185,-8.267573431124509042
0.334000000000000186,-8.320205680860592423
0.335000000000000187,-8.369538465584680509
0.336000000000000187,-8.415661821222574446
0.337000000000000188,-8.458664810356498975
0.338000000000000189,-8.498635447672270971
0.339000000000000190,-8.535660630579448238
0.340000000000000191,-8.569826074929400406
0.341000000000000192,-8.601216255743404204
0.342000000000000193,-8.629914352850873271
0.343000000000000194,-8.656002201327614998
0.344000000000000195,-8.679560246614567376
0.345000000000000195,-8.700667504189965484
0.346000000000000196,-8.719401523660362585
0.347000000000000197,-8.735838357130699450
0.348000000000000198,-8.750052531708366388
0.349000000000000199,-8.762117025992340658
0.350000000000000200,-8.772103250395526075
0.351000000000000201,-8.780081031145968495
0.352000000000000202,-8.786118597811077180
0.353000000000000203,-8.790282574188189813
0.354000000000000203,-8.792637972404552471
0.355000000000000204,-8.793248190069908432
0.356000000000000205,-8.792175010326008788
0.357000000000000206,-8.789478604638659931
0.358000000000000207,-8.785217538179310282
0.359000000000000208,-8.779448777645892932
0.360000000000000209,-8.772227701374717412
0.361000000000000210,-8.763608111598163219
0.362000000000000210,-8.753642248706084317
0.363000000000000211,-8.742380807372001073
0.364000000000000212,-8.729872954408916641
0.365000000000000213,-8.716166348223076454
0.366000000000000214,-8.701307159738110641
0.367000000000000215,-8.685340094665731314
0.368000000000000216,-8.668308417003606436
0.369000000000000217,-8.650253973644801420
0.370000000000000218,-8.631217219987853184
0.371000000000000218,-8.611237246440374804
0.372000000000000219,-8.590351805713822841
0.373000000000000220,-8.568597340811058061
0.374000000000000221,-8.546009013612756888
0.375000000000000222,-8.522620733972903651
0.376000000000000223,-8.498465189238006090
0.377000000000000224,-8.473573874108717874
0.378000000000000225,-8.447977120766640979
0.379000000000000226,-8.421704129193290811
0.380000000000000226,-8.394782997612153963
0.381000000000000227,-8.367240752988521990
0.382000000000000228,-8.339103381525863057
0.383000000000000229,-8.310395859100999871
0.384000000000000230,-8.281142181584026929
0.385000000000000231,-8.251365394992664193
0.386000000000000232,-8.221087625433721513
0.387000000000000233,-8.190330108788135277
0.388000000000000234,-8.159113220098875630
0.389000000000000234,-8.127456502624383461
0.390000000000000235,-8.095378696522999462
0.391000000000000236,-8.062897767136840699
0.392000000000000237,-8.030030932846239367
0.393000000000000238,-7.996794692468677468
0.394000000000000239,-7.963204852178408899
0.395000000000000240,-7.929276551925722671
0.396000000000000241,-7.895024291336899758
0.397000000000000242,-7.860461955078120511
0.398000000000000242,-7.825602837668919065
0.399000000000000243,-7.790459667732447357
0.400000000000000244,-7.755044631672012301
0.401000000000000245,-7.719369396765024760
0.402000000000000246,-7.683445133667136773
0.403000000000000247,-7.647282538321112710
0.404000000000000248,-7.610891853266387841
0.405000000000000249,-7.574282888346746567
0.406000000000000250,-7.537465040814839590
0.407000000000000250,-7.500447314833616375
0.408000000000000251,-7.463238340375815127
0.409000000000000252,-7.425846391523839074
0.410000000000000253,-7.388279404173337284
0.411000000000000254,-7.350544993144720429
0.412000000000000255,-7.312650468707796669
0.413000000000000256,-7.274602852525513086
0.414000000000000257,-7.236408893023382305
0.415000000000000258,-7.198075080192182895
0.416000000000000258,-7.159607659831747739
0.417000000000000259,-7.121012647244579163
0.418000000000000260,-7.082295840388310282
0.419000000000000261,-7.043462832496585335
0.420000000000000262,-7.004519024178364361
0.421000000000000263,-6.965469635005979043
0.422000000000000264,-6.926319714602575672
0.423000000000000265,-6.887074153239903573
0.424000000000000266,-6.847737691957719974
0.425000000000000266,-6.808314932216011250
0.426000000000000267,-6.768810345091788250
0.427000000000000268,-6.729228280031994025
0.428000000000000269,-6.689572973174358950
0.429000000000000270,-6.649848555248138560
0.430000000000000271,-6.610059059066460740
0.431000000000000272,-6.570208426622414777
0.432000000000000273,-6.530300515800608885
0.433000000000000274,-6.490339106716239925
0.434000000000000274,-6.450327907693380602
0.435000000000000275,-6.410270560894323566
0.436000000000000276,-6.370170647611693937
0.437000000000000277,-6.330031693234768220
0.438000000000000278,-6.289857171901608091
0.439000000000000279,-6.249650510848256069
0.440000000000000280,-6.209415094466137042
0.441000000000000281,-6.169154268078733239
0.442000000000000282,-6.128871341448396848
0.443000000000000282,-6.088569592023853616
0.444000000000000283,-6.048252267939030702
0.445000000000000284,-6.007922590773370430
0.446000000000000285,-5.967583758083724987
0.447000000000000286,-5.927238945717837382
0.448000000000000287,-5.886891309918840243
0.449000000000000288,-5.846543989230467808
0.450000000000000289,-5.806200106211983680
0.451000000000000290,-5.765862768971952157
0.452000000000000290,-5.725535072529642555
0.453000000000000291,-5.685220100012481126
0.454000000000000292,-5.644920923698022008
0.455000000000000293,-5.604640605908395301
0.456000000000000294,-5.564382199765172565
0.457000000000000295,-5.524148749812258785
0.458000000000000296,-5.483943292514149803
0.459000000000000297,-5.443768856636838294
0.460000000000000298,-5.403628463518168168
0.461000000000000298,-5.363525127234497702
0.462000000000000299,-5.323461854670075155
0.463000000000000300,-5.283441645495404515
0.464000000000000301,-5.243467492060712942
0.465000000000000302,-5.203542379210335689
0.466000000000000303,-5.163669284023603367
0.467000000000000304,-5.123851175487726728
0.468000000000000305,-5.084091014107857021
0.469000000000000306,-5.044391751459300188
0.470000000000000306,-5.004756329686833816
0.471000000000000307,-4.965187680955535754
0.472000000000000308,-4.925688726857769595
0.473000000000000309,-4.886262377780443700
0.474000000000000310,-4.846911532236642728
0.475000000000000311,-4.807639076165483694
0.476000000000000312,-4.768447882204039701
0.477000000000000313,-4.729340808934660245
0.478000000000000314,-4.690320700111215046
0.479000000000000314,-4.651390383867495260
0.480000000000000315,-4.612552671910664870
0.481000000000000316,-4.573810358702889545
0.482000000000000317,-4.535166220633696454
0.483000000000000318,-4.496623015185822858
0.484000000000000319,-4.458183480096940876
0.485000000000000320,-4.419850332519660974
0.486000000000000321,-4.381626268181959105
0.487000000000000322,-4.343513960550182240
0.488000000000000322,-4.305516059996449485
0.489000000000000323,-4.267635192972512925
0.490000000000000324,-4.229873961191566778
0.491000000000000325,-4.192234940819788314
0.492000000000000326,-4.154720681678978345
0.493000000000000327,-4.117333706461846710
0.494000000000000328,-4.080076509961125808
0.495000000000000329,-4.042951558313780502
0.496000000000000330,-4.005961288261393527
0.497000000000000330,-3.969108106427837068
0.498000000000000331,-3.932394388614971259
0.499000000000000332,-3.895822479117529546
0.500000000000000333,-3.859394690057702526
0.501000000000000334,-3.823113300740224929
0.502000000000000335,-3.786980557028657213
0.503000000000000336,-3.750998670743344032
0.504000000000000337,-3.715169819081578506
0.505000000000000338,-3.679496144060411034
0.506000000000000338,-3.643979751982487691
0.507000000000000339,-3.608622712925213527
0.508000000000000340,-3.573427060253496990
0.509000000000000341,-3.538394790156382808
0.510000000000000342,-3.503527861207587968
0.511000000000000343,-3.468828193950178385
0.512000000000000344,-3.434297670505394251
0.513000000000000345,-3.399938134205684914
0.514000000000000346,-3.365751389251956827
0.515000000000000346,-3.331739200394930656
0.516000000000000347,-3.297903292640566697
0.517000000000000348,-3.264245350979493310
0.518000000000000349,-3.230767020140155488
0.519000000000000350,-3.197469904365662696
0.520000000000000351,-3.164355567213992693
0.521000000000000352,-3.131425531381462513
0.522000000000000353,-3.098681278549089146
0.523000000000000353,-3.066124249251593437
0.524000000000000354,-3.033755842768858901
0.525000000000000355,-3.001577417039341888
0.526000000000000356,-2.969590288595245209
0.527000000000000357,-2.937795732519088432
0.528000000000000358,-2.906194982421176132
0.529000000000000359,-2.874789230437824195
0.530000000000000360,-2.843579627249680719
0.531000000000000361,-2.812567282119967871
0.532000000000000361,-2.781753262952074035
0.533000000000000362,-2.751138596366172528
0.534000000000000363,-2.720724267794364160
0.535000000000000364,-2.690511221593957725
0.536000000000000365,-2.660500361178416373
0.537000000000000366,-2.630692549165536853
0.538000000000000367,-2.601088607542355380
0.539000000000000368,-2.571689317846451051
0.540000000000000369,-2.542495421362994001
0.541000000000000369,-2.513507619337278065
0.542000000000000370,-2.484726573202116207
0.543000000000000371,-2.456152904819711935
0.544000000000000372,-2.427787196737540842
0.545000000000000373,-2.399629992457763539
0.546000000000000374,-2.371681796719679713
0.547000000000000375,-2.343943075794805875
0.548000000000000376,-2.316414257794128684
0.549000000000000377,-2.289095732987018295
0.550000000000000377,-2.261987854131382925
0.551000000000000378,-2.235090936814626339
0.552000000000000379,-2.208405259804946841
0.553000000000000380,-2.181931065412545667
0.554000000000000381,-2.155668559860259403
0.555000000000000382,-2.129617913663308215
0.556000000000000383,-2.103779262017546170
0.557000000000000384,-2.078152705196004479
0.558000000000000385,-2.052738308953102830
0.559000000000000385,-2.027536104936300099
0.560000000000000386,-2.002546091104661308
0.561000000000000387,-1.977768232153993111
0.562000000000000388,-1.953202459948135683
0.563000000000000389,-1.928848673956066850
0.564000000000000390,-1.904706741694385475
0.565000000000000391,-1.880776499174845240
0.566000000000000392,-1.857057751356551822
0.567000000000000393,-1.833550272602498810
0.568000000000000393,-1.810253807140053128
0.569000000000000394,-1.787168069525057135
0.570000000000000395,-1.764292745109268923
0.571000000000000396,-1.741627490510704535
0.572000000000000397,-1.719171934086699549
0.573000000000000398,-1.696925676409232198
0.574000000000000399,-1.674888290742351016
0.575000000000000400,-1.653059323521267832
0.576000000000000401,-1.631438294832929348
0.577000000000000401,-1.610024698897777551
0.578000000000000402,-1.588818004552345453
0.579000000000000403,-1.567817655732487214
0.580000000000000404,-1.547023071957016160
0.581000000000000405,-1.526433648811384103
0.582000000000000406,-1.506048758431286050
0.583000000000000407,-1.485867749985832598
0.584000000000000408,-1.465889950160176536
0.585000000000000409,-1.446114663637271480
0.586000000000000409,-1.426541173578594890
0.587000000000000410,-1.407168742103639403
0.588000000000000411,-1.387996610767910255
0.589000000000000412,-1.369024001039319760
0.590000000000000413,-1.350250114772689525
0.591000000000000414,-1.331674134682263588
0.592000000000000415,-1.313295224812032647
0.593000000000000416,-1.295112531003649536
0.594000000000000417,-1.277125181361832951
0.595000000000000417,-1.259332286717137483
0.596000000000000418,-1.241732941085770481
0.597000000000000419,-1.224326222126557173
0.598000000000000420,-1.207111191594682165
0.599000000000000421,-1.190086895792244137
0.600000000000000422,-1.173252366015393733
0.601000000000000423,-1.156606618997995994
0.602000000000000424,-1.140148657351659267
0.603000000000000425,-1.123877470002050405
0.604000000000000425,-1.107792032621373046
0.605000000000000426,-1.091891308056905041
0.606000000000000427,-1.076174246755568609
0.607000000000000428,-1.060639787184262106
0.608000000000000429,-1.045286856246172347
0.609000000000000430,-1.030114369692614940
0.610000000000000431,-1.015121232530687312
0.611000000000000432,-1.000306339426401347
0.612000000000000433,-0.985668575103337608
0.613000000000000433,-0.971206814736790269
