# PLA-CHARMM_PROPAN2OL-AC
# h[nm],U(h)[kJ/mol]
0.149999999999999994,129.231648123735368472
0.150999999999999995,128.395503307302334406
0.151999999999999996,127.017829450355364429
0.152999999999999997,125.522929047894692189
0.153999999999999998,124.059022774989756499
0.154999999999999999,122.650201710768968155
0.156000000000000000,121.275691267134376972
0.157000000000000001,119.907442676691601946
0.158000000000000002,118.524999524325579614
0.159000000000000002,117.118879574365223561
0.160000000000000003,115.688880307516271273
0.161000000000000004,114.240757434349845312
0.162000000000000005,112.782968164472507056
0.163000000000000006,111.324170547937043807
0.164000000000000007,109.871635614025038308
0.165000000000000008,108.430472380486776274
0.166000000000000009,107.003467933601200457
0.167000000000000010,105.591331833516704819
0.168000000000000010,104.193161672872975032
0.169000000000000011,102.806989117622947560
0.170000000000000012,101.430309361604457763
0.171000000000000013,100.060534956007288088
0.172000000000000014,98.695344932691867257
0.173000000000000015,97.332921823854334775
0.174000000000000016,95.972083526666679631
0.175000000000000017,94.612325359709842587
0.176000000000000018,93.253791563943977394
0.177000000000000018,91.897196237591799672
0.178000000000000019,90.543712366273354064
0.179000000000000020,89.194845082991605523
0.180000000000000021,87.852302209250467513
0.181000000000000022,86.517871938066505777
0.182000000000000023,85.193314515062724013
0.183000000000000024,83.880272127752050437
0.184000000000000025,82.580199009204193317
0.185000000000000026,81.294312021883200714
0.186000000000000026,80.023560690758046121
0.187000000000000027,78.768614757172443319
0.188000000000000028,77.529866768884872386
0.189000000000000029,76.307446945235597013
0.190000000000000030,75.101247498941248182
0.191000000000000031,73.910953701770125690
0.192000000000000032,72.736079201352922041
0.193000000000000033,71.576003389307700786
0.194000000000000034,70.430008953103737213
0.195000000000000034,69.297318089323596269
0.196000000000000035,68.177126194431281192
0.197000000000000036,67.068632166707885744
0.198000000000000037,65.971064740328898779
0.199000000000000038,64.883704524146622816
0.200000000000000039,63.805901631170613086
0.201000000000000040,62.737088959880189520
0.202000000000000041,61.676791326918632308
0.203000000000000042,60.624630755123973813
0.204000000000000042,59.580328294690971802
0.205000000000000043,58.543702802374717464
0.206000000000000044,57.514667127995664941
0.207000000000000045,56.493222162994548796
0.208000000000000046,55.479449196105647957
0.209000000000000047,54.473500999765612107
0.210000000000000048,53.475592040706239061
0.211000000000000049,52.485988171958048554
0.212000000000000050,51.504996123507773120
0.213000000000000050,50.532953067023129279
0.214000000000000051,49.570216487944875894
0.215000000000000052,48.617154557096334599
0.216000000000000053,47.674137154728541077
0.217000000000000054,46.741527663307792295
0.218000000000000055,45.819675611845838148
0.219000000000000056,44.908910224472407435
0.220000000000000057,44.009534899397735330
0.221000000000000058,43.121822621438575140
0.222000000000000058,42.246012291800710159
0.223000000000000059,41.382305942682478417
0.224000000000000060,40.530866791274824834
0.225000000000000061,39.691818077644150264
0.226000000000000062,38.865242623525567467
0.227000000000000063,38.051183043946544160
0.228000000000000064,37.249642540563350224
0.229000000000000065,36.460586204345176498
0.230000000000000066,35.683942755519964862
0.231000000000000066,34.919606650246585389
0.232000000000000067,34.167440486068564098
0.233000000000000068,33.427277641619063786
0.234000000000000069,32.698925090091350398
0.235000000000000070,31.982166330492269424
0.236000000000000071,31.276764385504986166
0.237000000000000072,30.582464819768727438
0.238000000000000073,29.898998737426516925
0.239000000000000073,29.226085722801723676
0.240000000000000074,28.563436692957889562
0.241000000000000075,27.910756635617861576
0.242000000000000076,27.267747210410124836
0.243000000000000077,26.634109195639059209
0.244000000000000078,26.009544766713201369
0.245000000000000079,25.393759595992637657
0.246000000000000080,24.786464767125089281
0.247000000000000081,24.187378499924445663
0.248000000000000081,23.596227684510342471
0.249000000000000082,23.012749225777991313
0.250000000000000111,22.436691201315891675
0.251000000000000112,21.867813837647972264
0.252000000000000113,21.305890311161931550
0.253000000000000114,20.750707381317518241
0.254000000000000115,20.202065864719852328
0.255000000000000115,19.659780959419538959
0.256000000000000116,19.123682429377133474
0.257000000000000117,18.593614659426929592
0.258000000000000118,18.069436591312058482
0.259000000000000119,17.551021551456738479
0.260000000000000120,17.038256981110837529
0.261000000000000121,16.531044079363237387
0.262000000000000122,16.029297369288162400
0.263000000000000123,15.532944197178849777
0.264000000000000123,15.041924174447535378
0.265000000000000124,14.556188571343309235
0.266000000000000125,14.075699671170449179
0.267000000000000126,13.600430093189661562
0.268000000000000127,13.130362091862423313
0.269000000000000128,12.665486839562985821
0.270000000000000129,12.205803699339702106
0.271000000000000130,11.751319493763821455
0.272000000000000131,11.302047775366490967
0.273000000000000131,10.858008103635437891
0.274000000000000132,10.419225333028553138
0.275000000000000133,9.985728915963068886
0.276000000000000134,9.557552224260502882
0.277000000000000135,9.134731892071252801
0.278000000000000136,8.717307182868102799
0.279000000000000137,8.305319382689209107
0.280000000000000138,7.898811221427267881
0.281000000000000139,7.497826323602401644
0.282000000000000139,7.102408689724524216
0.283000000000000140,6.712602209043188495
0.284000000000000141,6.328450204201772955
0.285000000000000142,5.949995008055578793
0.286000000000000143,5.577277572680592321
0.287000000000000144,5.210337110390245385
0.288000000000000145,4.849210766389541405
0.289000000000000146,4.493933322530809349
0.290000000000000147,4.144536931488416620
0.291000000000000147,3.801050880544007526
0.292000000000000148,3.463501384064154198
0.293000000000000149,3.131911403661212567
0.294000000000000150,2.806300494951119440
0.295000000000000151,2.486684679760556627
0.296000000000000152,2.173076342587142218
0.297000000000000153,1.865484150080639836
0.298000000000000154,1.563912992287761927
0.299000000000000155,1.268363944388935183
0.300000000000000155,0.978834247649622569
0.301000000000000156,0.695317308312039750
0.302000000000000157,0.417802713162693962
0.303000000000000158,0.146276260528692165
0.304000000000000159,-0.119279994522266453
0.305000000000000160,-0.378887681975420776
0.306000000000000161,-0.632572046821524459
0.307000000000000162,-0.880361868298449091
0.308000000000000163,-1.122289369513115975
0.309000000000000163,-1.358390118494055443
0.310000000000000164,-1.588702921681817370
0.311000000000000165,-1.813269710819735980
0.312000000000000166,-2.032135424161922721
0.313000000000000167,-2.245347882868840905
0.314000000000000168,-2.452957663413944722
0.315000000000000169,-2.655017966777999838
0.316000000000000170,-2.851584485161124505
0.317000000000000171,-3.042715266896036219
0.318000000000000171,-3.228470580200677453
0.319000000000000172,-3.408912776363746566
0.320000000000000173,-3.584106152912654775
0.321000000000000174,-3.754116817271177631
0.322000000000000175,-3.919012551372812680
0.323000000000000176,-4.078862677655793689
0.324000000000000177,-4.233737926827649822
0.325000000000000178,-4.383710307749810298
0.326000000000000179,-4.528852979758075215
0.327000000000000179,-4.669240127700424736
0.328000000000000180,-4.804946839941924175
0.329000000000000181,-4.936048989555913202
0.330000000000000182,-5.062623118891670160
0.331000000000000183,-5.184746327681758693
0.332000000000000184,-5.302496164826360214
0.333000000000000185,-5.415950523967948627
0.334000000000000186,-5.525187542947178621
0.335000000000000187,-5.630285507209664253
0.336000000000000187,-5.731322757214094565
0.337000000000000188,-5.828377599873375559
0.338000000000000189,-5.921528224044528166
0.339000000000000190,-6.010852620067010932
0.340000000000000191,-6.096428503335157068
0.341000000000000192,-6.178333241877583148
0.342000000000000193,-6.256643787904506482
0.343000000000000194,-6.331436613273464076
0.344000000000000195,-6.402787648813818677
0.345000000000000195,-6.470772227442691538
0.346000000000000196,-6.535465030996436830
0.347000000000000197,-6.596940040695673524
0.348000000000000198,-6.655270491155715895
0.349000000000000199,-6.710528827849188360
0.350000000000000200,-6.762786667923457173
0.351000000000000201,-6.812114764271558265
0.352000000000000202,-6.858582972752635953
0.353000000000000203,-6.902260222455337768
0.354000000000000203,-6.943214488895995018
0.355000000000000204,-6.981512770041788940
0.356000000000000205,-7.017221065048748763
0.357000000000000206,-7.050404355603861362
0.358000000000000207,-7.081126589760403434
0.359000000000000208,-7.109450668156493514
0.360000000000000209,-7.135438432507301698
0.361000000000000210,-7.159150656262440293
0.362000000000000210,-7.180647037321586268
0.363000000000000211,-7.199986192702729326
0.364000000000000212,-7.217225655059550604
0.365000000000000213,-7.232421870946119213
0.366000000000000214,-7.245630200729559434
0.367000000000000215,-7.256904920053431240
0.368000000000000216,-7.266299222757298892
0.369000000000000217,-7.273865225160184522
0.370000000000000218,-7.279653971618654573
0.371000000000000218,-7.283715441272578417
0.372000000000000219,-7.286098555894811923
0.373000000000000220,-7.286851188763643350
0.374000000000000221,-7.286020174479743261
0.375000000000000222,-7.283651319652166833
0.376000000000000223,-7.279789414381184542
0.377000000000000224,-7.274478244468120636
0.378000000000000225,-7.267760604285582460
0.379000000000000226,-7.259678310244194854
0.380000000000000226,-7.250272214794904357
0.381000000000000227,-7.239582220908394206
0.382000000000000228,-7.227647296976374314
0.383000000000000229,-7.214505492081734417
0.384000000000000230,-7.200193951587482211
0.385000000000000231,-7.184748932996988913
0.386000000000000232,-7.168205822040354391
0.387000000000000233,-7.150599148944541739
0.388000000000000234,-7.131962604846863840
0.389000000000000234,-7.112329058314325714
0.390000000000000235,-7.091730571933013039
0.391000000000000236,-7.070198418934356077
0.392000000000000237,-7.047763099826926059
0.393000000000000238,-7.024454359004747239
0.394000000000000239,-7.000301201304753640
0.395000000000000240,-6.975331908488323407
0.396000000000000241,-6.949574055623311430
0.397000000000000242,-6.923054527344918441
0.398000000000000242,-6.895799533975550233
0.399000000000000243,-6.867834627485100540
0.400000000000000244,-6.839184717275040626
0.401000000000000245,-6.809874085770905694
0.402000000000000246,-6.779926403809236390
0.403000000000000247,-6.749364745806485821
0.404000000000000248,-6.718211604698579364
0.405000000000000249,-6.686488906641081087
0.406000000000000250,-6.654218025461001496
0.407000000000000250,-6.621419796852563877
0.408000000000000251,-6.588114532310005877
0.409000000000000252,-6.554322032791764840
0.410000000000000253,-6.520061602111087318
0.411000000000000254,-6.485352060049121015
0.412000000000000255,-6.450211755187256202
0.413000000000000256,-6.414658577456417099
0.414000000000000257,-6.378709970401452267
0.415000000000000258,-6.342382943159789122
0.416000000000000258,-6.305694082153822322
0.417000000000000259,-6.268659562497330917
0.418000000000000260,-6.231295159116615245
0.419000000000000261,-6.193616257587645002
0.420000000000000262,-6.155637864690879368
0.421000000000000263,-6.117374618685996523
0.422000000000000264,-6.078840799308970588
0.423000000000000265,-6.040050337494431432
0.424000000000000266,-6.001016824826669094
0.425000000000000266,-5.961753522722567311
0.426000000000000267,-5.922273371350546434
0.427000000000000268,-5.882588998289364213
0.428000000000000269,-5.842712726931153178
0.429000000000000270,-5.802656584633184345
0.430000000000000271,-5.762432310622862097
0.431000000000000272,-5.722051363660931145
0.432000000000000273,-5.681524929467657081
0.433000000000000274,-5.640863927917112441
0.434000000000000274,-5.600079020004635311
0.435000000000000275,-5.559180614592693637
0.436000000000000276,-5.518178874940426581
0.437000000000000277,-5.477083725022093397
0.438000000000000278,-5.435904855639845934
0.439000000000000279,-5.394651730336167184
0.440000000000000280,-5.353333591111260503
0.441000000000000281,-5.311959463950800320
0.442000000000000282,-5.270538164169407125
0.443000000000000282,-5.229078301575031062
0.444000000000000283,-5.187588285459669990
0.445000000000000284,-5.146076329421548579
0.446000000000000285,-5.104550456023888572
0.447000000000000286,-5.063018501295590390
0.448000000000000287,-5.021488119078604484
0.449000000000000288,-4.979966785227246007
0.450000000000000289,-4.938461801664126405
0.451000000000000290,-4.896980300297676614
0.452000000000000290,-4.855529246805994958
0.453000000000000291,-4.814115444291581447
0.454000000000000292,-4.772745536811653366
0.455000000000000293,-4.731426012788388036
0.456000000000000294,-4.690163208303562037
0.457000000000000295,-4.648963310281854611
0.458000000000000296,-4.607832359566905289
0.459000000000000297,-4.566776253894355264
0.460000000000000298,-4.525800750765662350
0.461000000000000298,-4.484911470226769836
0.462000000000000299,-4.444113897555216575
0.463000000000000300,-4.403413385859442641
0.464000000000000301,-4.362815158593845055
0.465000000000000302,-4.322324311993083867
0.466000000000000303,-4.281945817428844947
0.467000000000000304,-4.241684523692517139
0.468000000000000305,-4.201545159206789393
0.469000000000000306,-4.161532334169239178
0.470000000000000306,-4.121650542630986180
0.471000000000000307,-4.081904164513042943
0.472000000000000308,-4.042297467563353841
0.473000000000000309,-4.002834609257005738
0.474000000000000310,-3.963519638642298393
0.475000000000000311,-3.924356498135007421
0.476000000000000312,-3.885349025263450606
0.477000000000000313,-3.846500954366367075
0.478000000000000314,-3.807815918246032716
0.479000000000000314,-3.769297449778658660
0.480000000000000315,-3.730948983484057457
0.481000000000000316,-3.692773857056642406
0.482000000000000317,-3.654775312859506187
0.483000000000000318,-3.616956499383482626
0.484000000000000319,-3.579320472672834708
0.485000000000000320,-3.541870197719269697
0.486000000000000321,-3.504608549825802832
0.487000000000000322,-3.467538315942038984
0.488000000000000322,-3.430662195972168149
0.489000000000000323,-3.393982804057265046
0.490000000000000324,-3.357502669832977737
0.491000000000000325,-3.321224239663984612
0.492000000000000326,-3.285149877856302858
0.493000000000000327,-3.249281867848681227
0.494000000000000328,-3.213622413384042087
0.495000000000000329,-3.178173639662049688
0.496000000000000330,-3.142937594473693252
0.497000000000000330,-3.107916249318921409
0.498000000000000331,-3.073111500507970550
0.499000000000000332,-3.038525170247466711
0.500000000000000333,-3.004159007711863616
0.501000000000000334,-2.970014690100963861
0.502000000000000335,-2.936093823684311044
0.503000000000000336,-2.902397944832989740
0.504000000000000337,-2.868928521039464830
0.505000000000000338,-2.835686951926021493
0.506000000000000338,-2.802674570242352114
0.507000000000000339,-2.769892642852742615
0.508000000000000340,-2.737342371713314737
0.509000000000000341,-2.705024894839868743
0.510000000000000342,-2.672941287266516142
0.511000000000000343,-2.641092561995680654
0.512000000000000344,-2.609479670939657048
0.513000000000000345,-2.578103505854117738
0.514000000000000346,-2.546964899263888249
0.515000000000000346,-2.516064625381142061
0.516000000000000347,-2.485403401016378133
0.517000000000000348,-2.454981886482374698
0.518000000000000349,-2.424800686491245028
0.519000000000000350,-2.394860351044923341
0.520000000000000351,-2.365161376319080855
0.521000000000000352,-2.335704205540795719
0.522000000000000353,-2.306489229859957746
0.523000000000000353,-2.277516789214586002
0.524000000000000354,-2.248787173190235134
0.525000000000000355,-2.220300621873428248
0.526000000000000356,-2.192057326699313080
0.527000000000000357,-2.164057431293613831
0.528000000000000358,-2.136301032308772996
0.529000000000000359,-2.108788180254594913
0.530000000000000360,-2.081518880323138809
0.531000000000000361,-2.054493093208116683
0.532000000000000361,-2.027710735918653917
0.533000000000000362,-2.001171682587545853
0.534000000000000363,-1.974875765273896633
0.535000000000000364,-1.948822774760234910
0.536000000000000365,-1.923012461344028257
0.537000000000000366,-1.897444535623633133
0.538000000000000367,-1.872118669278575620
0.539000000000000368,-1.847034495844287916
0.540000000000000369,-1.822191611481066342
0.541000000000000369,-1.797589575737442491
0.542000000000000370,-1.773227912307714149
0.543000000000000371,-1.749106109783773011
0.544000000000000372,-1.725223622401080181
0.545000000000000373,-1.701579870778808345
0.546000000000000374,-1.678174242654038029
0.547000000000000375,-1.655006093610026152
0.548000000000000376,-1.632074747798482717
0.549000000000000377,-1.609379498655783225
0.550000000000000377,-1.586919609613070881
0.551000000000000378,-1.564694314800227026
0.552000000000000379,-1.542702819743640985
0.553000000000000380,-1.520944302057721131
0.554000000000000381,-1.499417912130094788
0.555000000000000382,-1.478122773800506717
0.556000000000000383,-1.457057985033243241
0.557000000000000384,-1.436222618583199440
0.558000000000000385,-1.415615722655366948
0.559000000000000385,-1.395236321557850268
0.560000000000000386,-1.375083416348263476
0.561000000000000387,-1.355155985473520674
0.562000000000000388,-1.335452985402930448
0.563000000000000389,-1.315973351254622115
0.564000000000000390,-1.296715997415191612
0.565000000000000391,-1.277679818152578806
0.566000000000000392,-1.258863688222116028
0.567000000000000393,-1.240266463465755420
0.568000000000000393,-1.221886981404371575
0.569000000000000394,-1.203724061823175706
0.570000000000000395,-1.185776507350203790
0.571000000000000396,-1.168043104027800094
0.572000000000000397,-1.150522621877177798
0.573000000000000398,-1.133213815455896611
0.574000000000000399,-1.116115424408402612
0.575000000000000400,-1.099226174009443113
0.576000000000000401,-1.082544775700468254
0.577000000000000401,-1.066069927618996216
0.578000000000000402,-1.049800315120838157
0.579000000000000403,-1.033734611295268335
0.580000000000000404,-1.017871477473138109
0.581000000000000405,-1.002209563727841202
0.582000000000000406,-0.986747509369236608
0.583000000000000407,-0.971483943430450303
0.584000000000000408,-0.956417485147607160
0.585000000000000409,-0.941546744432480431
0.586000000000000409,-0.926870322338058328
0.587000000000000410,-0.912386811517074348
0.588000000000000411,-0.898094796673449380
0.589000000000000412,-0.883992855006747069
0.590000000000000413,-0.870079556649564601
0.591000000000000414,-0.856353465097949185
0.592000000000000415,-0.842813137634837006
0.593000000000000416,-0.829457125746517421
0.594000000000000417,-0.816283975532155814
0.595000000000000417,-0.803292228106471939
0.596000000000000418,-0.790480419995428618
0.597000000000000419,-0.777847083525186500
0.598000000000000420,-0.765390747204146571
0.599000000000000421,-0.753109936098260380
0.600000000000000422,-0.741003172199567017
0.601000000000000423,-0.729068974788011803
0.602000000000000424,-0.717305860786597749
0.603000000000000425,-0.705712345109890227
0.604000000000000425,-0.694286941005917035
0.605000000000000426,-0.683028160391506822
0.606000000000000427,-0.671934514181165232
0.607000000000000428,-0.661004512609356221
0.608000000000000429,-0.650236665546541359
0.609000000000000430,-0.639629482808642624
0.610000000000000431,-0.629181474460345225
0.611000000000000432,-0.618891151112020754
0.612000000000000433,-0.608757024210437203
0.613000000000000433,-0.598777606323322553
