# Fe110_CYSSCA-JS
# h[nm],U(h)[kJ/mol]
0.149999999999999994,77.183128027339506616
0.150999999999999995,74.758640021008005760
0.151999999999999996,72.108113562516948036
0.152999999999999997,69.365116863283532211
0.153999999999999998,66.641197270220501991
0.154999999999999999,64.004129023653504760
0.156000000000000000,61.481216435252235897
0.157000000000000001,59.071374025436590216
0.158000000000000002,56.757977995225886048
0.159000000000000002,54.519141074543007619
0.160000000000000003,52.334527703605829174
0.161000000000000004,50.189002927436987989
0.162000000000000005,48.073860514882866823
0.163000000000000006,45.986447331412236394
0.164000000000000007,43.928894651706258401
0.165000000000000008,41.906497212401504271
0.166000000000000009,39.926107487613045066
0.167000000000000010,37.994763827295159331
0.168000000000000010,36.118656339835595759
0.169000000000000011,34.302453627480026910
0.170000000000000012,32.548962044208600730
0.171000000000000013,30.859060797353247807
0.172000000000000014,29.231844719301960822
0.173000000000000015,27.664906431257822561
0.174000000000000016,26.154696503809237385
0.175000000000000017,24.696910763826146251
0.176000000000000018,23.286865743024844022
0.177000000000000018,21.919834846493159830
0.178000000000000019,20.591328196406482931
0.179000000000000020,19.297307792998090292
0.180000000000000021,18.034336469324120600
0.181000000000000022,16.799664148042236178
0.182000000000000023,15.591258314527042472
0.183000000000000024,14.407787644412820782
0.184000000000000025,13.248568631279121988
0.185000000000000026,12.113485112402813115
0.186000000000000026,11.002890025215734227
0.187000000000000027,9.917497750239153476
0.188000000000000028,8.858274178153418887
0.189000000000000029,7.826330314317287318
0.190000000000000030,6.822823905738597539
0.191000000000000031,5.848872316619176281
0.192000000000000032,4.905478738135959915
0.193000000000000033,3.993472825157344808
0.194000000000000034,3.113466020569746640
0.195000000000000034,2.265821158421493564
0.196000000000000035,1.450635423298551663
0.197000000000000036,0.667735372590275267
0.198000000000000037,-0.083317515563949215
0.199000000000000038,-0.803212440744974332
0.200000000000000039,-1.492867741496245237
0.201000000000000040,-2.153403907136331785
0.202000000000000041,-2.786112743196484498
0.203000000000000042,-3.392424167621399533
0.204000000000000042,-3.973871960959554084
0.205000000000000043,-4.532059623107661750
0.206000000000000044,-5.068627311113075962
0.207000000000000045,-5.585220654615701719
0.208000000000000046,-6.083462073611445753
0.209000000000000047,-6.564925061739603329
0.210000000000000048,-7.031111750340873989
0.211000000000000049,-7.483433936097872774
0.212000000000000050,-7.923197639239283774
0.213000000000000050,-8.351591160388432300
0.214000000000000051,-8.769676521914576028
0.215000000000000052,-9.178384113387327403
0.216000000000000053,-9.578510309405370293
0.217000000000000054,-9.970717790406711245
0.218000000000000055,-10.355538271667729333
0.219000000000000056,-10.733377331092697204
0.220000000000000057,-11.104521021108785916
0.221000000000000058,-11.469143952563426225
0.222000000000000058,-11.827318547601439747
0.223000000000000059,-12.179025172784871955
0.224000000000000060,-12.524162882035280830
0.225000000000000061,-12.862560520261926200
0.226000000000000062,-13.193987961847236434
0.227000000000000063,-13.518167282674436791
0.228000000000000064,-13.834783689395047546
0.229000000000000065,-14.143496054557052943
0.230000000000000066,-14.443946930557896025
0.231000000000000066,-14.735771938761336841
0.232000000000000067,-15.018608452217083737
0.233000000000000068,-15.292103511022100193
0.234000000000000069,-15.555920928302210626
0.235000000000000070,-15.809747561974514696
0.236000000000000071,-16.053298742823933765
0.237000000000000072,-16.286322862988022564
0.238000000000000073,-16.508605140717794058
0.239000000000000073,-16.719970587327772193
0.240000000000000074,-16.920286210645901548
0.241000000000000075,-17.109462496115899199
0.242000000000000076,-17.287454212102176143
0.243000000000000077,-17.454260590015163501
0.244000000000000078,-17.609924932733196812
0.245000000000000079,-17.754533706568533802
0.246000000000000080,-17.888215172829873723
0.247000000000000081,-18.011137614992041023
0.248000000000000081,-18.123507216706943979
0.249000000000000082,-18.225565644488646910
0.250000000000000111,-18.317587386981017517
0.251000000000000112,-18.399876900362475141
0.252000000000000113,-18.472765606748971834
0.253000000000000114,-18.536608789498970395
0.254000000000000115,-18.591782426179840115
0.255000000000000115,-18.638679996683574558
0.256000000000000116,-18.677709300641176071
0.257000000000000117,-18.709289314928049919
0.258000000000000118,-18.733847118720412084
0.259000000000000119,-18.751814910292790017
0.260000000000000120,-18.763627136569624554
0.261000000000000121,-18.769717753384952630
0.262000000000000122,-18.770517631485294174
0.263000000000000123,-18.766452120546180282
0.264000000000000123,-18.757938780876617813
0.265000000000000124,-18.745385290064429995
0.266000000000000125,-18.729187529576179827
0.267000000000000126,-18.709727854268841440
0.268000000000000127,-18.687373545898218197
0.269000000000000128,-18.662475450017847578
0.270000000000000129,-18.635366794149142322
0.271000000000000130,-18.606362183762563234
0.272000000000000131,-18.575756771435187886
0.273000000000000131,-18.543825593533458829
0.274000000000000132,-18.510823067904450312
0.275000000000000133,-18.476982645334850019
0.276000000000000134,-18.442516606945375202
0.277000000000000135,-18.407615999220453773
0.278000000000000136,-18.372450698018845117
0.279000000000000137,-18.337169592661531681
0.280000000000000138,-18.301900881039337321
0.281000000000000139,-18.266752466614985195
0.282000000000000139,-18.231812448204841814
0.283000000000000140,-18.197149693504456991
0.284000000000000141,-18.162814487463215585
0.285000000000000142,-18.128839246807025631
0.286000000000000143,-18.095239292248887608
0.287000000000000144,-18.062013670206642502
0.288000000000000145,-18.029146016161128330
0.289000000000000146,-17.996605452127521829
0.290000000000000147,-17.964347511075633435
0.291000000000000147,-17.932315081513603872
0.292000000000000148,-17.900439365841080530
0.293000000000000149,-17.868640846477170214
0.294000000000000150,-17.836830254172454602
0.295000000000000151,-17.804909533319143833
0.296000000000000152,-17.772772799476090455
0.297000000000000153,-17.740307284723765946
0.298000000000000154,-17.707394266855338572
0.299000000000000155,-17.673909978792298858
0.300000000000000155,-17.639726494984472538
0.301000000000000156,-17.604712591913887820
0.302000000000000157,-17.568734580167792103
0.303000000000000158,-17.531657105877847869
0.304000000000000159,-17.493343919639411155
0.305000000000000160,-17.453658611325320038
0.306000000000000161,-17.412465309493839527
0.307000000000000162,-17.369629344358795464
0.308000000000000163,-17.325017873541927571
0.309000000000000163,-17.278500470063200112
0.310000000000000164,-17.229949672244163850
0.311000000000000165,-17.179241495402326478
0.312000000000000166,-17.126255905402295809
0.313000000000000167,-17.070877254300970804
0.314000000000000168,-17.012994678481099697
0.315000000000000169,-16.952502459809831947
0.316000000000000170,-16.889300350487260971
0.317000000000000171,-16.823293862364657514
0.318000000000000171,-16.754394521614138114
0.319000000000000172,-16.682520089721329271
0.320000000000000173,-16.607594751850317749
0.321000000000000174,-16.529549273697362821
0.322000000000000175,-16.448321128006380576
0.323000000000000176,-16.363854591965953489
0.324000000000000177,-16.276100816745142197
0.325000000000000178,-16.185017870454437627
0.326000000000000179,-16.090570755839493700
0.327000000000000179,-15.992731404028447173
0.328000000000000180,-15.891478645661043956
0.329000000000000181,-15.786798160728228169
0.330000000000000182,-15.678682408445416385
0.331000000000000183,-15.567130538473014312
0.332000000000000184,-15.452148284782115439
0.333000000000000185,-15.333747843444280434
0.334000000000000186,-15.211947735601233589
0.335000000000000187,-15.086772656843729479
0.336000000000000187,-14.958253314199396300
0.337000000000000188,-14.826426251897377284
0.338000000000000189,-14.691333667043215527
0.339000000000000190,-14.553023216301269827
0.340000000000000191,-14.411547814644004362
0.341000000000000192,-14.266965427188768700
0.342000000000000193,-14.119338855101904784
0.343000000000000194,-13.968735516509804384
0.344000000000000195,-13.815227223314565208
0.345000000000000195,-13.658889954770398134
0.346000000000000196,-13.499803628634836627
0.347000000000000197,-13.338051870666982168
0.348000000000000198,-13.173721783203523827
0.349000000000000199,-13.006903713501561271
0.350000000000000200,-12.837691022496951376
0.351000000000000201,-12.666179854586204101
0.352000000000000202,-12.492468909000816524
0.353000000000000203,-12.316659213304179232
0.354000000000000203,-12.138853899503196487
0.355000000000000204,-11.959157983230261024
0.356000000000000205,-11.777678146415233584
0.357000000000000206,-11.594522523832456073
0.358000000000000207,-11.409800493874035610
0.359000000000000208,-11.223622473868696048
0.360000000000000209,-11.036099720233519150
0.361000000000000210,-10.847344133716630310
0.362000000000000210,-10.657468069959355361
0.363000000000000211,-10.466584155579266024
0.364000000000000212,-10.274805109949026516
0.365000000000000213,-10.082243572820532407
0.366000000000000214,-9.889011937920367146
0.367000000000000215,-9.695222192619500134
0.368000000000000216,-9.500985763758716729
0.369000000000000217,-9.306413369691075133
0.370000000000000218,-9.111614878583237598
0.371000000000000218,-8.916699172999575040
0.372000000000000219,-8.721774020775990621
0.373000000000000220,-8.526945952174434851
0.374000000000000221,-8.332320143294406734
0.375000000000000222,-8.138000305703661397
0.376000000000000223,-7.944088582237746721
0.377000000000000224,-7.750685448906001973
0.378000000000000225,-7.557889622830742837
0.379000000000000226,-7.365797976136200020
0.380000000000000226,-7.174505455694803580
0.381000000000000227,-6.984105008629628131
0.382000000000000228,-6.794687513464697126
0.383000000000000229,-6.606341716807645703
0.384000000000000230,-6.419154175443149590
0.385000000000000231,-6.233209203710417867
0.386000000000000232,-6.048588826032823995
0.387000000000000233,-5.865372734463919713
0.388000000000000234,-5.683638251110332718
0.389000000000000234,-5.503460295289221982
0.390000000000000235,-5.324911355275224523
0.391000000000000236,-5.148061464490207406
0.392000000000000237,-4.972978181987200763
0.393000000000000238,-4.799726577079268530
0.394000000000000239,-4.628369217963056670
0.395000000000000240,-4.458966164186709769
0.396000000000000241,-4.291574962811903760
0.397000000000000242,-4.126250648120048936
0.398000000000000242,-3.963045744713700635
0.399000000000000243,-3.802010273865110257
0.400000000000000244,-3.643191762964933300
0.401000000000000245,-3.486635257926291587
0.402000000000000246,-3.332383338400500605
0.403000000000000247,-3.180476135662987147
0.404000000000000248,-3.030951353030380879
0.405000000000000249,-2.883844288671629563
0.406000000000000250,-2.739187860678844011
0.407000000000000250,-2.597012634266055553
0.408000000000000251,-2.457346850966784846
0.409000000000000252,-2.320216459704396161
0.410000000000000253,-2.185645149611852300
0.411000000000000254,-2.053654384480846584
0.412000000000000255,-1.924263438723134545
0.413000000000000256,-1.797489434730219715
0.414000000000000257,-1.673347381520641886
0.415000000000000258,-1.551850214567458641
0.416000000000000258,-1.433008836701695987
0.417000000000000259,-1.316832159990886542
0.418000000000000260,-1.203327148495117793
0.419000000000000261,-1.092498861806179278
0.420000000000000262,-0.984350499278955460
0.421000000000000263,-0.878883444867164743
0.422000000000000264,-0.776097312479123724
0.423000000000000265,-0.675989991772068755
0.424000000000000266,-0.578557694307293646
0.425000000000000266,-0.483794999990950214
0.426000000000000267,-0.391694903728937782
0.427000000000000268,-0.302248862227152193
0.428000000000000269,-0.215446840871499040
0.429000000000000270,-0.131277360625059902
0.430000000000000271,-0.049727544882667229
0.431000000000000272,0.029216833773890939
0.432000000000000273,0.105571306974027126
0.433000000000000274,0.179352664161118475
0.434000000000000274,0.250578906448429228
0.435000000000000275,0.319269200774034645
0.436000000000000276,0.385443834398122687
0.437000000000000277,0.449124169783496119
0.438000000000000278,0.510332599897616701
0.439000000000000279,0.569092503972228880
0.440000000000000280,0.625428203754278211
0.441000000000000281,0.679364920279594942
0.442000000000000282,0.730928731198593584
0.443000000000000282,0.780146528681300078
0.444000000000000283,0.827045977926743392
0.445000000000000284,0.871655476299983967
0.446000000000000285,0.914004113118166095
0.447000000000000286,0.954121630104864282
0.448000000000000287,0.992038382530640028
0.449000000000000288,1.027785301055680556
0.450000000000000289,1.061393854288938510
0.451000000000000290,1.092896012076564727
0.452000000000000290,1.122324209530920047
0.453000000000000291,1.149711311809984648
0.454000000000000292,1.175090579655603928
0.455000000000000293,1.198495635697726769
0.456000000000000294,1.219960431530388467
0.457000000000000295,1.239519215564192312
0.458000000000000296,1.257206501658572950
0.459000000000000297,1.273057038536403507
0.460000000000000298,1.287105779982040676
0.461000000000000298,1.299387855823296301
0.462000000000000299,1.309938543696518964
0.463000000000000300,1.318793241593356758
0.464000000000000301,1.325987441186713856
0.465000000000000302,1.331556701932718134
0.466000000000000303,1.335536625944677702
0.467000000000000304,1.337962833634430471
0.468000000000000305,1.338870940115525210
0.469000000000000306,1.338296532362391655
0.470000000000000306,1.336275147118810569
0.471000000000000307,1.332842249548484626
0.472000000000000308,1.328033212620070902
0.473000000000000309,1.321883297218481301
0.474000000000000310,1.314427632973808935
0.475000000000000311,1.305701199798818157
0.476000000000000312,1.295738810125617757
0.477000000000000313,1.284575091831689608
0.478000000000000314,1.272244471845164648
0.479000000000000314,1.258781160418943834
0.480000000000000315,1.244219136063007269
0.481000000000000316,1.228592131123957376
0.482000000000000317,1.211933618000684776
0.483000000000000318,1.194276795984827277
0.484000000000000319,1.175654578714528942
0.485000000000000320,1.156099582229817679
0.486000000000000321,1.135644113617897633
0.487000000000000322,1.114320160236423218
0.488000000000000322,1.092159379502793737
0.489000000000000323,1.069193089237492345
0.490000000000000324,1.045452258549319335
0.491000000000000325,1.020967499250433619
0.492000000000000326,0.995769057789066103
0.493000000000000327,0.969886807687788455
0.494000000000000328,0.943350242475132994
0.495000000000000329,0.916188469098576208
0.496000000000000330,0.888430201806686193
0.497000000000000330,0.860103756488555637
0.498000000000000331,0.831237045458393942
0.499000000000000332,0.801857572673592478
0.500000000000000333,0.771992429374270261
0.501000000000000334,0.741668290132669661
0.502000000000000335,0.710911409300783892
0.503000000000000336,0.679747617844690732
0.504000000000000337,0.648202320554176925
0.505000000000000338,0.616300493616397271
0.506000000000000338,0.584066682542409787
0.507000000000000339,0.551525000435570845
0.508000000000000340,0.518699126590889792
0.509000000000000341,0.485612305414687806
0.510000000000000342,0.452287345653858253
0.511000000000000343,0.418746619924413810
0.512000000000000344,0.385012064528949427
0.513000000000000345,0.351105179553003910
0.514000000000000346,0.317047029230273558
0.515000000000000346,0.282858242566979001
0.516000000000000347,0.248559014215720520
0.517000000000000348,0.214169105589400832
0.518000000000000349,0.179707846205915678
0.519000000000000350,0.145194135254609030
0.520000000000000351,0.110646443375394865
0.521000000000000352,0.076082814642020560
0.522000000000000353,0.041520868740729466
0.523000000000000353,0.006977803336005173
0.524000000000000354,-0.027529603384773903
0.525000000000000355,-0.061984989995925166
0.526000000000000356,-0.096372408955004235
0.527000000000000357,-0.130676323569083319
0.528000000000000358,-0.164881604813269134
0.529000000000000359,-0.198973528008673101
0.530000000000000360,-0.232937769367144026
0.531000000000000361,-0.266760402409607633
0.532000000000000361,-0.300427894264898909
0.533000000000000362,-0.333927101855675090
0.534000000000000363,-0.367245267977893697
0.535000000000000364,-0.400370017280135382
0.536000000000000365,-0.433289352148910012
0.537000000000000366,-0.465991648505884204
0.538000000000000367,-0.498465651522870978
0.539000000000000368,-0.530700471260146744
0.540000000000000369,-0.562685578233665273
0.541000000000000369,-0.594410798916370609
0.542000000000000370,-0.625866311178895796
0.543000000000000371,-0.657042639674545681
0.544000000000000372,-0.687930651173507934
0.545000000000000373,-0.718521549850923424
0.546000000000000374,-0.748806872533453793
0.547000000000000375,-0.778778483908705299
0.548000000000000376,-0.808428571701819698
0.549000000000000377,-0.837749641823339553
0.550000000000000377,-0.866734513492374403
0.551000000000000378,-0.895376314338935608
0.552000000000000379,-0.923668475489111684
0.553000000000000380,-0.951604726636789855
0.554000000000000381,-0.979179091105305544
0.555000000000000382,-1.006385880902411545
0.556000000000000383,-1.033219691771817272
0.557000000000000384,-1.059675398244339650
0.558000000000000385,-1.085748148691739079
0.559000000000000385,-1.111433360386069547
0.560000000000000386,-1.136726714567287022
0.561000000000000387,-1.161624151521842174
0.562000000000000388,-1.186121865674735654
0.563000000000000389,-1.210216300697527059
0.564000000000000390,-1.233904144634596189
0.565000000000000391,-1.257182325049940319
0.566000000000000392,-1.280048004196627121
0.567000000000000393,-1.302498574210931626
0.568000000000000393,-1.324531652333159837
0.569000000000000394,-1.346145076156995302
0.570000000000000395,-1.367336898909124132
0.571000000000000396,-1.388105384760873973
0.572000000000000397,-1.408449004173444985
0.573000000000000398,-1.428366429278262961
0.574000000000000399,-1.447856529293880090
0.575000000000000400,-1.466918365980857120
0.576000000000000401,-1.485551189135821959
0.577000000000000401,-1.503754432126006346
0.578000000000000402,-1.521527707465385681
0.579000000000000403,-1.538870802433478291
0.580000000000000404,-1.555783674737841515
0.581000000000000405,-1.572266448221224078
0.582000000000000406,-1.588319408614219608
0.583000000000000407,-1.603942999334294184
0.584000000000000408,-1.619137817331923745
0.585000000000000409,-1.633904608984532825
0.586000000000000409,-1.648244266038955796
0.587000000000000410,-1.662157821602933350
0.588000000000000411,-1.675646446186251470
0.589000000000000412,-1.688711443791997224
0.590000000000000413,-1.701354248058377205
0.591000000000000414,-1.713576418451513206
0.592000000000000415,-1.725379636509543513
0.593000000000000416,-1.736765702138373557
0.594000000000000417,-1.747736529959341478
0.595000000000000417,-1.758294145708970246
0.596000000000000418,-1.768440682691101884
0.597000000000000419,-1.778178378281448646
0.598000000000000420,-1.787509570484772992
0.599000000000000421,-1.796436694544697676
0.600000000000000422,-1.804962279606259212
0.601000000000000423,-1.813088945431153176
0.602000000000000424,-1.820819399165706454
0.603000000000000425,-1.828156432161509359
0.604000000000000425,-1.835102916848603938
0.605000000000000426,-1.841661803661169827
0.606000000000000427,-1.847836118015544260
0.607000000000000428,-1.853628957340423211
0.608000000000000429,-1.859043488159088486
0.609000000000000430,-1.864082943223405620
0.610000000000000431,-1.868750618699430932
0.611000000000000432,-1.873049871404320665
0.612000000000000433,-1.876984116094306598
