# Fe110_HIESCA-JS
# h[nm],U(h)[kJ/mol]
0.200000000000000011,109.455544112960211578
0.201000000000000012,101.938497090249086341
0.202000000000000013,97.401678775892918338
0.203000000000000014,94.198590672572223070
0.204000000000000015,91.417514950262003026
0.205000000000000016,88.607807719673587599
0.206000000000000016,85.594838837455853309
0.207000000000000017,82.357818403953757525
0.208000000000000018,78.951631572114067126
0.209000000000000019,75.458962467196215584
0.210000000000000020,71.962834822551101865
0.211000000000000021,68.532547398194438415
0.212000000000000022,65.218079406844694290
0.213000000000000023,62.049571411108011887
0.214000000000000024,59.039592967925059952
0.215000000000000024,56.186698242889214328
0.216000000000000025,53.479327287959350201
0.217000000000000026,50.899495929940357541
0.218000000000000027,48.425978069951938210
0.219000000000000028,46.036855654535116855
0.220000000000000029,43.711419659527685155
0.221000000000000030,41.431469314129969916
0.222000000000000031,39.182090513284805411
0.223000000000000032,36.952008074217260969
0.224000000000000032,34.733607444273744136
0.225000000000000033,32.522714769344069907
0.226000000000000034,30.318213409950669046
0.227000000000000035,28.121562416055176925
0.228000000000000036,25.936269679725331372
0.229000000000000037,23.767360422750108739
0.230000000000000038,21.620870875788675392
0.231000000000000039,19.503387715408528891
0.232000000000000040,17.421646106595979120
0.233000000000000040,15.382192993286228244
0.234000000000000041,13.391117460190752553
0.235000000000000042,11.453846391291783391
0.236000000000000043,9.575001095894197789
0.237000000000000044,7.758308885620114559
0.238000000000000045,6.006562599491783061
0.239000000000000046,4.321620639614407011
0.240000000000000047,2.704440065775383761
0.241000000000000048,1.155135591497360226
0.242000000000000048,-0.326942166801981071
0.243000000000000049,-1.743115188223982370
0.244000000000000050,-3.095278568741821168
0.245000000000000051,-4.385797585313929048
0.246000000000000052,-5.617405072614666039
0.247000000000000053,-6.793102163968105955
0.248000000000000054,-7.916064779562948850
0.249000000000000055,-8.989557637872646723
0.250000000000000056,-10.016857026848594359
0.251000000000000056,-11.001183102344912257
0.252000000000000057,-11.945642081814789037
0.253000000000000058,-12.853178368831422063
0.254000000000000059,-13.726536374152578546
0.255000000000000060,-14.568231586589110549
0.256000000000000061,-15.380530286021416586
0.257000000000000062,-16.165437175462965769
0.258000000000000063,-16.924690133047356255
0.259000000000000064,-17.659761242365092926
0.260000000000000064,-18.371863245182606050
0.261000000000000065,-19.061960569136012111
0.262000000000000066,-19.730784109878790389
0.263000000000000067,-20.378848988229556483
0.264000000000000068,-21.006474554472383431
0.265000000000000069,-21.613805970944831358
0.266000000000000070,-22.200836767701723318
0.267000000000000071,-22.767431832097454247
0.268000000000000071,-23.313350359701196624
0.269000000000000072,-23.838268359528917983
0.270000000000000073,-24.341800369935508996
0.271000000000000074,-24.823520101735880417
0.272000000000000075,-25.282979781534614006
0.273000000000000076,-25.719728020366051879
0.274000000000000077,-26.133326080288007631
0.275000000000000078,-26.523362454385186027
0.276000000000000079,-26.889465713697909166
0.277000000000000079,-27.231315607974028836
0.278000000000000080,-27.548652435995080623
0.279000000000000081,-27.841284725765966357
0.280000000000000082,-28.109095285333381753
0.281000000000000083,-28.352045701698045832
0.282000000000000084,-28.570179378512655433
0.283000000000000085,-28.763623213327150552
0.284000000000000086,-28.932588022369952085
0.285000000000000087,-29.077367825550169300
0.286000000000000087,-29.198338106836217776
0.287000000000000088,-29.295953165697518727
0.288000000000000089,-29.370742674165160935
0.289000000000000090,-29.423307551530502479
0.290000000000000091,-29.454315264993180534
0.291000000000000092,-29.464494659914812758
0.292000000000000093,-29.454630417924505537
0.293000000000000094,-29.425557235141148738
0.294000000000000095,-29.378153806380446156
0.295000000000000095,-29.313336694547018624
0.296000000000000096,-29.232054157593676535
0.297000000000000097,-29.135279998571366633
0.298000000000000098,-29.024007497483331974
0.299000000000000099,-28.899243476975918554
0.300000000000000100,-28.762002547408446418
0.301000000000000101,-28.613301570599041668
0.302000000000000102,-28.454154375585233083
0.303000000000000103,-28.285566754097022368
0.304000000000000103,-28.108531758142923707
0.305000000000000104,-27.924025317169178351
0.306000000000000105,-27.733002187681741191
0.307000000000000106,-27.536392244019587849
0.308000000000000107,-27.335097115139934232
0.309000000000000108,-27.129987168811755538
0.310000000000000109,-26.921898841507818645
0.311000000000000110,-26.711632309524180329
0.312000000000000111,-26.499949494426687124
0.313000000000000111,-26.287572393811245774
0.314000000000000112,-26.075181726550727745
0.315000000000000113,-25.863415880168883376
0.316000000000000114,-25.652870146713645738
0.317000000000000115,-25.444096232476844932
0.318000000000000116,-25.237602026109094311
0.319000000000000117,-25.033851609086859469
0.320000000000000118,-24.833265492085963899
0.321000000000000119,-24.636221060583608278
0.322000000000000119,-24.443053212933168794
0.323000000000000120,-24.254055174215096713
0.324000000000000121,-24.069479469347708545
0.325000000000000122,-23.889539039229230610
0.326000000000000123,-23.714408484062136750
0.327000000000000124,-23.544225418469530098
0.328000000000000125,-23.379091923540716635
0.329000000000000126,-23.219076081523958521
0.330000000000000127,-23.064213579512120589
0.331000000000000127,-22.914509369130037442
0.332000000000000128,-22.769939369921395667
0.333000000000000129,-22.630452204842192998
0.334000000000000130,-22.495970956986816702
0.335000000000000131,-22.366394937399483922
0.336000000000000132,-22.241601454547101469
0.337000000000000133,-22.121447576749481811
0.338000000000000134,-22.005771879571561556
0.339000000000000135,-21.894396170877069352
0.340000000000000135,-21.787127186920962174
0.341000000000000136,-21.683758253515254211
0.342000000000000137,-21.584070906937963485
0.343000000000000138,-21.487836469865627009
0.344000000000000139,-21.394817578194000873
0.345000000000000140,-21.304769655169856435
0.346000000000000141,-21.217442329785349386
0.347000000000000142,-21.132580796887925345
0.348000000000000143,-21.049927116930721382
0.349000000000000143,-20.969221453730892080
0.350000000000000144,-20.890203249018167497
0.351000000000000145,-20.812612332940908288
0.352000000000000146,-20.736189970054713427
0.353000000000000147,-20.660679840648445094
0.354000000000000148,-20.585828957565833974
0.355000000000000149,-20.511388518957478055
0.356000000000000150,-20.437114697650621054
0.357000000000000151,-20.362769368051296226
0.358000000000000151,-20.288120771698356037
0.359000000000000152,-20.212944122770974076
0.360000000000000153,-20.137022155012857638
0.361000000000000154,-20.060145611677278055
0.362000000000000155,-19.982113680219619312
0.363000000000000156,-19.902734373568442550
0.364000000000000157,-19.821824859893631299
0.365000000000000158,-19.739211742862622145
0.366000000000000159,-19.654731294432316702
0.367000000000000159,-19.568229642268406110
0.368000000000000160,-19.479562913914893585
0.369000000000000161,-19.388597339855600410
0.370000000000000162,-19.295209317618326139
0.371000000000000163,-19.199285439071267945
0.372000000000000164,-19.100722483050521561
0.373000000000000165,-18.999427375440134824
0.374000000000000166,-18.895317118799759726
0.375000000000000167,-18.788318693603020648
0.376000000000000167,-18.678368933111869410
0.377000000000000168,-18.565414373868559750
0.378000000000000169,-18.449411083739242656
0.379000000000000170,-18.330324469391491959
0.380000000000000171,-18.208129065032672145
0.381000000000000172,-18.082808304178364267
0.382000000000000173,-17.954354276159136816
0.383000000000000174,-17.822767469012418928
0.384000000000000175,-17.688056500341499344
0.385000000000000175,-17.550237837659572904
0.386000000000000176,-17.409335509670540887
0.387000000000000177,-17.265380809872397094
0.388000000000000178,-17.118411993802975957
0.389000000000000179,-16.968473971181470716
0.390000000000000180,-16.815617994133837954
0.391000000000000181,-16.659901342625019538
0.392000000000000182,-16.501387008156960690
0.393000000000000183,-16.340143376727901625
0.394000000000000183,-16.176243911987040036
0.395000000000000184,-16.009766839457494569
0.396000000000000185,-15.840794832641554635
0.397000000000000186,-15.669414701764631914
0.398000000000000187,-15.495717085858103701
0.399000000000000188,-15.319796148827098392
0.400000000000000189,-15.141749280096709285
0.401000000000000190,-14.961676800379217767
0.402000000000000191,-14.779681673056646929
0.403000000000000191,-14.595869221625047629
0.404000000000000192,-14.410346853602884920
0.405000000000000193,-14.223223791261901283
0.406000000000000194,-14.034610809498124340
0.407000000000000195,-13.844619981121251584
0.408000000000000196,-13.653364429802824276
0.409000000000000197,-13.460958090888576422
0.410000000000000198,-13.267515480246355963
0.411000000000000199,-13.073151471288966263
0.412000000000000199,-12.877981080281298176
0.413000000000000200,-12.682119260012902018
0.414000000000000201,-12.485680701890085942
0.415000000000000202,-12.288779646476847063
0.416000000000000203,-12.091529702490625198
0.417000000000000204,-11.894043674236645103
0.418000000000000205,-11.696433397444749858
0.419000000000000206,-11.498809583453537542
0.420000000000000207,-11.301281671668968798
0.421000000000000207,-11.103957690209160347
0.422000000000000208,-10.906944124631460014
0.423000000000000209,-10.710345794625258264
0.424000000000000210,-10.514265738541066497
0.425000000000000211,-10.318805105615497908
0.426000000000000212,-10.124063055741842732
0.427000000000000213,-9.930136666626619757
0.428000000000000214,-9.737120848164988018
0.429000000000000214,-9.545108263860347719
0.430000000000000215,-9.354189259107595689
0.431000000000000216,-9.164451796154493124
0.432000000000000217,-8.975981395550386210
0.433000000000000218,-8.788861083888644288
0.434000000000000219,-8.603171347645671929
0.435000000000000220,-8.418990092917235657
0.436000000000000221,-8.236392610851137164
0.437000000000000222,-8.055451548574120935
0.438000000000000222,-7.876236885410534683
0.439000000000000223,-7.698815914190132226
0.440000000000000224,-7.523253227442866731
0.441000000000000225,-7.349610708279354476
0.442000000000000226,-7.177947525757531366
0.443000000000000227,-7.008320134536836221
0.444000000000000228,-6.840782278624184976
0.445000000000000229,-6.675384999017836662
0.446000000000000230,-6.512176645058145752
0.447000000000000230,-6.351202889297085541
0.448000000000000231,-6.192506745701565229
0.449000000000000232,-6.036128591008958821
0.450000000000000233,-5.882106189056985457
0.451000000000000234,-5.730474717913535798
0.452000000000000235,-5.581266799636309450
0.453000000000000236,-5.434512532495753057
0.454000000000000237,-5.290239525499397466
0.455000000000000238,-5.148472935059421829
0.456000000000000238,-5.009235503650097954
0.457000000000000239,-4.872547600305571436
0.458000000000000240,-4.738427262813644347
0.459000000000000241,-4.606890241464626001
0.460000000000000242,-4.477950044220005310
0.461000000000000243,-4.351617983169085768
0.462000000000000244,-4.227903222147108231
0.463000000000000245,-4.106812825392096578
0.464000000000000246,-3.988351807122821668
0.465000000000000246,-3.872523181924242497
0.466000000000000247,-3.759328015831344239
0.467000000000000248,-3.648765478006571694
0.468000000000000249,-3.540832892910619645
0.469000000000000250,-3.435525792870132822
0.470000000000000251,-3.332837970950546236
0.471000000000000252,-3.232761534045947460
0.472000000000000253,-3.135286956102365963
0.473000000000000254,-3.040403131394422864
0.474000000000000254,-2.948097427779477808
0.475000000000000255,-2.858355739857081357
0.476000000000000256,-2.771162541965252135
0.477000000000000257,-2.686500940948907790
0.478000000000000258,-2.604352728639070857
0.479000000000000259,-2.524698433985122392
0.480000000000000260,-2.447517374785763700
0.481000000000000261,-2.372787708967363685
0.482000000000000262,-2.300486485362013056
0.483000000000000262,-2.230589693940149498
0.484000000000000263,-2.163072315456114225
0.485000000000000264,-2.097908370467490791
0.486000000000000265,-2.035070967692261590
0.487000000000000266,-1.974532351670216901
0.488000000000000267,-1.916263949697758928
0.489000000000000268,-1.860236418008061721
0.490000000000000269,-1.806419687170392141
0.491000000000000270,-1.754783006685427527
0.492000000000000270,-1.705294988755068131
0.493000000000000271,-1.657923651207899196
0.494000000000000272,-1.612636459563124847
0.495000000000000273,-1.569400368218137221
0.496000000000000274,-1.528181860746644860
0.497000000000000275,-1.488946989295979906
0.498000000000000276,-1.451661413074356144
0.499000000000000277,-1.416290435920039226
0.500000000000000222,-1.382799042946411650
0.501000000000000334,-1.351151936258077502
0.502000000000000224,-1.321313569735014237
0.503000000000000336,-1.293248182882598796
0.504000000000000226,-1.266919833747317092
0.505000000000000338,-1.242292430898506828
0.506000000000000227,-1.219329764478359834
0.507000000000000339,-1.197995536322782772
0.508000000000000229,-1.178253389157469355
0.509000000000000341,-1.160066934873986266
0.510000000000000231,-1.143399781891971445
0.511000000000000343,-1.128215561614083873
0.512000000000000233,-1.114477953981492409
0.513000000000000345,-1.102150712138187272
0.514000000000000234,-1.091197686213353224
0.515000000000000346,-1.081582846231383011
0.516000000000000236,-1.073270304160105049
0.517000000000000348,-1.066224335108077126
0.518000000000000238,-1.060409397682442023
0.519000000000000350,-1.055790153519342578
0.520000000000000240,-1.052331485999263405
0.521000000000000352,-1.049998518160152772
0.522000000000000242,-1.048756629821424813
0.523000000000000353,-1.048571473932484732
0.524000000000000243,-1.049408992159394760
0.525000000000000355,-1.051235429723899273
0.526000000000000245,-1.054017349509015711
0.527000000000000357,-1.057721645445698577
0.528000000000000247,-1.062315555195277650
0.529000000000000359,-1.067766672142393514
0.530000000000000249,-1.074042956713441965
0.531000000000000361,-1.081112747035482213
0.532000000000000250,-1.088944768950727227
0.533000000000000362,-1.097508145401751234
0.534000000000000252,-1.106772405202449239
0.535000000000000364,-1.116707491210201297
0.536000000000000254,-1.127283767913995316
0.537000000000000366,-1.138472028453964224
0.538000000000000256,-1.150243501087200526
0.539000000000000368,-1.162569855114926387
0.540000000000000258,-1.175423206285910682
0.541000000000000369,-1.188776121691012211
0.542000000000000259,-1.202601624163444738
0.543000000000000371,-1.216873196199500962
0.544000000000000261,-1.231564783414137665
0.545000000000000373,-1.246650797545717282
0.546000000000000263,-1.262106119024102302
0.547000000000000375,-1.277906099116181693
0.548000000000000265,-1.294026561662505070
0.549000000000000377,-1.310443804418899072
0.550000000000000266,-1.327134600016296906
0.551000000000000378,-1.344076196552328906
0.552000000000000268,-1.361246317827536689
0.553000000000000380,-1.378623163239232507
0.554000000000000270,-1.396185407345612584
0.555000000000000382,-1.413912199112633772
0.556000000000000272,-1.431783160855870207
0.557000000000000384,-1.449778386889343684
0.558000000000000274,-1.467878441893253116
0.559000000000000385,-1.486064359012034375
0.560000000000000275,-1.504317637694197796
0.561000000000000387,-1.522620241285078446
0.562000000000000277,-1.540954594383267873
0.563000000000000389,-1.559303579971580422
0.564000000000000279,-1.577650536332801057
0.565000000000000391,-1.595979253760578587
0.566000000000000281,-1.614273971075243397
0.567000000000000393,-1.632519371954491927
0.568000000000000282,-1.650700581088268448
0.569000000000000394,-1.668803160167248834
0.570000000000000284,-1.686813103713796780
0.571000000000000396,-1.704716834764460343
0.572000000000000286,-1.722501200412350553
0.573000000000000398,-1.740153467217907091
0.574000000000000288,-1.757661316496097470
0.575000000000000400,-1.775012839488123273
0.576000000000000290,-1.792196532425076594
0.577000000000000401,-1.809201291491315589
0.578000000000000291,-1.826016407694584398
0.579000000000000403,-1.842631561650067695
0.580000000000000293,-1.859036818285143111
0.581000000000000405,-1.875222621471594353
0.582000000000000295,-1.891179788591483613
0.583000000000000407,-1.906899505043216703
0.584000000000000297,-1.922373318693510580
0.585000000000000409,-1.937593134281412333
0.586000000000000298,-1.952551207779721576
0.587000000000000410,-1.967240140719538122
0.588000000000000300,-1.981652874482962901
0.589000000000000412,-1.995782684569248122
0.590000000000000302,-2.009623174839123116
0.591000000000000414,-2.023168271742203039
0.592000000000000304,-2.036412218531873819
0.593000000000000416,-2.049349569472158183
0.594000000000000306,-2.061975184040732767
0.595000000000000417,-2.074284221132221884
0.596000000000000307,-2.086272133265525408
0.597000000000000419,-2.097934660799123829
0.598000000000000309,-2.109267826157837700
0.599000000000000421,-2.120267928074452968
0.600000000000000311,-2.130931535849641456
0.601000000000000423,-2.141255483633242029
0.602000000000000313,-2.151236864729920928
0.603000000000000425,-2.160873025932161795
0.604000000000000314,-2.170161561883275247
0.605000000000000426,-2.179100309473091190
0.606000000000000316,-2.187687342268822110
0.607000000000000428,-2.195920964983433699
0.608000000000000318,-2.203799707983886691
0.609000000000000430,-2.211322321841286076
0.610000000000000320,-2.218487771924991581
0.611000000000000432,-2.225295233042671850
0.612000000000000322,-2.231744084128019612
0.613000000000000433,-2.237833902977910405
0.614000000000000323,-2.243564461040597813
0.615000000000000435,-2.248935718256440452
0.616000000000000325,-2.253947817952553834
0.617000000000000437,-2.258601081792803722
0.618000000000000327,-2.262896004784258785
0.619000000000000439,-2.266833250341329098
0.620000000000000329,-2.270413645408644321
0.621000000000000441,-2.273638175643607262
0.622000000000000330,-2.276507980659605579
0.623000000000000442,-2.279024349330649013
0.624000000000000332,-2.281188715158179114
0.625000000000000444,-2.283002651700826391
0.626000000000000334,-2.284467868067599827
0.627000000000000446,-2.285586204475172245
0.628000000000000336,-2.286359627869680278
0.629000000000000448,-2.286790227613486604
0.630000000000000338,-2.286880211237252158
0.631000000000000449,-2.286631900257653172
0.632000000000000339,-2.286047726060980168
0.633000000000000451,-2.285130225852789465
0.634000000000000341,-2.283882038673790138
0.635000000000000453,-2.282305901482094335
0.636000000000000343,-2.280404645301749689
0.637000000000000455,-2.278181191437769648
0.638000000000000345,-2.275638547757394825
0.639000000000000457,-2.272779805037681733
0.640000000000000346,-2.269608133379213299
0.641000000000000458,-2.266126778685797483
0.642000000000000348,-2.262339059209943937
0.643000000000000460,-2.258248362163912670
0.644000000000000350,-2.253858140396062915
0.645000000000000462,-2.249171909132193115
0.646000000000000352,-2.244193242781552744
0.647000000000000464,-2.238925771807206200
0.648000000000000353,-2.233373179660317120
0.649000000000000465,-2.227539199777953893
0.650000000000000355,-2.221427612644049976
0.651000000000000467,-2.215042242912934167
0.652000000000000357,-2.208386956595129735
0.653000000000000469,-2.201465658304696760
0.654000000000000359,-2.194282288567866779
0.655000000000000471,-2.186840821192175710
0.656000000000000361,-2.179145260695724229
0.657000000000000473,-2.171199639795895031
0.658000000000000362,-2.163008016956987412
0.659000000000000474,-2.154574473996133221
