# Fe110_AMAN-JS
# h[nm],U(h)[kJ/mol]
0.200000000000000011,155.723985936630555216
0.201000000000000012,151.243891515240591161
0.202000000000000013,147.559626182946033168
0.203000000000000014,144.314903324848756938
0.204000000000000015,141.292831830952138716
0.205000000000000016,138.368682222979288099
0.206000000000000016,135.476923953503273879
0.207000000000000017,132.588594938587988281
0.208000000000000018,129.696076976443094964
0.209000000000000019,126.803117052644282126
0.210000000000000020,123.918511991943802286
0.211000000000000021,121.052306918680784520
0.212000000000000022,118.213680879716463323
0.213000000000000023,115.409932256665072714
0.214000000000000024,112.646152627739724039
0.215000000000000024,109.925306168183439581
0.216000000000000025,107.248524458697687578
0.217000000000000026,104.615492816110844387
0.218000000000000027,102.024850887885975226
0.219000000000000028,99.474562491473321302
0.220000000000000029,96.962231464641675416
0.221000000000000030,94.485354566316544833
0.222000000000000031,92.041511416202666851
0.223000000000000032,89.628496699187536478
0.224000000000000032,87.244402567415022531
0.225000000000000033,84.887660203338441534
0.226000000000000034,82.557049471767214754
0.227000000000000035,80.251684917853467027
0.228000000000000036,77.970985357817852446
0.229000000000000037,75.714633159505268623
0.230000000000000038,73.482528149926096717
0.231000000000000039,71.274739996210897175
0.232000000000000040,69.091461929378709783
0.233000000000000040,66.932967837613546180
0.234000000000000041,64.799574052136065916
0.235000000000000042,62.691606578986998954
0.236000000000000043,60.609374082888471946
0.237000000000000044,58.553146590542539229
0.238000000000000045,56.523139634812956444
0.239000000000000046,54.519503392928164942
0.240000000000000047,52.542316266727027596
0.241000000000000048,50.591582298039476484
0.242000000000000048,48.667231796085800966
0.243000000000000049,46.769124566479113980
0.244000000000000050,44.897055164801521698
0.245000000000000051,43.050759645014025523
0.246000000000000052,41.229923328742323463
0.247000000000000053,39.434189181460610030
0.248000000000000054,37.663166442516001098
0.249000000000000055,35.916439215365201676
0.250000000000000056,34.193574780603704255
0.251000000000000056,32.494131446200405833
0.252000000000000057,30.817665796099213082
0.253000000000000058,29.163739239673095227
0.254000000000000059,27.531923800329785479
0.255000000000000060,25.921807112007520857
0.256000000000000061,24.332996617627365765
0.257000000000000062,22.765122984156324293
0.258000000000000063,21.217842765209816491
0.259000000000000064,19.690840354540348756
0.260000000000000064,18.183829282788494197
0.261000000000000065,16.696552915974628206
0.262000000000000066,15.228784617814341118
0.263000000000000067,13.780327439469681750
0.264000000000000068,12.351013400168376677
0.265000000000000069,10.940702420576586817
0.266000000000000070,9.549280968205298592
0.267000000000000071,8.176660470720999996
0.268000000000000071,6.822775549058341937
0.269000000000000072,5.487582117882981336
0.270000000000000073,4.171055396395894732
0.271000000000000074,2.873187867841396237
0.272000000000000075,1.593987221487078498
0.273000000000000076,0.333474306377348373
0.274000000000000077,-0.908318878114751316
0.275000000000000078,-2.131351133946563614
0.276000000000000079,-3.335573941040299140
0.277000000000000079,-4.520933245116951937
0.278000000000000080,-5.687371146094890584
0.279000000000000081,-6.834827479250326299
0.280000000000000082,-7.963241283850985397
0.281000000000000083,-9.072552156188907091
0.282000000000000084,-10.162701485858828931
0.283000000000000085,-11.233633575775716196
0.284000000000000086,-12.285296647817391502
0.285000000000000087,-13.317643737129111869
0.286000000000000087,-14.330633479065578939
0.287000000000000088,-15.324230793486202984
0.288000000000000089,-16.298407471683020731
0.289000000000000090,-17.253142671631245264
0.290000000000000091,-18.188423327520887085
0.291000000000000092,-19.104244479682233049
0.292000000000000093,-20.000609531066366742
0.293000000000000094,-20.877530436403809233
0.294000000000000095,-21.735027830054455933
0.295000000000000095,-22.573131098392796190
0.296000000000000096,-23.391878402353068367
0.297000000000000097,-24.191316655505325173
0.298000000000000098,-24.971501462748911138
0.299000000000000099,-25.732497024408321096
0.300000000000000100,-26.474376010198888309
0.301000000000000101,-27.197219407210052822
0.302000000000000102,-27.901116345727700718
0.303000000000000103,-28.586163906400134493
0.304000000000000103,-29.252466911935993465
0.305000000000000104,-29.900137706220881739
0.306000000000000105,-30.529295923447271832
0.307000000000000106,-31.140068249575229231
0.308000000000000107,-31.732588178179391036
0.309000000000000108,-32.306995762491936830
0.310000000000000109,-32.863437365223049369
0.311000000000000110,-33.402065407526833951
0.312000000000000111,-33.923038118288751264
0.313000000000000111,-34.426519284729849346
0.314000000000000112,-34.912678005163840567
0.315000000000000113,-35.381688444596299803
0.316000000000000114,-35.833729593725976770
0.317000000000000115,-36.268985031791260099
0.318000000000000116,-36.687642693603869759
0.319000000000000117,-37.089894641021636801
0.320000000000000118,-37.475936839034879711
0.321000000000000119,-37.845968936575090424
0.322000000000000119,-38.200194052097415920
0.323000000000000120,-38.538818563941518391
0.324000000000000121,-38.862051905437162702
0.325000000000000122,-39.170106364689097234
0.326000000000000123,-39.463196888951301844
0.327000000000000124,-39.741540893482408592
0.328000000000000125,-40.005358074760984266
0.329000000000000126,-40.254870227930254600
0.330000000000000127,-40.490301068337622326
0.331000000000000127,-40.711876057033066445
0.332000000000000128,-40.919822230091696724
0.333000000000000129,-41.114368031630483813
0.334000000000000130,-41.295743150394180532
0.335000000000000131,-41.464178359794289008
0.336000000000000132,-41.619905361291820611
0.337000000000000133,-41.763156631025694310
0.338000000000000134,-41.894165269598211410
0.339000000000000135,-42.013164854938686688
0.340000000000000135,-42.120389298178380955
0.341000000000000136,-42.216072702478967926
0.342000000000000137,-42.300449224767689316
0.343000000000000138,-42.373752940342015449
0.344000000000000139,-42.436217710316043394
0.345000000000000140,-42.488077051889703739
0.346000000000000141,-42.529564011429954462
0.347000000000000142,-42.560911040360366542
0.348000000000000143,-42.582349873862852974
0.349000000000000143,-42.594111412400621930
0.350000000000000144,-42.596425606077154669
0.351000000000000145,-42.589521341849994940
0.352000000000000146,-42.573626333622385687
0.353000000000000147,-42.548967015238076783
0.354000000000000148,-42.515768436407711306
0.355000000000000149,-42.474254161595737855
0.356000000000000150,-42.424646171898714897
0.357000000000000151,-42.367164769945198088
0.358000000000000151,-42.302028487848026828
0.359000000000000152,-42.229453998237943324
0.360000000000000153,-42.149656028407207486
0.361000000000000154,-42.062847277589199280
0.362000000000000155,-41.969238337398302008
0.363000000000000156,-41.869037615451574652
0.364000000000000157,-41.762451262190730006
0.365000000000000158,-41.649683100920256607
0.366000000000000159,-41.530934561073323152
0.367000000000000159,-41.406404614714048762
0.368000000000000160,-41.276289716280878395
0.369000000000000161,-41.140783745571674501
0.370000000000000162,-41.000077953967050348
0.371000000000000163,-40.854360913885138018
0.372000000000000164,-40.703818471455406325
0.373000000000000165,-40.548633702397047784
0.374000000000000166,-40.388986871081321794
0.375000000000000167,-40.225055392754669015
0.376000000000000167,-40.057013798894651302
0.377000000000000168,-39.885033705667588322
0.378000000000000169,-39.709283785451788162
0.379000000000000170,-39.529929741388187381
0.380000000000000171,-39.347134284915298963
0.381000000000000172,-39.161057116242872667
0.382000000000000173,-38.971854907714856608
0.383000000000000174,-38.779681290009911265
0.384000000000000175,-38.584686841123989609
0.385000000000000175,-38.387019078077400991
0.386000000000000176,-38.186822451286275282
0.387000000000000177,-37.984238341535274230
0.388000000000000178,-37.779405059487679353
0.389000000000000179,-37.572457847665219788
0.390000000000000180,-37.363528884829847243
0.391000000000000181,-37.152747292697213766
0.392000000000000182,-36.940239144910506752
0.393000000000000183,-36.726127478201966881
0.394000000000000183,-36.510532305668469633
0.395000000000000184,-36.293570632087011063
0.396000000000000185,-36.075356471194517383
0.397000000000000186,-35.856000864856795829
0.398000000000000187,-35.635611904050421117
0.399000000000000188,-35.414294751581699927
0.400000000000000189,-35.192151666466223503
0.401000000000000190,-34.969282029893285824
0.402000000000000191,-34.745782372699537177
0.403000000000000191,-34.521746404275987175
0.404000000000000192,-34.297265042834155224
0.405000000000000193,-34.072426446956718848
0.406000000000000194,-33.847316048359353147
0.407000000000000195,-33.622016585791378418
0.408000000000000196,-33.396608140003174015
0.409000000000000197,-33.171168169710099960
0.410000000000000198,-32.945771548483442359
0.411000000000000199,-32.720490602499900490
0.412000000000000199,-32.495395149082852981
0.413000000000000200,-32.270552535969763142
0.414000000000000201,-32.046027681241540108
0.415000000000000202,-31.821883113850880420
0.416000000000000203,-31.598179014688707156
0.417000000000000204,-31.374973258128715514
0.418000000000000205,-31.152321453992065869
0.419000000000000206,-30.930276989875785887
0.420000000000000207,-30.708891073789800430
0.421000000000000207,-30.488212777049938040
0.422000000000000208,-30.268289077374646467
0.423000000000000209,-30.049164902136546118
0.424000000000000210,-29.830883171719982272
0.425000000000000211,-29.613484842938635921
0.426000000000000212,-29.397008952468507204
0.427000000000000213,-29.181492660253034899
0.428000000000000214,-28.966971292839680530
0.429000000000000214,-28.753478386607817185
0.430000000000000215,-28.541045730850385098
0.431000000000000216,-28.329703410673374719
0.432000000000000217,-28.119479849677968986
0.433000000000000218,-27.910401852393000866
0.434000000000000219,-27.702494646426192304
0.435000000000000220,-27.495781924304573351
0.436000000000000221,-27.290285884975808983
0.437000000000000222,-27.086027274943905496
0.438000000000000222,-26.883025429014203667
0.439000000000000223,-26.681298310624079306
0.440000000000000224,-26.480862551737040178
0.441000000000000225,-26.281733492279403919
0.442000000000000226,-26.083925219100603243
0.443000000000000227,-25.887450604438328128
0.444000000000000228,-25.692321343872492889
0.445000000000000229,-25.498547993752172403
0.446000000000000230,-25.306140008081236203
0.447000000000000230,-25.115105774849983078
0.448000000000000231,-24.925452651800629411
0.449000000000000232,-24.737187001615964732
0.450000000000000233,-24.550314226521766869
0.451000000000000234,-24.364838802294041642
0.452000000000000235,-24.180764311663971000
0.453000000000000236,-23.998093477113449978
0.454000000000000237,-23.816828193056242213
0.455000000000000238,-23.636969557399392983
0.456000000000000238,-23.458517902481609951
0.457000000000000239,-23.281472825385193914
0.458000000000000240,-23.105833217619721864
0.459000000000000241,-22.931597294175613655
0.460000000000000242,-22.758762621947436600
0.461000000000000243,-22.587326147526390230
0.462000000000000244,-22.417284224363399403
0.463000000000000245,-22.248632639303203007
0.464000000000000246,-22.081366638492401222
0.465000000000000246,-21.915480952663251912
0.466000000000000247,-21.750969821796637405
0.467000000000000248,-21.587827019167640685
0.468000000000000249,-21.426045874778015587
0.469000000000000250,-21.265619298179860408
0.470000000000000251,-21.106539800695685472
0.471000000000000252,-20.948799517039972784
0.472000000000000253,-20.792390226348505422
0.473000000000000254,-20.637303372621040864
0.474000000000000254,-20.483530084584199216
0.475000000000000255,-20.331061194981042917
0.476000000000000256,-20.179887259294719826
0.477000000000000257,-20.029998573913278648
0.478000000000000258,-19.881385193743199125
0.479000000000000259,-19.734036949279698092
0.480000000000000260,-19.587943463141549216
0.481000000000000261,-19.443094166078612517
0.482000000000000262,-19.299478312460678353
0.483000000000000262,-19.157084995255903692
0.484000000000000263,-19.015903160507424019
0.485000000000000264,-18.875921621317118593
0.486000000000000265,-18.737129071345286491
0.487000000000000266,-18.599514097835037063
0.488000000000000267,-18.463065194170493299
0.489000000000000268,-18.327770771978102005
0.490000000000000269,-18.193619172779602167
0.491000000000000270,-18.060598679206538719
0.492000000000000270,-17.928697525784681233
0.493000000000000271,-17.797903909298199210
0.494000000000000272,-17.668205998742415375
0.495000000000000273,-17.539591944874199925
0.496000000000000274,-17.412049889369576761
0.497000000000000275,-17.285567973597082414
0.498000000000000276,-17.160134347016445133
0.499000000000000277,-17.035737175211288275
0.500000000000000222,-16.912364647564860576
0.501000000000000334,-16.790004984587881154
0.502000000000000224,-16.668646444907146531
0.503000000000000336,-16.548277331923593181
0.504000000000000226,-16.428886000148860802
0.505000000000000338,-16.310460861228342822
0.506000000000000227,-16.192990389659996708
0.507000000000000339,-16.076463128216442300
0.508000000000000229,-15.960867693079496377
0.509000000000000341,-15.846192778694526027
0.510000000000000231,-15.732427162353626926
0.511000000000000343,-15.619559708514524132
0.512000000000000233,-15.507579372864160661
0.513000000000000345,-15.396475206133654723
0.514000000000000234,-15.286236357673388397
0.515000000000000346,-15.176852078794436096
0.516000000000000236,-15.068311725884985464
0.517000000000000348,-14.960604763307964404
0.518000000000000238,-14.853720766087761262
0.519000000000000350,-14.747649422392447249
0.520000000000000240,-14.642380535818769971
0.521000000000000352,-14.537904027486458602
0.522000000000000242,-14.434209937948551783
0.523000000000000353,-14.331288428924036538
0.524000000000000243,-14.229129784859342323
0.525000000000000355,-14.127724414324765334
0.526000000000000245,-14.027062851252045661
0.527000000000000357,-13.927135756018733659
0.528000000000000247,-13.827933916385584112
0.529000000000000359,-13.729448248292248635
0.530000000000000249,-13.631669796517140725
0.531000000000000361,-13.534589735206605354
0.532000000000000250,-13.438199368279009960
0.533000000000000362,-13.342490129708536983
0.534000000000000252,-13.247453583694099422
0.535000000000000364,-13.153081424717893100
0.536000000000000254,-13.059365477498905861
0.537000000000000366,-12.966297696845245468
0.538000000000000256,-12.873870167410837340
0.539000000000000368,-12.782075103359847645
0.540000000000000258,-12.690904847944150191
0.541000000000000369,-12.600351872997022085
0.542000000000000259,-12.510408778348118375
0.543000000000000371,-12.421068291162766783
0.544000000000000261,-12.332323265210122898
0.545000000000000373,-12.244166680063466757
0.546000000000000263,-12.156591640236594998
0.547000000000000375,-12.069591374259314165
0.548000000000000265,-11.983159233696216717
0.549000000000000377,-11.897288692111127162
0.550000000000000266,-11.811973343981232887
0.551000000000000378,-11.727206903563372364
0.552000000000000268,-11.642983203715917995
0.553000000000000380,-11.559296194678807979
0.554000000000000270,-11.476139942814894468
0.555000000000000382,-11.393508629314849756
0.556000000000000272,-11.311396548868851042
0.557000000000000384,-11.229798108306834337
0.558000000000000274,-11.148707825210655287
0.559000000000000385,-11.068120326499487405
0.560000000000000275,-10.988030346991779496
0.561000000000000387,-10.908432727945085006
0.562000000000000277,-10.829322415576424277
0.563000000000000389,-10.750694459564963168
0.564000000000000279,-10.672544011539102371
0.565000000000000391,-10.594866323549698706
0.566000000000000281,-10.517656746531459433
0.567000000000000393,-10.440910728753873826
0.568000000000000282,-10.364623814263937973
0.569000000000000394,-10.288791641321521908
0.570000000000000284,-10.213409940829709655
0.571000000000000396,-10.138474534760828050
0.572000000000000286,-10.063981334580319071
0.573000000000000398,-9.989926339669025879
0.574000000000000288,-9.916305635745914060
0.575000000000000400,-9.843115393291920867
0.576000000000000290,-9.770351865976447669
0.577000000000000401,-9.698011389087351830
0.578000000000000291,-9.626090377965812905
0.579000000000000403,-9.554585326446716209
0.580000000000000293,-9.483492805305953510
0.581000000000000405,-9.412809460715086729
0.582000000000000295,-9.342532012704765521
0.583000000000000407,-9.272657253637191843
0.584000000000000297,-9.203182046688890949
0.585000000000000409,-9.134103324344156505
0.586000000000000298,-9.065418086900216110
0.587000000000000410,-8.997123400984346375
0.588000000000000300,-8.929216398084101058
0.589000000000000412,-8.861694273090641616
0.590000000000000302,-8.794554282856243077
0.591000000000000414,-8.727793744766140449
0.592000000000000304,-8.661410035325397772
0.593000000000000416,-8.595400588761011207
0.594000000000000306,-8.529762895640043752
0.595000000000000417,-8.464494501503704527
0.596000000000000307,-8.399593005518124045
0.597000000000000419,-8.335056059141889406
0.598000000000000309,-8.270881364810865222
0.599000000000000421,-8.207066674640255854
0.600000000000000311,-8.143609789144576894
0.601000000000000423,-8.080508555975280061
0.602000000000000313,-8.017760868676742092
0.603000000000000425,-7.955364665460210816
0.604000000000000314,-7.893317927996574390
0.605000000000000426,-7.831618680227267149
0.606000000000000316,-7.770264987194236639
0.607000000000000428,-7.709254953888347472
0.608000000000000318,-7.648586724116952951
0.609000000000000430,-7.588258479390034950
0.610000000000000320,-7.528268437825644810
0.611000000000000432,-7.468614853073963999
0.612000000000000322,-7.409296013260640912
0.613000000000000433,-7.350310239948899316
0.614000000000000323,-7.291655887120731094
0.615000000000000435,-7.233331340176913038
0.616000000000000325,-7.175335014956016444
0.617000000000000437,-7.117665356772103102
0.618000000000000327,-7.060320839471333265
0.619000000000000439,-7.003299964507055719
0.620000000000000329,-6.946601260033657965
0.621000000000000441,-6.890223280018770602
0.622000000000000330,-6.834164603373946711
0.623000000000000442,-6.778423833103457419
0.624000000000000332,-6.722999595471374157
0.625000000000000444,-6.667890539186491772
0.626000000000000334,-6.613095334605210596
0.627000000000000446,-6.558612672952028433
0.628000000000000336,-6.504441265557652230
0.629000000000000448,-6.450579843114374157
0.630000000000000338,-6.397027154948838223
0.631000000000000449,-6.343781968311611230
0.632000000000000339,-6.290843067683820067
0.633000000000000451,-6.238209254100302026
0.634000000000000341,-6.185879344489367604
0.635000000000000453,-6.133852171028740585
0.636000000000000343,-6.082126580517686065
0.637000000000000455,-6.030701433764943609
0.638000000000000345,-5.979575604992517057
0.639000000000000457,-5.928747981254681498
0.640000000000000346,-5.878217461872610627
0.641000000000000458,-5.827982957883751425
0.642000000000000348,-5.778043391506336945
0.643000000000000460,-5.728397695618304475
0.644000000000000350,-5.679044813250873069
0.645000000000000462,-5.629983697096117012
0.646000000000000352,-5.581213309028761671
0.647000000000000464,-5.532732619641490324
0.648000000000000353,-5.484540607794161637
0.649000000000000465,-5.436636260175960800
0.650000000000000355,-5.389018570881075831
0.651000000000000467,-5.341686540996924748
0.652000000000000357,-5.294639178205351016
0.653000000000000469,-5.247875496396048334
0.654000000000000359,-5.201394515292433240
0.655000000000000471,-5.155195260089340259
0.656000000000000361,-5.109276761102736764
