# Fe110_ETHANE-AC
# h[nm],U(h)[kJ/mol]
0.200000000000000011,114.770609715307003285
0.201000000000000012,106.803418672254196053
0.202000000000000013,102.810252803115787401
0.203000000000000014,100.597804116479707659
0.204000000000000015,98.939717622067846037
0.205000000000000016,97.219595071575213296
0.206000000000000016,95.188982497019651419
0.207000000000000017,92.807029055261352823
0.208000000000000018,90.137392137860942398
0.209000000000000019,87.284627233868008034
0.210000000000000020,84.357270214266534936
0.211000000000000021,81.448502720600203020
0.212000000000000022,78.628002007127150819
0.213000000000000023,75.940555509016036240
0.214000000000000024,73.408451489085592812
0.215000000000000024,71.035680432310257970
0.216000000000000025,68.812703704399510229
0.217000000000000026,66.721046679260197720
0.218000000000000027,64.737313456610166895
0.219000000000000028,62.836444591565452811
0.220000000000000029,60.994181497616260401
0.221000000000000030,59.188786116311462138
0.222000000000000031,57.402110176500784178
0.223000000000000032,55.620128002660386812
0.224000000000000032,53.833049752676416233
0.225000000000000033,52.035124777462939960
0.226000000000000034,50.224232065153508131
0.227000000000000035,48.401339540330198474
0.228000000000000036,46.569898338984323516
0.229000000000000037,44.735223313394826050
0.230000000000000038,42.903897643667654904
0.231000000000000039,41.083227883913856715
0.232000000000000040,39.280766147258617593
0.233000000000000040,37.503908376490322496
0.234000000000000041,35.759571605410684469
0.235000000000000042,34.053948590507154393
0.236000000000000043,32.392334965139681913
0.237000000000000044,30.779021921169618992
0.238000000000000045,29.217246150530172599
0.239000000000000046,27.709188195757501916
0.240000000000000047,26.256010300819610848
0.241000000000000048,24.857925182208987280
0.242000000000000048,23.514287738694868324
0.243000000000000049,22.223702491215469479
0.244000000000000050,20.984140416209783098
0.245000000000000051,19.793059747138190829
0.246000000000000052,18.647526225379696285
0.247000000000000053,17.544329150576718490
0.248000000000000054,16.480090389298752029
0.249000000000000055,15.451364235163740801
0.250000000000000056,14.454726665245416939
0.251000000000000056,13.486853103630668471
0.252000000000000057,12.544584284030866783
0.253000000000000058,11.624980202785781813
0.254000000000000059,10.725362476700505354
0.255000000000000060,9.843345673429892528
0.256000000000000061,8.976858372756742810
0.257000000000000062,8.124154852574056562
0.258000000000000063,7.283818381116621943
0.259000000000000064,6.454757144178968176
0.260000000000000064,5.636193849470755524
0.261000000000000065,4.827650036146160950
0.262000000000000066,4.028926081558604544
0.263000000000000067,3.240077844494698045
0.264000000000000068,2.461390818963652638
0.265000000000000069,1.693352598904497075
0.266000000000000070,0.936624375196588588
0.267000000000000071,0.192012104859626220
0.268000000000000071,-0.539562089427955138
0.269000000000000072,-1.257087811562180857
0.270000000000000073,-1.959493175272440935
0.271000000000000074,-2.645670150800801146
0.272000000000000075,-3.314498215641902501
0.273000000000000076,-3.964866112811259224
0.274000000000000077,-4.595691577200108568
0.275000000000000078,-5.205938941777835893
0.276000000000000079,-5.794634580722279438
0.277000000000000079,-6.360880186111598888
0.278000000000000080,-6.903863908805310423
0.279000000000000081,-7.422869422861968935
0.280000000000000082,-7.917282996610603973
0.281000000000000083,-8.386598672681746081
0.282000000000000084,-8.830421674293841505
0.283000000000000085,-9.248470166278220717
0.284000000000000086,-9.640575507104760078
0.285000000000000087,-10.006681132928720857
0.286000000000000087,-10.346840216791159506
0.287000000000000088,-10.661212245928911813
0.288000000000000089,-10.950058658020282110
0.289000000000000090,-11.213737673425358210
0.290000000000000091,-11.452698455361510099
0.291000000000000092,-11.667474723753743504
0.292000000000000093,-11.858677941451556848
0.293000000000000094,-12.026990183827349412
0.294000000000000095,-12.173156794655067614
0.295000000000000095,-12.297978922781229727
0.296000000000000096,-12.402306025589505012
0.297000000000000097,-12.487028416751623894
0.298000000000000098,-12.553069927358034619
0.299000000000000099,-12.601380741322490309
0.300000000000000100,-12.632930458028827303
0.301000000000000101,-12.648701427595380409
0.302000000000000102,-12.649682396920136185
0.303000000000000103,-12.636862497872344946
0.304000000000000103,-12.611225602638572951
0.305000000000000104,-12.573745065330259152
0.306000000000000105,-12.525378863522652395
0.307000000000000106,-12.467065148423094101
0.308000000000000107,-12.399718207857025831
0.309000000000000108,-12.324224842201827457
0.310000000000000109,-12.241441149780294850
0.311000000000000110,-12.152189715030042194
0.312000000000000111,-12.057257189974183831
0.313000000000000111,-11.957392257111139955
0.314000000000000112,-11.853303959795971068
0.315000000000000113,-11.745660384478131988
0.316000000000000114,-11.635087677768989778
0.317000000000000115,-11.522169380211213507
0.318000000000000116,-11.407446057789215388
0.319000000000000117,-11.291415211630972948
0.320000000000000118,-11.174531445984177580
0.321000000000000119,-11.057206874381790840
0.322000000000000119,-10.939811743922822629
0.323000000000000120,-10.822675257762272238
0.324000000000000121,-10.706086576211911066
0.325000000000000122,-10.590295977281680706
0.326000000000000123,-10.475516158023300051
0.327000000000000124,-10.361923658657305580
0.328000000000000125,-10.249660392158538968
0.329000000000000126,-10.138835262726946240
0.330000000000000127,-10.029525857370902742
0.331000000000000127,-9.921780195666277891
0.332000000000000128,-9.815618523615203372
0.333000000000000129,-9.711035138406643341
0.334000000000000130,-9.608000231765768007
0.335000000000000131,-9.506461740465502075
0.336000000000000132,-9.406347193452976541
0.337000000000000133,-9.307565545911911542
0.338000000000000134,-9.210008991432497183
0.339000000000000135,-9.113554744290851772
0.340000000000000135,-9.018066784644657830
0.341000000000000136,-8.923397560229094694
0.342000000000000137,-8.829389638884109104
0.343000000000000138,-8.735877306958570898
0.344000000000000139,-8.642688109317653300
0.345000000000000140,-8.549644327325847115
0.346000000000000141,-8.456564391787907198
0.347000000000000142,-8.363264228404302614
0.348000000000000143,-8.269558533835915881
0.349000000000000143,-8.175261980974248388
0.350000000000000144,-8.080190352480261851
0.351000000000000145,-7.984161602085937837
0.352000000000000146,-7.886996843549949787
0.353000000000000147,-7.788521267522462210
0.354000000000000148,-7.688564986905598531
0.355000000000000149,-7.586963811596182161
0.356000000000000150,-7.483559953767842998
0.357000000000000151,-7.378202665090922707
0.358000000000000151,-7.270748807503018440
0.359000000000000152,-7.161063359330904987
0.360000000000000153,-7.049019858728432730
0.361000000000000154,-6.934500786535039651
0.362000000000000155,-6.817397890777987080
0.363000000000000156,-6.697612455139411836
0.364000000000000157,-6.575055513787811279
0.365000000000000158,-6.449648015034907367
0.366000000000000159,-6.321320936322890383
0.367000000000000159,-6.190015353076259608
0.368000000000000160,-6.055682463967956508
0.369000000000000161,-5.918283575151235709
0.370000000000000162,-5.777790045999543267
0.371000000000000163,-5.634183198876836052
0.372000000000000164,-5.487454195430418125
0.373000000000000165,-5.337603881860921717
0.374000000000000166,-5.184642605577378660
0.375000000000000167,-5.028590005593125412
0.376000000000000167,-4.869474778959352435
0.377000000000000168,-4.707334425469321459
0.378000000000000169,-4.542214972798062078
0.379000000000000170,-4.374170684170608503
0.380000000000000171,-4.203263750576257785
0.381000000000000172,-4.029563969469581508
0.382000000000000173,-3.853148411818692942
0.383000000000000174,-3.674101079281184123
0.384000000000000175,-3.492512553205668890
0.385000000000000175,-3.308479637075173230
0.386000000000000176,-3.122104993925723271
0.387000000000000177,-2.933496780191634734
0.388000000000000178,-2.742768277347336525
0.389000000000000179,-2.550037522634675646
0.390000000000000180,-2.355426940085386445
0.391000000000000181,-2.159062972969604477
0.392000000000000182,-1.961075718725454831
0.393000000000000183,-1.761598567348757083
0.394000000000000183,-1.560767844149776096
0.395000000000000184,-1.358722457712479237
0.396000000000000185,-1.155603553822729612
0.397000000000000186,-0.951554176065848467
0.398000000000000187,-0.746718933728993894
0.399000000000000188,-0.541243677582171401
0.400000000000000189,-0.335275184052493846
0.401000000000000190,-0.128960848248367232
0.402000000000000191,0.077551613763035918
0.403000000000000191,0.284114453075052620
0.404000000000000192,0.490580166156272146
0.405000000000000193,0.696801762907122368
0.406000000000000194,0.902633024349311142
0.407000000000000195,1.107928749781242672
0.408000000000000196,1.312544993272924954
0.409000000000000197,1.516339289411133384
0.410000000000000198,1.719170868240999628
0.411000000000000199,1.920900859383528614
0.412000000000000199,2.121392485339375078
0.413000000000000200,2.320511244017860797
0.414000000000000201,2.518125080557325646
0.415000000000000202,2.714104548527671579
0.416000000000000203,2.908322960628395570
0.417000000000000204,3.100656529017343566
0.418000000000000205,3.290984495423689538
0.419000000000000206,3.479189251216870282
0.420000000000000207,3.665156447619128954
0.421000000000000207,3.848775096263030271
0.422000000000000208,4.029937660309149017
0.423000000000000209,4.208540136349624206
0.424000000000000210,4.384482127334010215
0.425000000000000211,4.557666906762294801
0.426000000000000212,4.728001474397620640
0.427000000000000213,4.895396603757679266
0.428000000000000214,5.059766881648849690
0.429000000000000214,5.221030740011783244
0.430000000000000215,5.379110480350145274
0.431000000000000216,5.533932291016514959
0.432000000000000217,5.685426257631523761
0.433000000000000218,5.833526366912343164
0.434000000000000219,5.978170504187163559
0.435000000000000220,6.119300444871315747
0.436000000000000221,6.256861840179472445
0.437000000000000222,6.390804197346421134
0.438000000000000222,6.521080854626324808
0.439000000000000223,6.647648951337484569
0.440000000000000224,6.770469393216205667
0.441000000000000225,6.889506813339511204
0.442000000000000226,7.004729528871884270
0.443000000000000227,7.116109493887259774
0.444000000000000228,7.223622248511993860
0.445000000000000229,7.327246864629726630
0.446000000000000230,7.426965888383418424
0.447000000000000230,7.522765279704501040
0.448000000000000231,7.614634349092968435
0.449000000000000232,7.702565691866449349
0.450000000000000233,7.786555120090264737
0.451000000000000234,7.866601592394014020
0.452000000000000235,7.942707141874281618
0.453000000000000236,8.014876802276495127
0.454000000000000237,8.083118532642526333
0.455000000000000238,8.147443140604487155
0.456000000000000238,8.207864204498328320
0.457000000000000239,8.264397994464927066
0.458000000000000240,8.317063392699376223
0.459000000000000241,8.365881813003415601
0.460000000000000242,8.410877119789081036
0.461000000000000243,8.452075546675837714
0.462000000000000244,8.489505614816904355
0.463000000000000245,8.523198051084706961
0.464000000000000246,8.553185706239059272
0.465000000000000246,8.579503473195941865
0.466000000000000247,8.602188205508841889
0.467000000000000248,8.621278636168996812
0.468000000000000249,8.636815296825073318
0.469000000000000250,8.648840437517584689
0.470000000000000251,8.657397947017756223
0.471000000000000252,8.662533273855581584
0.472000000000000253,8.664293348116348881
0.473000000000000254,8.662726504080321632
0.474000000000000254,8.657882403775200686
0.475000000000000255,8.649811961506298275
0.476000000000000256,8.638567269424951789
0.477000000000000257,8.624201524191111190
0.478000000000000258,8.606768954781792047
0.479000000000000259,8.586324751493146223
0.480000000000000260,8.562924996179511083
0.481000000000000261,8.536626593769366167
0.482000000000000262,8.507487205093985594
0.483000000000000262,8.475565181061440967
0.484000000000000263,8.440919498204653593
0.485000000000000264,8.403609695629416620
0.486000000000000265,8.363695813384540045
0.487000000000000266,8.321238332273765081
0.488000000000000267,8.276298115125864996
0.489000000000000268,8.228936349536475348
0.490000000000000269,8.179214492092880207
0.491000000000000270,8.127194214090030400
0.492000000000000270,8.072937348743895569
0.493000000000000271,8.016505839905793351
0.494000000000000272,7.957961692279363675
0.495000000000000273,7.897366923139263584
0.496000000000000274,7.834783515549396782
0.497000000000000275,7.770273373076021173
0.498000000000000276,7.703898275989418565
0.499000000000000277,7.635719838946572580
0.500000000000000222,7.565799470144954242
0.501000000000000334,7.494198331936869906
0.502000000000000224,7.420977302891756722
0.503000000000000336,7.346196941292879146
0.504000000000000226,7.269917450053689834
0.505000000000000338,7.192198643037587935
0.506000000000000227,7.113099912764413446
0.507000000000000339,7.032680199485281669
0.508000000000000229,6.950997961607288111
0.509000000000000341,6.868111147447801379
0.510000000000000231,6.784077168298506599
0.511000000000000343,6.698952872777328871
0.512000000000000233,6.612794522447143386
0.513000000000000345,6.525657768678165382
0.514000000000000234,6.437597630731846543
0.515000000000000346,6.348668475042284598
0.516000000000000236,6.258923995672089013
0.517000000000000348,6.168417195917913709
0.518000000000000238,6.077200371042073890
0.519000000000000350,5.985325092104792688
0.520000000000000240,5.892842190873084363
0.521000000000000352,5.799801745780564843
0.522000000000000242,5.706253068913778925
0.523000000000000353,5.612244693999099532
0.524000000000000243,5.517824365365801675
0.525000000000000355,5.423039027859307915
0.526000000000000245,5.327934817680073820
0.527000000000000357,5.232557054122286999
0.528000000000000247,5.136950232187962762
0.529000000000000359,5.041158016050910184
0.530000000000000249,4.945223233346157876
0.531000000000000361,4.849187870259826560
0.532000000000000250,4.753093067395345983
0.533000000000000362,4.656979116391225304
0.534000000000000252,4.560885457267039200
0.535000000000000364,4.464850676472862823
0.536000000000000254,4.368912505619723774
0.537000000000000366,4.273107820866671069
0.538000000000000256,4.177472642942478664
0.539000000000000368,4.082042137778456592
0.540000000000000258,3.986850617730794077
0.541000000000000369,3.891931543369548940
0.542000000000000259,3.797317525813551420
0.543000000000000371,3.703040329588953572
0.544000000000000261,3.609130875991122256
0.545000000000000373,3.515619246928823660
0.546000000000000263,3.422534689230838811
0.547000000000000375,3.329905619394519789
0.548000000000000265,3.237759628757683750
0.549000000000000377,3.146123489073714197
0.550000000000000266,3.055023158472134348
0.551000000000000378,2.964483787785467506
0.552000000000000268,2.874529727225142661
0.553000000000000380,2.785184533388375350
0.554000000000000270,2.696470976579338874
0.555000000000000382,2.608411048427413004
0.556000000000000272,2.521025969786673038
0.557000000000000384,2.434336198900195924
0.558000000000000274,2.348361439814013796
0.559000000000000385,2.263120651025241514
0.560000000000000275,2.178632054349937786
0.561000000000000387,2.094913143995944527
0.562000000000000277,2.011980695827183752
0.563000000000000389,1.929850776805273949
0.564000000000000279,1.848538754595803635
0.565000000000000391,1.768059307325877016
0.566000000000000281,1.688426433481010180
0.567000000000000393,1.609653461928737483
0.568000000000000282,1.531753062057726655
0.569000000000000394,1.454737254020482373
0.570000000000000284,1.378617419069302352
0.571000000000000396,1.303404309974018682
0.572000000000000286,1.229108061512018901
0.573000000000000398,1.155738201019912870
0.574000000000000288,1.083303658997749164
0.575000000000000400,1.011812779755963065
0.576000000000000290,0.941273332096662307
0.577000000000000401,0.871692520019962891
0.578000000000000291,0.803076993447618626
0.579000000000000403,0.735432858955462176
0.580000000000000293,0.668765690507304722
0.581000000000000405,0.603080540182406422
0.582000000000000295,0.538381948889994244
0.583000000000000407,0.474673957063255991
0.584000000000000297,0.411960115326953702
0.585000000000000409,0.350243495131668692
0.586000000000000298,0.289526699349311745
0.587000000000000410,0.229811872823460606
0.588000000000000300,0.171100712869662025
0.589000000000000412,0.113394479719798699
0.590000000000000302,0.056694006906077954
0.591000000000000414,0.000999711579347118
0.592000000000000304,-0.053688395242403188
0.593000000000000416,-0.107370698499992812
0.594000000000000306,-0.160047968997327233
0.595000000000000417,-0.211721353388148958
0.596000000000000307,-0.262392364248611565
0.597000000000000419,-0.312062870239520618
0.598000000000000309,-0.360735086361287371
0.599000000000000421,-0.408411564304730301
0.600000000000000311,-0.455095182900684403
0.601000000000000423,-0.500789138671189238
0.602000000000000313,-0.545496936484524797
0.603000000000000425,-0.589222380316967942
0.604000000000000314,-0.631969564122886074
0.605000000000000426,-0.673742862815799759
0.606000000000000316,-0.714546923361812136
0.607000000000000428,-0.754386655987513977
0.608000000000000318,-0.793267225503742623
0.609000000000000430,-0.831194042746807860
0.610000000000000320,-0.868172756138292812
0.611000000000000432,-0.904209243364929138
0.612000000000000322,-0.939309603179250829
0.613000000000000433,-0.973480147322269951
0.614000000000000323,-1.006727392568808055
0.615000000000000435,-1.039058052896295603
0.616000000000000325,-1.070479031777464618
0.617000000000000437,-1.100997414597716162
0.618000000000000327,-1.130620461197202609
0.619000000000000439,-1.159355598538186927
0.620000000000000329,-1.187210413497716832
0.621000000000000441,-1.214192645785757030
0.622000000000000330,-1.240310180988796640
0.623000000000000442,-1.265571043738909163
0.624000000000000332,-1.289983391007929470
0.625000000000000444,-1.313555505526815104
0.626000000000000334,-1.336295789329576822
0.627000000000000446,-1.358212757421652039
0.628000000000000336,-1.379315031572119210
0.629000000000000448,-1.399611334229357906
0.630000000000000338,-1.419110482559446940
0.631000000000000449,-1.437821382606886633
0.632000000000000339,-1.455753023576740413
0.633000000000000451,-1.472914472237609962
0.634000000000000341,-1.489314867444559320
0.635000000000000453,-1.504963414781313347
0.636000000000000343,-1.519869381320581692
0.637000000000000455,-1.534042090501928968
0.638000000000000345,-1.547490917125875276
0.639000000000000457,-1.560225282463541197
0.640000000000000346,-1.572254649480558708
0.641000000000000458,-1.583588518174356086
0.642000000000000348,-1.594236421023570882
0.643000000000000460,-1.604207918548586465
0.644000000000000350,-1.613512594981923343
0.645000000000000462,-1.622160054047386835
0.646000000000000352,-1.630159914846677882
0.647000000000000464,-1.637521807852352129
0.648000000000000353,-1.644255371005725053
0.649000000000000465,-1.650370245918595158
0.650000000000000355,-1.655876074177398793
0.651000000000000467,-1.660782493748521160
0.652000000000000357,-1.665099135483515624
0.653000000000000469,-1.668835619722717656
0.654000000000000359,-1.672001552996162044
0.655000000000000471,-1.674606524820235975
0.656000000000000361,-1.676660104588803435
0.657000000000000473,-1.678171838557442230
0.658000000000000362,-1.679151246919371676
0.659000000000000474,-1.679607820971739773
0.660000000000000364,-1.679551020370826819
0.661000000000000476,-1.678990270474856050
0.662000000000000366,-1.677934959772954482
0.663000000000000478,-1.676394437398890158
0.664000000000000368,-1.674378010728231114
0.665000000000000480,-1.671894943057505190
0.666000000000000369,-1.668954451363962477
