# Fe110_CS-3-AC
# h[nm],U(h)[kJ/mol]
0.200000000000000011,100.788165421477899031
0.201000000000000012,93.431345785140948124
0.202000000000000013,89.657342204734746360
0.203000000000000014,87.486032879003374774
0.204000000000000015,85.805655628384272404
0.205000000000000016,84.055680795867999677
0.206000000000000016,82.010415050546441762
0.207000000000000017,79.634590834021111050
0.208000000000000018,76.989749317199681400
0.209000000000000019,74.175915422519480558
0.210000000000000020,71.297329093283281054
0.211000000000000021,68.444175965551636409
0.212000000000000022,65.684614134757723036
0.213000000000000023,63.063122916559827047
0.214000000000000024,60.602458765234487714
0.215000000000000024,58.307410973466822668
0.216000000000000025,56.169195517475600354
0.217000000000000026,54.169777846383269093
0.218000000000000027,52.285726271362989337
0.219000000000000028,50.491405799094067675
0.220000000000000029,48.761456876039986241
0.221000000000000030,47.072586183920648750
0.222000000000000031,45.404743288769914500
0.223000000000000032,43.741779236362333450
0.224000000000000032,42.071689515058992015
0.225000000000000033,40.386540167940651713
0.226000000000000034,38.682166431843810983
0.227000000000000035,36.957720994662700775
0.228000000000000036,35.215135715452490217
0.229000000000000037,33.458547673248069998
0.230000000000000038,31.693728437281698973
0.231000000000000039,29.927544878167708475
0.232000000000000040,28.167470828617080514
0.233000000000000040,26.421161462453262914
0.234000000000000041,24.696096305752526234
0.235000000000000042,22.999292182585993061
0.236000000000000043,21.337083962134101967
0.237000000000000044,19.714968538190589697
0.238000000000000045,18.137505865164101237
0.239000000000000046,16.608269937648362458
0.240000000000000047,15.129842190747728736
0.241000000000000048,13.703839791000802961
0.242000000000000048,12.330971576644438770
0.243000000000000049,11.011114902383789982
0.244000000000000050,9.743407275273401780
0.245000000000000051,8.526347376748436346
0.246000000000000052,7.357900805980375658
0.247000000000000053,6.235606617120749817
0.248000000000000054,5.156681432371098772
0.249000000000000055,4.118118576466563319
0.250000000000000056,3.116780284517554289
0.251000000000000056,2.149481577554614553
0.252000000000000057,1.213064875713333990
0.253000000000000058,0.304464827841256391
0.254000000000000059,-0.579236819398645020
0.255000000000000060,-1.440766206392297022
0.256000000000000061,-2.282621865525472415
0.257000000000000062,-3.107048235785666357
0.258000000000000063,-3.916017545213027695
0.259000000000000064,-4.711219327573323845
0.260000000000000064,-5.494056781836722969
0.261000000000000065,-6.265649154052853831
0.262000000000000066,-7.026839316137975189
0.263000000000000067,-7.778205730459134770
0.264000000000000068,-8.520078018888495919
0.265000000000000069,-9.252555396627210271
0.266000000000000070,-9.975527281424573900
0.267000000000000071,-10.688695445139254403
0.268000000000000071,-11.391597134592457152
0.269000000000000072,-12.083628650416775585
0.270000000000000073,-12.764068934510206077
0.271000000000000074,-13.432102777472962885
0.272000000000000075,-14.086843316018089922
0.273000000000000076,-14.727353546022538211
0.274000000000000077,-15.352666629055374159
0.275000000000000078,-15.961804818484736757
0.276000000000000079,-16.553796875384978904
0.277000000000000079,-17.127693884320343898
0.278000000000000080,-17.682583414655148601
0.279000000000000081,-18.217602004405364369
0.280000000000000082,-18.731945970933395529
0.281000000000000083,-19.224880576184904868
0.282000000000000084,-19.695747593895230665
0.283000000000000085,-20.143971342502560162
0.284000000000000086,-20.569063260662080239
0.285000000000000087,-20.970625112532189860
0.286000000000000087,-21.348350917678942551
0.287000000000000088,-21.702027705790555956
0.288000000000000089,-22.031535199674983971
0.289000000000000090,-22.336844531487869858
0.290000000000000091,-22.618016097043842194
0.291000000000000092,-22.875196651633675771
0.292000000000000093,-23.108615748208677587
0.293000000000000094,-23.318581615302022669
0.294000000000000095,-23.505476567808013755
0.295000000000000095,-23.669752038899417812
0.296000000000000096,-23.811923316071645473
0.297000000000000097,-23.932564058691554010
0.298000000000000098,-24.032300668610865557
0.299000000000000099,-24.111806579479818424
0.300000000000000100,-24.171796524450648747
0.301000000000000101,-24.213020836067620678
0.302000000000000102,-24.236259826361763459
0.303000000000000103,-24.242318289556994415
0.304000000000000103,-24.232020164389894035
0.305000000000000104,-24.206203387884649203
0.306000000000000105,-24.165714967530398383
0.307000000000000106,-24.111406294200953937
0.308000000000000107,-24.044128713849620027
0.309000000000000108,-23.964729372011625230
0.310000000000000109,-23.874047341456719806
0.311000000000000110,-23.772910039954723516
0.312000000000000111,-23.662129942042078312
0.313000000000000111,-23.542501585901778327
0.314000000000000112,-23.414798873982743288
0.315000000000000113,-23.279772663776707731
0.316000000000000114,-23.138148643229605739
0.317000000000000115,-22.990625483574653742
0.318000000000000116,-22.837873260924048679
0.319000000000000117,-22.680532136728622561
0.320000000000000118,-22.519211286195545796
0.321000000000000119,-22.354488062928474790
0.322000000000000119,-22.186907387406272107
0.323000000000000120,-22.016981346431862221
0.324000000000000121,-21.845188990346294133
0.325000000000000122,-21.671976314601671731
0.326000000000000123,-21.497756412205937693
0.327000000000000124,-21.322909783579696352
0.328000000000000125,-21.147784790489151163
0.329000000000000126,-20.972698240926352042
0.330000000000000127,-20.797936092088441740
0.331000000000000127,-20.623754258952196494
0.332000000000000128,-20.450379516336660402
0.333000000000000129,-20.278010482789177615
0.334000000000000130,-20.106818675108208083
0.335000000000000131,-19.936949622824801764
0.336000000000000132,-19.768524032493306919
0.337000000000000133,-19.601638992189101884
0.338000000000000134,-19.436369207166642070
0.339000000000000135,-19.272768258193842428
0.340000000000000135,-19.110869874641132071
0.341000000000000136,-18.950689214963965412
0.342000000000000137,-18.792224147770699716
0.343000000000000138,-18.635456527211935907
0.344000000000000139,-18.480353456959001335
0.345000000000000140,-18.326868537556997296
0.346000000000000141,-18.174943092438450520
0.347000000000000142,-18.024507368367181925
0.348000000000000143,-17.875481706546118232
0.349000000000000143,-17.727777681066530846
0.350000000000000144,-17.581299201799552634
0.351000000000000145,-17.435943579232429101
0.352000000000000146,-17.291602549132086608
0.353000000000000147,-17.148163255276710260
0.354000000000000148,-17.005509188832480305
0.355000000000000149,-16.863521083267059453
0.356000000000000150,-16.722077763985023324
0.357000000000000151,-16.581056952142343874
0.358000000000000151,-16.440336022348894573
0.359000000000000152,-16.299792714199547561
0.360000000000000153,-16.159305797786881698
0.361000000000000154,-16.018755693541898211
0.362000000000000155,-15.878025046924957309
0.363000000000000156,-15.736999258647369260
0.364000000000000157,-15.595566971245759191
0.365000000000000158,-15.453620512958044841
0.366000000000000159,-15.311056299960418059
0.367000000000000159,-15.167775198122242841
0.368000000000000160,-15.023682845519818585
0.369000000000000161,-14.878689937020842748
0.370000000000000162,-14.732712472311266794
0.371000000000000163,-14.585671968785138830
0.372000000000000164,-14.437495640755852122
0.373000000000000165,-14.288116546476908653
0.374000000000000166,-14.137473704479969427
0.375000000000000167,-13.985512180750351519
0.376000000000000167,-13.832183148264798334
0.377000000000000168,-13.677443920414299683
0.378000000000000169,-13.521257959826192163
0.379000000000000170,-13.363594864086627112
0.380000000000000171,-13.204430329844541347
0.381000000000000172,-13.043746096755977959
0.382000000000000173,-12.881529872699108097
0.383000000000000174,-12.717775241660216778
0.384000000000000175,-12.552481555656068934
0.385000000000000175,-12.385653812021686804
0.386000000000000176,-12.217302517353294533
0.387000000000000177,-12.047443539355013442
0.388000000000000178,-11.876097947795440035
0.389000000000000179,-11.703291845735918741
0.390000000000000180,-11.529056192147663751
0.391000000000000181,-11.353426616988750553
0.392000000000000182,-11.176443229766295673
0.393000000000000183,-10.998150422562011030
0.394000000000000183,-10.818596668453290377
0.395000000000000184,-10.637834316215379005
0.396000000000000185,-10.455919382143816776
0.397000000000000186,-10.272911339791201968
0.398000000000000187,-10.088872908366724346
0.399000000000000188,-9.903869840502807165
0.400000000000000189,-9.717970710049810279
0.401000000000000190,-9.531246700516611270
0.402000000000000191,-9.343771394734130098
0.403000000000000191,-9.155620566277400840
0.404000000000000192,-8.966871973143124563
0.405000000000000193,-8.777605154141086885
0.406000000000000194,-8.587901228420951938
0.407000000000000195,-8.397842698520438631
0.408000000000000196,-8.207513257286072061
0.409000000000000197,-8.016997598985073026
0.410000000000000198,-7.826381234895002592
0.411000000000000199,-7.635750313627289287
0.412000000000000199,-7.445191446411699943
0.413000000000000200,-7.254791537541301238
0.414000000000000201,-7.064637620150658215
0.415000000000000202,-6.874816697474964045
0.416000000000000203,-6.685415589714291507
0.417000000000000204,-6.496520786603900532
0.418000000000000205,-6.308218305770894929
0.419000000000000206,-6.120593556936993807
0.420000000000000207,-5.933731212008124700
0.421000000000000207,-5.747715081074423082
0.422000000000000208,-5.562627994326611258
0.423000000000000209,-5.378551689880185727
0.424000000000000210,-5.195566707483602720
0.425000000000000211,-5.013752288073575869
0.426000000000000212,-4.833186279128060647
0.427000000000000213,-4.653945045755940590
0.428000000000000214,-4.476103387452016413
0.429000000000000214,-4.299734460435945316
0.430000000000000215,-4.124909705485093170
0.431000000000000216,-3.951698781163479168
0.432000000000000217,-3.780169502341054422
0.433000000000000218,-3.610387783891843672
0.434000000000000219,-3.442417589453129700
0.435000000000000220,-3.276320885123018112
0.436000000000000221,-3.112157597969047007
0.437000000000000222,-2.949985579216741538
0.438000000000000222,-2.789860571983736381
0.439000000000000223,-2.631836183422238573
0.440000000000000224,-2.475963861130345389
0.441000000000000225,-2.322292873690968484
0.442000000000000226,-2.170870295196063893
0.443000000000000227,-2.021740993612406889
0.444000000000000228,-1.874947622845243078
0.445000000000000229,-1.730530618355668127
0.446000000000000230,-1.588528196187930508
0.447000000000000230,-1.448976355263393190
0.448000000000000231,-1.311908882798699327
0.449000000000000232,-1.177357362706820565
0.450000000000000233,-1.045351186841049884
0.451000000000000234,-0.915917568943566351
0.452000000000000235,-0.789081561162088829
0.453000000000000236,-0.664866072999945601
0.454000000000000237,-0.543291892567451362
0.455000000000000238,-0.424377710004321618
0.456000000000000238,-0.308140142945875439
0.457000000000000239,-0.194593763907818906
0.458000000000000240,-0.083751129467798530
0.459000000000000241,0.024377188876051958
0.460000000000000242,0.129782572285615988
0.461000000000000243,0.232458320716173172
0.462000000000000244,0.332399617712768269
0.463000000000000245,0.429603493977223638
0.464000000000000246,0.524068789809770341
0.465000000000000246,0.615796116526397874
0.466000000000000247,0.704787816949880130
0.467000000000000248,0.791047925069122138
0.468000000000000249,0.874582124958197094
0.469000000000000250,0.955397709043539045
0.470000000000000251,1.033503535804224160
0.471000000000000252,1.108909986987449914
0.472000000000000253,1.181628924417816418
0.473000000000000254,1.251673646476206825
0.474000000000000254,1.319058844320822654
0.475000000000000255,1.383800557919848462
0.476000000000000256,1.445916131962389661
0.477000000000000257,1.505424171711073456
0.478000000000000258,1.562344498857116237
0.479000000000000259,1.616698107435544429
0.480000000000000260,1.668507119855529908
0.481000000000000261,1.717794743098140176
0.482000000000000262,1.764585225130840929
0.483000000000000262,1.808903811585818699
0.484000000000000263,1.850776702746246727
0.485000000000000264,1.890231010882438500
0.486000000000000265,1.927294717977038330
0.487000000000000266,1.961996633876328389
0.488000000000000267,1.994366354902280092
0.489000000000000268,2.024434222957562035
0.490000000000000269,2.052231285153928386
0.491000000000000270,2.077789253991803697
0.492000000000000270,2.101140468117276949
0.493000000000000271,2.122317853680343980
0.494000000000000272,2.141354886316653161
0.495000000000000273,2.158285553772852694
0.496000000000000274,2.173144319194041607
0.497000000000000275,2.185966085090103483
0.498000000000000276,2.196786157995799904
0.499000000000000277,2.205640213838290009
0.500000000000000222,2.212564264023771710
0.501000000000000334,2.217594622253881820
0.502000000000000224,2.220767872080659622
0.503000000000000336,2.222120835207939571
0.504000000000000226,2.221690540545343318
0.505000000000000338,2.219514194020136166
0.506000000000000227,2.215629149150712518
0.507000000000000339,2.210072878384683914
0.508000000000000229,2.202882945203152865
0.509000000000000341,2.194096976991860792
0.510000000000000231,2.183752638678996494
0.511000000000000343,2.171887607138360377
0.512000000000000233,2.158539546355894512
0.513000000000000345,2.143746083356514287
0.514000000000000234,2.127544784887620999
0.515000000000000346,2.109973134854820742
0.516000000000000236,2.091068512504722587
0.517000000000000348,2.070868171348871911
0.518000000000000238,2.049409218822648704
0.519000000000000350,2.026728596671806937
0.520000000000000240,2.002863062059416333
0.521000000000000352,1.977849169384908290
0.522000000000000242,1.951723252806954578
0.523000000000000353,1.924521409460949073
0.524000000000000243,1.896279483362055540
0.525000000000000355,1.867033049983854553
0.526000000000000245,1.836817401502710556
0.527000000000000357,1.805667532697363242
0.528000000000000247,1.773618127493224339
0.529000000000000359,1.740703546140405011
0.530000000000000249,1.706957813014395198
0.531000000000000361,1.672414605028023527
0.532000000000000250,1.637107240643295825
0.533000000000000362,1.601068669471281014
0.534000000000000252,1.564331462448550258
0.535000000000000364,1.526927802577812132
0.536000000000000254,1.488889476221312069
0.537000000000000366,1.450247864934365749
0.538000000000000256,1.411033937827370632
0.539000000000000368,1.371278244443761896
0.540000000000000258,1.331010908142036708
0.541000000000000369,1.290261619969328200
0.542000000000000259,1.249059633014721227
0.543000000000000371,1.207433757229765536
0.544000000000000261,1.165412354704326248
0.545000000000000373,1.123023335385543664
0.546000000000000263,1.080294153228030130
0.547000000000000375,1.037251802763034858
0.548000000000000265,0.993922816075194504
0.549000000000000377,0.950333260174512473
0.550000000000000266,0.906508734752445533
0.551000000000000378,0.862474370310007288
0.552000000000000268,0.818254826646837685
0.553000000000000380,0.773874291699602090
0.554000000000000270,0.729356480718738931
0.555000000000000382,0.684724635772239076
0.556000000000000272,0.640001525565786489
0.557000000000000384,0.595209445568247175
0.558000000000000274,0.550370218432012726
0.559000000000000385,0.505505194697628446
0.560000000000000275,0.460635253772489039
0.561000000000000387,0.415780805173287527
0.562000000000000277,0.370961790022470483
0.563000000000000389,0.326197682788578802
0.564000000000000279,0.281507493261132891
0.565000000000000391,0.236909768750299593
0.566000000000000281,0.192422596502367788
0.567000000000000393,0.148063606321558433
0.568000000000000282,0.103849973389580616
0.569000000000000394,0.059798421273842564
0.570000000000000284,0.015925225116139800
0.571000000000000396,-0.027753785007062215
0.572000000000000286,-0.071223220560476891
0.573000000000000398,-0.114468130870379881
0.574000000000000288,-0.157473999297078754
0.575000000000000400,-0.200226739267463649
0.576000000000000290,-0.242712690174703122
0.577000000000000401,-0.284918613152847722
0.578000000000000291,-0.326831686733077720
0.579000000000000403,-0.368439502388790141
0.580000000000000293,-0.409730059976108507
0.581000000000000405,-0.450691763076687124
0.582000000000000295,-0.491313414248779445
0.583000000000000407,-0.531584210193359885
0.584000000000000297,-0.571493736840835931
0.585000000000000409,-0.611031964364753044
0.586000000000000298,-0.650189242127739875
0.587000000000000410,-0.688956293565759159
0.588000000000000300,-0.727324211015587863
0.589000000000000412,-0.765284450491217738
0.590000000000000302,-0.802828826413863772
0.591000000000000414,-0.839949506300869508
0.592000000000000304,-0.876639005417959027
0.593000000000000416,-0.912890181399722556
0.594000000000000306,-0.948696228842609512
0.595000000000000417,-0.984050673874940052
0.596000000000000307,-1.018947368707861179
0.597000000000000419,-1.053380486171575647
0.598000000000000309,-1.087344514240545568
0.599000000000000421,-1.120834250551434597
0.600000000000000311,-1.153844796917513182
0.601000000000000423,-1.186371553842988202
0.602000000000000313,-1.218410215040471201
0.603000000000000425,-1.249956761955106632
0.604000000000000314,-1.281007458298134560
0.605000000000000426,-1.311558844593198048
0.606000000000000316,-1.341607732737977177
0.607000000000000428,-1.371151200584110441
0.608000000000000318,-1.400186586537915945
0.609000000000000430,-1.428711484184547853
0.610000000000000320,-1.456723736937808322
0.611000000000000432,-1.484221432718220601
0.612000000000000322,-1.511202898661232696
0.613000000000000433,-1.537666695857936361
0.614000000000000323,-1.563611614130133276
0.615000000000000435,-1.589036666841762147
0.616000000000000325,-1.613941085748351822
0.617000000000000437,-1.638324315886453775
0.618000000000000327,-1.662186010504426381
0.619000000000000439,-1.685526026036324510
0.620000000000000329,-1.708344417120231329
0.621000000000000441,-1.730641431662456764
0.622000000000000330,-1.752417505948889342
0.623000000000000442,-1.773673259804769531
0.624000000000000332,-1.794409491803872880
0.625000000000000444,-1.814627174528437692
0.626000000000000334,-1.834327449880532201
0.627000000000000446,-1.853511624446059880
0.628000000000000336,-1.872181164912077422
0.629000000000000448,-1.890337693538347796
0.630000000000000338,-1.907982983683725653
0.631000000000000449,-1.925118955388252839
0.632000000000000339,-1.941747671011357479
0.633000000000000451,-1.957871330926872044
0.634000000000000341,-1.973492269275257227
0.635000000000000453,-1.988612949773656879
0.636000000000000343,-2.003235961583885949
0.637000000000000455,-2.017364015239082153
0.638000000000000345,-2.030999938628905710
0.639000000000000457,-2.044146673043922391
0.640000000000000346,-2.056807269279066652
0.641000000000000458,-2.068984883796593177
0.642000000000000348,-2.080682774948427127
0.643000000000000460,-2.091904299258188882
0.644000000000000350,-2.102652907762768919
0.645000000000000462,-2.112932142413600278
0.646000000000000352,-2.122745632537453186
0.647000000000000464,-2.132097091356875307
0.648000000000000353,-2.140990312569959642
0.649000000000000465,-2.149429166989521356
0.650000000000000355,-2.157417599241365558
0.651000000000000467,-2.164959624521551440
0.652000000000000357,-2.172059325412420527
0.653000000000000469,-2.178720848757086159
0.654000000000000359,-2.184948402592237660
0.655000000000000471,-2.190746253138843969
0.656000000000000361,-2.196118721850498723
0.657000000000000473,-2.201070182519108354
0.658000000000000362,-2.205605058437477783
0.659000000000000474,-2.209727819618495737
0.660000000000000364,-2.213442980070472466
0.661000000000000476,-2.216755095128263076
0.662000000000000366,-2.219668758839692391
0.663000000000000478,-2.222188601406875907
