# Fe110_CS-6334-AC
# h[nm],U(h)[kJ/mol]
0.200000000000000011,71.728519281595609414
0.201000000000000012,65.223526253750833348
0.202000000000000013,61.642135890228381356
0.203000000000000014,59.392592118951164082
0.204000000000000015,57.581500970356387370
0.205000000000000016,55.757457387318858366
0.206000000000000016,53.736680482767461342
0.207000000000000017,51.487076989078296663
0.208000000000000018,49.053395102376498471
0.209000000000000019,46.510823163617565967
0.210000000000000020,43.937896104650192797
0.211000000000000021,41.402180358921171432
0.212000000000000022,38.954133061722778564
0.213000000000000023,36.625941405106424043
0.214000000000000024,34.433171336556434028
0.215000000000000024,32.377789416629852326
0.216000000000000025,30.451642146904028152
0.217000000000000026,28.639839939319735151
0.218000000000000027,26.923740722400275160
0.219000000000000028,25.283392924247557687
0.220000000000000029,23.699403062021467292
0.221000000000000030,22.154257042993599214
0.222000000000000031,20.633159497964143725
0.223000000000000032,19.124471446415697073
0.224000000000000032,17.619830108797266632
0.225000000000000033,16.114030536761802637
0.226000000000000034,14.604740270451113560
0.227000000000000035,13.092107727374147075
0.228000000000000036,11.578313978907253556
0.229000000000000037,10.067106921396273833
0.230000000000000038,8.563347151149299563
0.231000000000000039,7.072586387684777876
0.232000000000000040,5.600692157005753735
0.233000000000000040,4.153526628283023214
0.234000000000000041,2.736682903159581404
0.235000000000000042,1.355278557247217019
0.236000000000000043,0.013803680950092901
0.237000000000000044,-1.283981088738299636
0.238000000000000045,-2.535102156215120583
0.239000000000000046,-3.737392366968353308
0.240000000000000047,-4.889478587993612457
0.241000000000000048,-5.990743711985766495
0.242000000000000048,-7.041268984830658439
0.243000000000000049,-8.041762065320769537
0.244000000000000050,-8.993475645326361345
0.245000000000000051,-9.898120832875335395
0.246000000000000052,-10.757778864320519219
0.247000000000000053,-11.574814090802520994
0.248000000000000054,-12.351790596983324377
0.249000000000000055,-13.091394268963842507
0.250000000000000056,-13.796361641015598920
0.251000000000000056,-14.469416421063124645
0.252000000000000057,-15.113214223652036594
0.253000000000000058,-15.730295725150728714
0.254000000000000059,-16.323048196331733095
0.255000000000000060,-16.893675158360963451
0.256000000000000061,-17.444173745035804757
0.257000000000000062,-17.976319231947684329
0.258000000000000063,-18.491656107092151018
0.259000000000000064,-18.991495002373891765
0.260000000000000064,-19.476914776729540080
0.261000000000000065,-19.948769034787602550
0.262000000000000066,-20.407696376035534769
0.263000000000000067,-20.854133694684801270
0.264000000000000068,-21.288331886542586346
0.265000000000000069,-21.710373363337563291
0.266000000000000070,-22.120190824619122338
0.267000000000000071,-22.517586790437810862
0.268000000000000071,-22.902253452739550710
0.269000000000000072,-23.273792458303706354
0.270000000000000073,-23.631734289939906546
0.271000000000000074,-23.975556964598624177
0.272000000000000075,-24.304703816331738153
0.273000000000000076,-24.618600178139537604
0.274000000000000077,-24.916668819303428251
0.275000000000000078,-25.198344033606868919
0.276000000000000079,-25.463084308789980525
0.277000000000000079,-25.710383538655605662
0.278000000000000080,-25.939780766514154209
0.279000000000000081,-26.150868472250515140
0.280000000000000082,-26.343299435392300012
0.281000000000000083,-26.516792223362337211
0.282000000000000084,-26.671135367841991126
0.283000000000000085,-26.806190303100741801
0.284000000000000086,-26.921893148515600558
0.285000000000000087,-27.018255423564671247
0.286000000000000087,-27.095363787584783921
0.287000000000000088,-27.153378898775947903
0.288000000000000089,-27.192533487548672611
0.289000000000000090,-27.213129738565459803
0.290000000000000091,-27.215536073929037286
0.291000000000000092,-27.200183427112040846
0.292000000000000093,-27.167561093577500486
0.293000000000000094,-27.118212239769803773
0.294000000000000095,-27.052729147404754428
0.295000000000000095,-26.971748264883423474
0.296000000000000096,-26.875945132313528774
0.297000000000000097,-26.766029241143002082
0.298000000000000098,-26.642738883881293077
0.299000000000000099,-26.506836043879690834
0.300000000000000100,-26.359101369725429720
0.301000000000000101,-26.200329273529387564
0.302000000000000102,-26.031323187296983690
0.303000000000000103,-25.852891006701383958
0.304000000000000103,-25.665840746954341256
0.305000000000000104,-25.470976431113676597
0.306000000000000105,-25.269094227091791538
0.307000000000000106,-25.060978845844253726
0.308000000000000107,-24.847400209727865672
0.309000000000000108,-24.629110396822266438
0.310000000000000109,-24.406840864104967892
0.311000000000000110,-24.181299949752315115
0.312000000000000111,-23.953170652497579596
0.313000000000000111,-23.723108683904222005
0.314000000000000112,-23.491740787594192597
0.315000000000000113,-23.259663317895142853
0.316000000000000114,-23.027441069024177978
0.317000000000000115,-22.795606344793185372
0.318000000000000116,-22.564658257888442705
0.319000000000000117,-22.335062247030670335
0.320000000000000118,-22.107249799744778329
0.321000000000000119,-21.881618368048886936
0.322000000000000119,-21.658531464093794483
0.323000000000000120,-21.438318922634710617
0.324000000000000121,-21.221277317182352107
0.325000000000000122,-21.007670516749310963
0.326000000000000123,-20.797730370266176436
0.327000000000000124,-20.591657505980368370
0.328000000000000125,-20.389622233458343459
0.329000000000000126,-20.191765536177463503
0.330000000000000127,-19.998200143109368554
0.331000000000000127,-19.809011668154159480
0.332000000000000128,-19.624259806773917347
0.333000000000000129,-19.443979579690296333
0.334000000000000130,-19.268182614046040158
0.335000000000000131,-19.096858452979251553
0.336000000000000132,-18.929975885115467804
0.337000000000000133,-18.767484286043060848
0.338000000000000134,-18.609314964395892389
0.339000000000000135,-18.455382505721608766
0.340000000000000135,-18.305586107859671330
0.341000000000000136,-18.159810902087961892
0.342000000000000137,-18.017929254818721319
0.343000000000000138,-17.879802045129565613
0.344000000000000139,-17.745279913904653313
0.345000000000000140,-17.614204480830370159
0.346000000000000141,-17.486409525939727416
0.347000000000000142,-17.361722132828933951
0.348000000000000143,-17.239963791077446587
0.349000000000000143,-17.120951455788294027
0.350000000000000144,-17.004498562529867911
0.351000000000000145,-16.890415996301914703
0.352000000000000146,-16.778513013468376869
0.353000000000000147,-16.668598115897939493
0.354000000000000148,-16.560479876829845125
0.355000000000000149,-16.453967718238168061
0.356000000000000150,-16.348872639703515119
0.357000000000000151,-16.245007899016268738
0.358000000000000151,-16.142189644932326331
0.359000000000000152,-16.040237502680007253
0.360000000000000153,-15.938975112977427528
0.361000000000000154,-15.838230625463012302
0.362000000000000155,-15.737837147569049279
0.363000000000000156,-15.637633149980711522
0.364000000000000157,-15.537462829919878260
0.365000000000000158,-15.437176433577988632
0.366000000000000159,-15.336630539092649173
0.367000000000000159,-15.235688301521815191
0.368000000000000160,-15.134219661317995786
0.369000000000000161,-15.032101517841354621
0.370000000000000162,-14.929217869478994984
0.371000000000000163,-14.825459921956323228
0.372000000000000164,-14.720726166436460147
0.373000000000000165,-14.614922429007085825
0.374000000000000166,-14.507961893149655452
0.375000000000000167,-14.399765096775601236
0.376000000000000167,-14.290259905398263740
0.377000000000000168,-14.179381462987711515
0.378000000000000169,-14.067072122030120696
0.379000000000000170,-13.953281354283351590
0.380000000000000171,-13.837965643686668926
0.381000000000000172,-13.721088362846362685
0.382000000000000173,-13.602619634479001576
0.383000000000000174,-13.482536179153129297
0.384000000000000175,-13.360821150625875831
0.385000000000000175,-13.237463960026229159
0.386000000000000176,-13.112460090090038989
0.387000000000000177,-12.985810900604255025
0.388000000000000178,-12.857523426170081038
0.389000000000000179,-12.727610167345721592
0.390000000000000180,-12.596088876180925098
0.391000000000000181,-12.462982337106474517
0.392000000000000182,-12.328318144093525888
0.393000000000000183,-12.192128474948901840
0.394000000000000183,-12.054449863565370293
0.395000000000000184,-11.915322970898490240
0.396000000000000185,-11.774792355395366172
0.397000000000000186,-11.632906243555748205
0.398000000000000187,-11.489716301260907372
0.399000000000000188,-11.345277406463054604
0.400000000000000189,-11.199647423785760836
0.401000000000000190,-11.052886981544734368
0.402000000000000191,-10.905059251659320552
0.403000000000000191,-10.756229732886048112
0.404000000000000192,-10.606466037769239463
0.405000000000000193,-10.455837683667747129
0.406000000000000194,-10.304415888182841599
0.407000000000000195,-10.152273369279576798
0.408000000000000196,-9.999484150362267343
0.409000000000000197,-9.846123370535046604
0.410000000000000198,-9.692267100249807754
0.411000000000000199,-9.537992162516388817
0.412000000000000199,-9.383375959824231671
0.413000000000000200,-9.228496306900325408
0.414000000000000201,-9.073431269404720112
0.415000000000000202,-8.918259008643250496
0.416000000000000203,-8.763057632356623827
0.417000000000000204,-8.607905051625165171
0.418000000000000205,-8.452878843910884399
0.419000000000000206,-8.298056122241266763
0.420000000000000207,-8.143513410523143037
0.421000000000000207,-7.989326524960773668
0.422000000000000208,-7.835570461537860965
0.423000000000000209,-7.682319289511322147
0.424000000000000210,-7.529646050852275785
0.425000000000000211,-7.377622665559409043
0.426000000000000212,-7.226319842759951761
0.427000000000000213,-7.075806997504438201
0.428000000000000214,-6.926152173153606206
0.429000000000000214,-6.777421969248100808
0.430000000000000215,-6.629681474745432013
0.431000000000000216,-6.482994206502802115
0.432000000000000217,-6.337422052878961765
0.433000000000000218,-6.193025222324251899
0.434000000000000219,-6.049862196823776017
0.435000000000000220,-5.907989690055631016
0.436000000000000221,-5.767462610123197386
0.437000000000000222,-5.628334026718464500
0.438000000000000222,-5.490655142571646330
0.439000000000000223,-5.354475269041047980
0.440000000000000224,-5.219841805696347592
0.441000000000000225,-5.086800223748026539
0.442000000000000226,-4.955394053175894875
0.443000000000000227,-4.825664873409495570
0.444000000000000228,-4.697652307414330153
0.445000000000000229,-4.571394019038436340
0.446000000000000230,-4.446925713475240016
0.447000000000000230,-4.324281140700028558
0.448000000000000231,-4.203492101739089826
0.449000000000000232,-4.084588457632488456
0.450000000000000233,-3.967598140953594310
0.451000000000000234,-3.852547169750710765
0.452000000000000235,-3.739459663778665011
0.453000000000000236,-3.628357862890665864
0.454000000000000237,-3.519262147463729118
0.455000000000000238,-3.412191060733352543
0.456000000000000238,-3.307161332916577656
0.457000000000000239,-3.204187907004969471
0.458000000000000240,-3.103283966112770464
0.459000000000000241,-3.004460962267897273
0.460000000000000242,-2.907728646537341977
0.461000000000000243,-2.813095100381090674
0.462000000000000244,-2.720566768132457902
0.463000000000000245,-2.630148490505502146
0.464000000000000246,-2.541843539033846078
0.465000000000000246,-2.455653651348281841
0.466000000000000247,-2.371579067203790192
0.467000000000000248,-2.289618565169845521
0.468000000000000249,-2.209769499901308443
0.469000000000000250,-2.132027839910012101
0.470000000000000251,-2.056388205760717458
0.471000000000000252,-1.982843908617891504
0.472000000000000253,-1.911386989073174281
0.473000000000000254,-1.842008256186164150
0.474000000000000254,-1.774697326674329334
0.475000000000000255,-1.709442664190739425
0.476000000000000256,-1.646231618631147198
0.477000000000000257,-1.585050465414965970
0.478000000000000258,-1.525884444687200858
0.479000000000000259,-1.468717800391341699
0.480000000000000260,-1.413533819165801564
0.481000000000000261,-1.360314869018943496
0.482000000000000262,-1.309042437740579379
0.483000000000000262,-1.259697171009885874
0.484000000000000263,-1.212258910162446357
0.485000000000000264,-1.166706729581137969
0.486000000000000265,-1.123018973678119536
0.487000000000000266,-1.081173293437169836
0.488000000000000267,-1.041146682487747333
0.489000000000000268,-1.002915512684448229
0.490000000000000269,-0.966455569167097628
0.491000000000000270,-0.931742084879093269
0.492000000000000270,-0.898749774523059486
0.493000000000000271,-0.867452867935022409
0.494000000000000272,-0.837825142859684791
0.495000000000000273,-0.809839957111348263
0.496000000000000274,-0.783470280106444372
0.497000000000000275,-0.758688723755129746
0.498000000000000276,-0.735467572701097416
0.499000000000000277,-0.713778813899843656
0.500000000000000222,-0.693594165527291140
0.501000000000000334,-0.674885105211669334
0.502000000000000224,-0.657622897583086230
0.503000000000000336,-0.641778621136044558
0.504000000000000226,-0.627323194401676276
0.505000000000000338,-0.614227401427119957
0.506000000000000227,-0.602461916560925625
0.507000000000000339,-0.591997328543832135
0.508000000000000229,-0.582804163905667583
0.509000000000000341,-0.574852909669636203
0.510000000000000231,-0.568114035366274583
0.511000000000000343,-0.562558014359979097
0.512000000000000233,-0.558155344491884087
0.513000000000000345,-0.554876568043449980
0.514000000000000234,-0.552692291025856819
0.515000000000000346,-0.551573201800757529
0.516000000000000236,-0.551490089038680353
0.517000000000000348,-0.552413859021817943
0.518000000000000238,-0.554315552298353609
0.519000000000000350,-0.557166359696140145
0.520000000000000240,-0.560937637703718406
0.521000000000000352,-0.565600923227276953
0.522000000000000242,-0.571127947732315233
0.523000000000000353,-0.577490650779340031
0.524000000000000243,-0.584661192962922294
0.525000000000000355,-0.592611968264007638
0.526000000000000245,-0.601315615825422145
0.527000000000000357,-0.610745031160838669
0.528000000000000247,-0.620873376807617117
0.529000000000000359,-0.631674092434110324
0.530000000000000249,-0.643120904412204153
0.531000000000000361,-0.655187834865967211
0.532000000000000250,-0.667849210207391408
0.533000000000000362,-0.681079669170339574
0.534000000000000252,-0.694854170353730871
0.535000000000000364,-0.709147999285415609
0.536000000000000254,-0.723936775017649303
0.537000000000000366,-0.739196456265744706
0.538000000000000256,-0.754903347100945976
0.539000000000000368,-0.771034102208922212
0.540000000000000258,-0.787565731725028195
0.541000000000000369,-0.804475605657654080
0.542000000000000259,-0.821741457910654560
0.543000000000000371,-0.839341389916145930
0.544000000000000261,-0.857253873888596196
0.545000000000000373,-0.875457755711190777
0.546000000000000263,-0.893932257465330671
0.547000000000000375,-0.912656979614143160
0.548000000000000265,-0.931611902850481899
0.549000000000000377,-0.950777389620227398
0.550000000000000266,-0.970134185331072429
0.551000000000000378,-0.989663419257368004
0.552000000000000268,-1.009346605151016707
0.553000000000000380,-1.029165641568605016
0.554000000000000270,-1.049102811924599088
0.555000000000000382,-1.069140784280466772
0.556000000000000272,-1.089262610879255799
0.557000000000000384,-1.109451727435144752
0.558000000000000274,-1.129691952187299009
0.559000000000000385,-1.149967484727142830
0.560000000000000275,-1.170262904608044829
0.561000000000000387,-1.190563169746307270
0.562000000000000277,-1.210853614621987040
0.563000000000000389,-1.231119948288220023
0.564000000000000279,-1.251348252197197475
0.565000000000000391,-1.271524977851115734
0.566000000000000281,-1.291636944285899924
0.567000000000000393,-1.311671335395713456
0.568000000000000282,-1.331615697105716034
0.569000000000000394,-1.351457934400694949
0.570000000000000284,-1.371186308216671978
0.571000000000000396,-1.390789432202869325
0.572000000000000286,-1.410256269360737225
0.573000000000000398,-1.429576128566999671
0.574000000000000288,-1.448738660987201055
0.575000000000000400,-1.467733856386375102
0.576000000000000290,-1.486552039342864173
0.577000000000000401,-1.505183865371673591
0.578000000000000291,-1.523620316963091303
0.579000000000000403,-1.541852699542466398
0.580000000000000293,-1.559872637356710445
0.581000000000000405,-1.577672069293099444
0.582000000000000295,-1.595243244635446089
0.583000000000000407,-1.612578718763092667
0.584000000000000297,-1.629671348797410602
0.585000000000000409,-1.646514289200919690
0.586000000000000298,-1.663100987333473224
0.587000000000000410,-1.679425178970270549
0.588000000000000300,-1.695480883785884130
0.589000000000000412,-1.711262400808750028
0.590000000000000302,-1.726764303850042426
0.591000000000000414,-1.741981436911085535
0.592000000000000304,-1.756908909572971522
0.593000000000000416,-1.771542092372209609
0.594000000000000306,-1.785876612165890220
0.595000000000000417,-1.799908347489892702
0.596000000000000307,-1.813633423913311393
0.597000000000000419,-1.827048209392441391
0.598000000000000309,-1.840149309627313157
0.599000000000000421,-1.852933563423677210
0.600000000000000311,-1.865398038063377895
0.601000000000000423,-1.877540024685766529
0.602000000000000313,-1.889357033682722120
0.603000000000000425,-1.900846790109890438
0.604000000000000314,-1.912007229116388318
0.605000000000000426,-1.922836491395386149
0.606000000000000316,-1.933332918657654220
0.607000000000000428,-1.943495049130190777
0.608000000000000318,-1.953321613081940411
0.609000000000000430,-1.962811528378479720
0.610000000000000320,-1.971963896067404631
0.611000000000000432,-1.980777995996260810
0.612000000000000322,-1.989253282464498840
0.613000000000000433,-1.997389379911084006
0.614000000000000323,-2.005186078639187741
0.615000000000000435,-2.012643330579323209
0.616000000000000325,-2.019761245092200230
0.617000000000000437,-2.026540084812602061
0.618000000000000327,-2.032980261535302979
0.619000000000000439,-2.039082332144216192
0.620000000000000329,-2.044846994585701960
0.621000000000000441,-2.050275083886986760
0.622000000000000330,-2.055367568220593633
0.623000000000000442,-2.060125545015553339
0.624000000000000332,-2.064550237116128617
0.625000000000000444,-2.068642988988816267
0.626000000000000334,-2.072405262978137763
0.627000000000000446,-2.075838635611891636
0.628000000000000336,-2.078944793956325920
0.629000000000000448,-2.081725532021722280
0.630000000000000338,-2.084182747218769727
0.631000000000000449,-2.086318436866159143
0.632000000000000339,-2.088134694749656184
0.633000000000000451,-2.089633707732945656
0.634000000000000341,-2.090817752420471631
0.635000000000000453,-2.091689191872516673
0.636000000000000343,-2.092250472372531256
0.637000000000000455,-2.092504120247016264
0.638000000000000345,-2.092452738737815121
0.639000000000000457,-2.092099004927034489
0.640000000000000346,-2.091445666714466078
0.641000000000000458,-2.090495539847560202
0.642000000000000348,-2.089251505003812071
0.643000000000000460,-2.087716504925528849
0.644000000000000350,-2.085893541606820722
0.645000000000000462,-2.083785673532651650
0.646000000000000352,-2.081396012969790821
0.647000000000000464,-2.078727723309460984
0.648000000000000353,-2.075784016461434955
0.649000000000000465,-2.072568150299320955
0.650000000000000355,-2.069083426156811178
0.651000000000000467,-2.065333186374507246
0.652000000000000357,-2.061320811897125349
0.653000000000000469,-2.057049719920583719
0.654000000000000359,-2.052523361588813877
0.655000000000000471,-2.047745219739740996
0.656000000000000361,-2.042718806700156264
0.657000000000000473,-2.037447662129042047
0.658000000000000362,-2.031935350908935956
0.659000000000000474,-2.026185461084890616
