# Fe110_CS-86862-AC
# h[nm],U(h)[kJ/mol]
0.149999999999999994,109.225693926490478702
0.150999999999999995,104.777021470281880511
0.151999999999999996,100.692088419054570636
0.152999999999999997,96.720001627364098340
0.153999999999999998,92.802822243291558379
0.154999999999999999,88.952696671286531682
0.156000000000000000,85.195296183943099777
0.157000000000000001,81.548292660958324518
0.158000000000000002,78.016830487486870993
0.159000000000000002,74.596053689353297500
0.160000000000000003,71.275571169083264067
0.161000000000000004,68.043513077449617299
0.162000000000000005,64.889341724181647919
0.163000000000000006,61.805339606801069863
0.164000000000000007,58.787025395076057066
0.165000000000000008,55.832843362751681582
0.166000000000000009,52.943450924812815117
0.167000000000000010,50.120860581594115502
0.168000000000000010,47.367613566745220055
0.169000000000000011,44.686090985477193271
0.170000000000000012,42.078011494543105186
0.171000000000000013,39.544123958666844487
0.172000000000000014,37.084077415072783879
0.173000000000000015,34.696436290082083076
0.174000000000000016,32.378803120214783462
0.175000000000000017,30.128011287587820988
0.176000000000000018,27.940354217947021453
0.177000000000000018,25.811823367855463829
0.178000000000000019,23.738333892328181918
0.179000000000000020,21.715923295873700738
0.180000000000000021,19.740914116392183075
0.181000000000000022,17.810036506175521254
0.182000000000000023,15.920510365168130562
0.183000000000000024,14.070089472620031401
0.184000000000000025,12.257071949233205643
0.185000000000000026,10.480282495321469938
0.186000000000000026,8.739032337663314109
0.187000000000000027,7.033062822926025248
0.188000000000000028,5.362478251262807305
0.189000000000000029,3.727672965257781357
0.190000000000000030,2.129256992760761413
0.191000000000000031,0.567983763815585796
0.192000000000000032,-0.955317359835997970
0.193000000000000033,-2.439801747116041142
0.194000000000000034,-3.884662031958008299
0.195000000000000034,-5.289171791046426208
0.196000000000000035,-6.652720135011631619
0.197000000000000036,-7.974837387748204165
0.198000000000000037,-9.255212342595026342
0.199000000000000038,-10.493701814548689555
0.200000000000000039,-11.690333363492527496
0.201000000000000040,-12.845302154730177335
0.202000000000000041,-13.958962960369984074
0.203000000000000042,-15.031818298542082957
0.204000000000000042,-16.064503666654978531
0.205000000000000043,-17.057770758640021569
0.206000000000000044,-18.012469472108204371
0.207000000000000045,-18.929529416178603185
0.208000000000000046,-19.809941529987430187
0.209000000000000047,-20.654740320068466275
0.210000000000000048,-21.464987125474731755
0.211000000000000049,-22.241754725388812375
0.212000000000000050,-22.986113516999964190
0.213000000000000050,-23.699119412899285919
0.214000000000000051,-24.381803537924792380
0.215000000000000052,-25.035163745576660688
0.216000000000000053,-25.660157923774807642
0.217000000000000054,-26.257699018522412615
0.218000000000000055,-26.828651671442209192
0.219000000000000056,-27.373830342494056111
0.220000000000000057,-27.893998771705089013
0.221000000000000058,-28.389870622622630947
0.222000000000000058,-28.862111144621849235
0.223000000000000059,-29.311339690330420638
0.224000000000000060,-29.738132927498480029
0.225000000000000061,-30.143028590897131380
0.226000000000000062,-30.526529628593614518
0.227000000000000063,-30.889108607607170143
0.228000000000000064,-31.231212255944388545
0.229000000000000065,-31.553266030864620006
0.230000000000000066,-31.855678616514090606
0.231000000000000066,-32.138846267442701787
0.232000000000000067,-32.403156927681912691
0.233000000000000068,-32.648994067781174522
0.234000000000000069,-32.876740194284458596
0.235000000000000070,-33.086779997436053691
0.236000000000000071,-33.279503113333063880
0.237000000000000072,-33.455306486225310891
0.238000000000000073,-33.614596325162672485
0.239000000000000073,-33.757789656693532265
0.240000000000000074,-33.885315481837913865
0.241000000000000075,-33.997615551117604582
0.242000000000000076,-34.095144776066121040
0.243000000000000077,-34.178371299413171869
0.244000000000000078,-34.247776249100233770
0.245000000000000079,-34.303853203497865820
0.246000000000000080,-34.347107396730237383
0.247000000000000081,-34.378054693934807062
0.248000000000000081,-34.397220366663148639
0.249000000000000082,-34.405137698529536294
0.250000000000000111,-34.402346450702317782
0.251000000000000112,-34.389391215969290272
0.252000000000000113,-34.366819688952844558
0.253000000000000114,-34.335180878653403624
0.254000000000000115,-34.295023287917082655
0.255000000000000115,-34.246893082693624422
0.256000000000000116,-34.191332272121606195
0.257000000000000117,-34.128876918582143674
0.258000000000000118,-34.060055394933847595
0.259000000000000119,-33.985386704210462483
0.260000000000000120,-33.905378875151832574
0.261000000000000121,-33.820527445069217265
0.262000000000000122,-33.731314039737860355
0.263000000000000123,-33.638205058273932480
0.264000000000000123,-33.541650469305196225
0.265000000000000124,-33.442082723190196702
0.266000000000000125,-33.339915783589376019
0.267000000000000126,-33.235544280345820312
0.268000000000000127,-33.129342784396570210
0.269000000000000128,-33.021665204309428532
0.270000000000000129,-32.912844303023092607
0.271000000000000130,-32.803191332460492902
0.272000000000000131,-32.692995782882320555
0.273000000000000131,-32.582525243147152594
0.274000000000000132,-32.472025367442356014
0.275000000000000133,-32.361719943540961708
0.276000000000000134,-32.251811057219050838
0.277000000000000135,-32.142479347130723966
0.278000000000000136,-32.033884344177060655
0.279000000000000137,-31.926164889217396592
0.280000000000000138,-31.819439622848051386
0.281000000000000139,-31.713807540911108873
0.282000000000000139,-31.609348609388195683
0.283000000000000140,-31.506124432374811306
0.284000000000000141,-31.404178966915782922
0.285000000000000142,-31.303539278605967411
0.286000000000000143,-31.204216332017228552
0.287000000000000144,-31.106205810199146100
0.288000000000000145,-31.009488957712381563
0.289000000000000146,-30.914033441884733122
0.290000000000000147,-30.819794227229191819
0.291000000000000147,-30.726714458225025339
0.292000000000000148,-30.634726345935071379
0.293000000000000149,-30.543752054211903868
0.294000000000000150,-30.453704581528750595
0.295000000000000151,-30.364488634757055507
0.296000000000000152,-30.276001491497886775
0.297000000000000153,-30.188133847857443470
0.298000000000000154,-30.100770648836267185
0.299000000000000155,-30.013791898775572520
0.300000000000000155,-29.927073449571160779
0.301000000000000156,-29.840487764624260336
0.302000000000000157,-29.753904656749291746
0.303000000000000158,-29.667191998498879002
0.304000000000000159,-29.580216403596704566
0.305000000000000160,-29.492843878388590895
0.306000000000000161,-29.404940442430255843
0.307000000000000162,-29.316372717527379166
0.308000000000000163,-29.227008484728724369
0.309000000000000163,-29.136717208946993907
0.310000000000000164,-29.045370531043886331
0.311000000000000165,-28.952842727366704167
0.312000000000000166,-28.859011136862761759
0.313000000000000167,-28.763756556025931843
0.314000000000000168,-28.666963602046859450
0.315000000000000169,-28.568521044644796802
0.316000000000000170,-28.468322107155280776
0.317000000000000171,-28.366264737534514495
0.318000000000000171,-28.262251850017698018
0.319000000000000172,-28.156191538237170136
0.320000000000000173,-28.047997260664612185
0.321000000000000174,-27.937587999293061358
0.322000000000000175,-27.824888392517486579
0.323000000000000176,-27.709828843208651250
0.324000000000000177,-27.592345603003696652
0.325000000000000178,-27.472380833859595839
0.326000000000000179,-27.349882647932297175
0.327000000000000179,-27.224805126854544568
0.328000000000000180,-27.097108321491770511
0.329000000000000181,-26.966758233256321375
0.330000000000000182,-26.833726778055641660
0.331000000000000183,-26.697991733944512305
0.332000000000000184,-26.559536673538083562
0.333000000000000185,-26.418350882229532317
0.334000000000000186,-26.274429263238040733
0.335000000000000187,-26.127772230492361416
0.336000000000000187,-25.978385590333637367
0.337000000000000188,-25.826280412995423319
0.338000000000000189,-25.671472894793573971
0.339000000000000190,-25.513984211929969348
0.340000000000000191,-25.353840366784844207
0.341000000000000192,-25.191072027543096823
0.342000000000000193,-25.025714361967153820
0.343000000000000194,-24.857806866098716370
0.344000000000000195,-24.687393188638075969
0.345000000000000195,-24.514520951717855723
0.346000000000000196,-24.339241568754506062
0.347000000000000197,-24.161610060028333891
0.348000000000000198,-23.981684866609889184
0.349000000000000199,-23.799527663217709517
0.350000000000000200,-23.615203170560526758
0.351000000000000201,-23.428778967684596779
0.352000000000000202,-23.240325304815776519
0.353000000000000203,-23.049914917155053473
0.354000000000000203,-22.857622840055871194
0.355000000000000204,-22.663526225982145945
0.356000000000000205,-22.467704163617288060
0.357000000000000206,-22.270237499466489339
0.358000000000000207,-22.071208662266975864
0.359000000000000208,-21.870701490495555674
0.360000000000000209,-21.668801063236536208
0.361000000000000210,-21.465593534649222818
0.362000000000000210,-21.261165972250147149
0.363000000000000211,-21.055606199203126039
0.364000000000000212,-20.849002640788150131
0.365000000000000213,-20.641444175199424649
0.366000000000000214,-20.433019988803373224
0.367000000000000215,-20.223819435968067637
0.368000000000000216,-20.013931903558138004
0.369000000000000217,-19.803446680171727934
0.370000000000000218,-19.592452830180242529
0.371000000000000218,-19.381039072616161434
0.372000000000000219,-19.169293664940017408
0.373000000000000220,-18.957304291703962917
0.374000000000000221,-18.745157958116699604
0.375000000000000222,-18.532940888502650978
0.376000000000000223,-18.320738429637120959
0.377000000000000224,-18.108634958928824688
0.378000000000000225,-17.896713797411706537
0.379000000000000226,-17.685057127498708951
0.380000000000000226,-17.473745915442467691
0.381000000000000227,-17.262859838439702287
0.382000000000000228,-17.052477216309878116
0.383000000000000229,-16.842674947671802954
0.384000000000000230,-16.633528450536299914
0.385000000000000231,-16.425111607228295441
0.386000000000000232,-16.217496713546378118
0.387000000000000233,-16.010754432064331354
0.388000000000000234,-15.804953749475192382
0.389000000000000234,-15.600161937875540730
0.390000000000000235,-15.396444519884491697
0.391000000000000236,-15.193865237490253861
0.392000000000000237,-14.992486024514452225
0.393000000000000238,-14.792366982583541102
0.394000000000000239,-14.593566360494950374
0.395000000000000240,-14.396140536865004833
0.396000000000000241,-14.200144005945094960
0.397000000000000242,-14.005629366492067689
0.398000000000000242,-13.812647313579216046
0.399000000000000243,-13.621246633234221690
0.400000000000000244,-13.431474199790665480
0.401000000000000245,-13.243374975841234686
0.402000000000000246,-13.056992014680815828
0.403000000000000247,-12.872366465128980195
0.404000000000000248,-12.689537578623083292
0.405000000000000249,-12.508542718474068067
0.406000000000000250,-12.329417371178832852
0.407000000000000250,-12.152195159684811898
0.408000000000000251,-11.976907858503997417
0.409000000000000252,-11.803585410575880843
0.410000000000000253,-11.632255945780347162
0.411000000000000254,-11.462945801004124746
0.412000000000000255,-11.295679541666149959
0.413000000000000256,-11.130479984609740640
0.414000000000000257,-10.967368222271504763
0.415000000000000258,-10.806363648039353009
0.416000000000000258,-10.647483982714465611
0.417000000000000259,-10.490745301994124361
0.418000000000000260,-10.336162064895088264
0.419000000000000261,-10.183747143039362015
0.420000000000000262,-10.033511850726773318
0.421000000000000263,-9.885465975721274390
0.422000000000000264,-9.739617810680066157
0.423000000000000265,-9.595974185157306380
0.424000000000000266,-9.454540498116660530
0.425000000000000266,-9.315320750889004131
0.426000000000000267,-9.178317580514306684
0.427000000000000268,-9.043532293408969025
0.428000000000000269,-8.910964899302161513
0.429000000000000270,-8.780614145387172442
0.430000000000000271,-8.652477550635826020
0.431000000000000272,-8.526551440226509015
0.432000000000000273,-8.402830980038340059
0.433000000000000274,-8.281310211166379887
0.434000000000000274,-8.161982084414612260
0.435000000000000275,-8.044838494725857103
0.436000000000000276,-7.929870315509566225
0.437000000000000277,-7.817067432830401508
0.438000000000000278,-7.706418779422695486
0.439000000000000279,-7.597912368497576452
0.440000000000000280,-7.491535327311384940
0.441000000000000281,-7.387273930465914518
0.442000000000000282,-7.285113632912730175
0.443000000000000282,-7.185039102635404795
0.444000000000000283,-7.087034252985366045
0.445000000000000284,-6.991082274648479533
0.446000000000000285,-6.897165667220981788
0.447000000000000286,-6.805266270375293303
0.448000000000000287,-6.715365294597049228
0.449000000000000288,-6.627443351476733469
0.450000000000000289,-6.541480483540166979
0.451000000000000290,-6.457456193603709593
0.452000000000000290,-6.375349473641175102
0.453000000000000291,-6.295138833150669022
0.454000000000000292,-6.216802327010829465
0.455000000000000293,-6.140317582816869901
0.456000000000000294,-6.065661827688204610
0.457000000000000295,-5.992811914540128626
0.458000000000000296,-5.921744347813360676
0.459000000000000297,-5.852435308655880242
0.460000000000000298,-5.784860679552711105
0.461000000000000298,-5.718996068399880173
0.462000000000000299,-5.654816832019902151
0.463000000000000300,-5.592298099116627341
0.464000000000000301,-5.531414792668341462
0.465000000000000302,-5.472141651758485992
0.466000000000000303,-5.414453252844234399
0.467000000000000304,-5.358324030463572640
0.468000000000000305,-5.303728297382507506
0.469000000000000306,-5.250640264184186279
0.470000000000000306,-5.199034058302610006
0.471000000000000307,-5.148883742503898020
0.472000000000000308,-5.100163332818756778
0.473000000000000309,-5.052846815930026381
0.474000000000000310,-5.006908166019848672
0.475000000000000311,-4.962321361081214910
0.476000000000000312,-4.919060398699242498
0.477000000000000313,-4.877099311307515173
0.478000000000000314,-4.836412180925616866
0.479000000000000314,-4.796973153383962796
0.480000000000000315,-4.758756452042327112
0.481000000000000316,-4.721736391008994893
0.482000000000000317,-4.685887387867323284
0.483000000000000318,-4.651183975917033919
0.484000000000000319,-4.617600815937559666
0.485000000000000320,-4.585112707481096450
0.486000000000000321,-4.553694599703002055
0.487000000000000322,-4.523321601737480435
0.488000000000000322,-4.493968992626555803
0.489000000000000323,-4.465612230810441119
0.490000000000000324,-4.438226963187517526
0.491000000000000325,-4.411789033752267386
0.492000000000000326,-4.386274491819452059
0.493000000000000327,-4.361659599843031643
0.494000000000000328,-4.337920840838278558
0.495000000000000329,-4.315034925415559108
0.496000000000000330,-4.292978798434353038
0.497000000000000330,-4.271729645285981647
0.498000000000000331,-4.251264897813658017
0.499000000000000332,-4.231562239878308596
0.500000000000000333,-4.212599612578689978
0.501000000000000334,-4.194355219134330071
0.502000000000000335,-4.176807529439638067
0.503000000000000336,-4.159935284297685776
0.504000000000000337,-4.143717499341916799
0.505000000000000338,-4.128133468654140437
0.506000000000000338,-4.113162768087009979
0.507000000000000339,-4.098785258299125545
0.508000000000000340,-4.084981087510912268
0.509000000000000341,-4.071730693989175975
0.510000000000000342,-4.059014808268361030
0.511000000000000343,-4.046814455116264142
0.512000000000000344,-4.035110955251987264
0.513000000000000345,-4.023885926823719927
0.514000000000000346,-4.013121286653976938
0.515000000000000346,-4.002799251259630431
0.516000000000000347,-3.992902337654115286
0.517000000000000348,-3.983413363939071417
0.518000000000000349,-3.974315449692422675
0.519000000000000350,-3.965592016159986688
0.520000000000000351,-3.957226786257494133
0.521000000000000352,-3.949203784389688998
0.522000000000000353,-3.941507336093284408
0.523000000000000353,-3.934122067510185339
0.524000000000000354,-3.927032904697482785
0.525000000000000355,-3.920225072780430420
0.526000000000000356,-3.913684094954604120
0.527000000000000357,-3.907395791343288405
0.528000000000000358,-3.901346277715997068
0.529000000000000359,-3.895521964073902499
0.530000000000000360,-3.889909553107899320
0.531000000000000361,-3.884496038534817508
0.532000000000000361,-3.879268703317193534
0.533000000000000362,-3.874215117771954375
0.534000000000000363,-3.869323137573179139
0.535000000000000364,-3.864580901653956069
0.536000000000000365,-3.859976830012362026
0.537000000000000366,-3.855499621426306867
0.538000000000000367,-3.851138251081992703
0.539000000000000368,-3.846881968120573703
0.540000000000000369,-3.842720293107453777
0.541000000000000369,-3.838643015428601757
0.542000000000000370,-3.834640190618132216
0.543000000000000371,-3.830702137621238457
0.544000000000000372,-3.826819435996534846
0.545000000000000373,-3.822982923061688521
0.546000000000000374,-3.819183690986132085
0.547000000000000375,-3.815413083834539698
0.548000000000000376,-3.811662694564694753
0.549000000000000377,-3.807924361983153094
0.550000000000000377,-3.804190167662089728
0.551000000000000378,-3.800452432820669912
0.552000000000000379,-3.796703715173997296
0.553000000000000380,-3.792936805752817886
0.554000000000000381,-3.789144725696872662
0.555000000000000382,-3.785320723024843126
0.556000000000000383,-3.781458269383615178
0.557000000000000384,-3.777551056779604899
0.558000000000000385,-3.773592994294701075
0.559000000000000385,-3.769578204789418407
0.560000000000000386,-3.765501021595552000
0.561000000000000387,-3.761355985200842245
0.562000000000000388,-3.757137839927778167
0.563000000000000389,-3.752841530608774345
0.564000000000000390,-3.748462199259810834
0.565000000000000391,-3.743995181754554036
0.566000000000000392,-3.739436004500890753
0.567000000000000393,-3.734780381121767245
0.568000000000000393,-3.730024209142084324
0.569000000000000394,-3.725163566683418193
0.570000000000000395,-3.720194709168195946
0.571000000000000396,-3.715114066034888474
0.572000000000000397,-3.709918237465794189
0.573000000000000398,-3.704603991128801788
0.574000000000000399,-3.699168258934562026
0.575000000000000400,-3.693608133810386995
0.576000000000000401,-3.687920866492115035
0.577000000000000401,-3.682103862335196709
0.578000000000000402,-3.676154678146114296
0.579000000000000403,-3.670071019035225479
0.580000000000000404,-3.663850735292097482
0.581000000000000405,-3.657491819284317991
0.582000000000000406,-3.650992402380650592
0.583000000000000407,-3.644350751899537499
0.584000000000000408,-3.637565268083673864
0.585000000000000409,-3.630634481101487232
0.586000000000000409,-3.623557048076297971
0.587000000000000410,-3.616331750143791712
0.588000000000000411,-3.608957489538500596
0.589000000000000412,-3.601433286709907922
0.590000000000000413,-3.593758277468714901
0.591000000000000414,-3.585931710163847264
0.592000000000000415,-3.577952942890652022
0.593000000000000416,-3.569821440730756024
0.594000000000000417,-3.561536773024040592
0.595000000000000417,-3.553098610673058655
0.596000000000000418,-3.544506723480279398
0.597000000000000419,-3.535760977518502379
0.598000000000000420,-3.526861332534666271
0.599000000000000421,-3.517807839387374624
0.600000000000000422,-3.508600637518336729
0.601000000000000423,-3.499239952457909197
0.602000000000000424,-3.489726093364946991
0.603000000000000425,-3.480059450601087345
0.604000000000000425,-3.470240493339578958
0.605000000000000426,-3.460269767208778546
0.606000000000000427,-3.450147891970377856
0.607000000000000428,-3.439875559232370872
0.608000000000000429,-3.429453530196886923
