# Fe110_WaterUCD
# h[nm],U(h)[kJ/mol]
0.149999999999999994,58.946210469570743840
0.150999999999999995,59.611103855885986036
0.151999999999999996,58.198110923504998482
0.152999999999999997,56.328355313269547366
0.153999999999999998,54.625499052449285387
0.154999999999999999,53.228935044388649089
0.156000000000000000,52.077624883167764835
0.157000000000000001,51.056309661775848951
0.158000000000000002,50.062211994266775150
0.159000000000000002,49.028232201361078069
0.160000000000000003,47.924296738660117967
0.161000000000000004,46.749375123104876195
0.162000000000000005,45.520984371770467192
0.163000000000000006,44.265552043795040049
0.164000000000000007,43.011005181490943983
0.165000000000000008,41.781856118130882294
0.166000000000000009,40.596514147497380520
0.167000000000000010,39.466335755278052488
0.168000000000000010,38.395890342569224174
0.169000000000000011,37.383973382574211541
0.170000000000000012,36.424991222322553597
0.171000000000000013,35.510441003687688521
0.172000000000000014,34.630299739584657459
0.173000000000000015,33.774211596460901319
0.174000000000000016,32.932420183841387029
0.175000000000000017,32.096434176464946120
0.176000000000000018,31.259442231617509123
0.177000000000000018,30.416509677167880454
0.178000000000000019,29.564597537240018710
0.179000000000000020,28.702446528275022075
0.180000000000000021,27.830366688570467915
0.181000000000000022,26.949968870154254574
0.182000000000000023,26.063868607312333125
0.183000000000000024,25.175386732681154456
0.184000000000000025,24.288265118516441987
0.185000000000000026,23.406410442564755670
0.186000000000000026,22.533674118201279413
0.187000000000000027,21.673672573071041114
0.188000000000000028,20.829648913925094433
0.189000000000000029,20.004374629160981414
0.190000000000000030,19.200088274673660749
0.191000000000000031,18.418466967162494541
0.192000000000000032,17.660625871594753278
0.193000000000000033,16.927140618603484512
0.194000000000000034,16.218087633374164369
0.195000000000000034,15.533097620534414673
0.196000000000000035,14.871417861671037741
0.197000000000000036,14.231979486908025834
0.198000000000000037,13.613466434070593536
0.199000000000000038,13.014383372965903973
0.200000000000000039,12.433120421716399306
0.201000000000000040,11.868012997948076404
0.202000000000000041,11.317395617338345204
0.203000000000000042,10.779648868066434630
0.204000000000000042,10.253239148629308630
0.205000000000000043,9.736751057940136178
0.206000000000000044,9.228912572550260762
0.207000000000000045,8.728613339780249447
0.208000000000000046,8.234916562109729554
0.209000000000000047,7.747065052566822985
0.210000000000000048,7.264482108539010774
0.211000000000000049,6.786767887857863002
0.212000000000000050,6.313691981445282764
0.213000000000000050,5.845182866176698688
0.214000000000000051,5.381314894415399230
0.215000000000000052,4.922293436936983291
0.216000000000000053,4.468438747232765351
0.217000000000000054,4.020169060507889469
0.218000000000000055,3.577983382653962874
0.219000000000000056,3.142444365215140145
0.220000000000000057,2.714161603609577700
0.221000000000000058,2.293775638984210552
0.222000000000000058,1.881942890104239208
0.223000000000000059,1.479321691373416403
0.224000000000000060,1.086559566958457790
0.225000000000000061,0.704281829364404421
0.226000000000000062,0.333081553819253695
0.227000000000000063,-0.026489052519278734
0.228000000000000064,-0.373925895326906788
0.229000000000000065,-0.708778884092297945
0.230000000000000066,-1.030656520909258189
0.231000000000000066,-1.339229254220600795
0.232000000000000067,-1.634231676706191960
0.233000000000000068,-1.915463655411445698
0.234000000000000069,-2.182790488305623722
0.235000000000000070,-2.436142185080708344
0.236000000000000071,-2.675511971477227746
0.237000000000000072,-2.900954116066094990
0.238000000000000073,-3.112581176517025039
0.239000000000000073,-3.310560759215994242
0.240000000000000074,-3.495111881906434625
0.241000000000000075,-3.666501024044073631
0.242000000000000076,-3.825037943977279919
0.243000000000000077,-3.971071336070518321
0.244000000000000078,-4.104984394634769274
0.245000000000000079,-4.227190345149930195
0.246000000000000080,-4.338127996875825509
0.247000000000000081,-4.438257364647139269
0.248000000000000081,-4.528055401512809830
0.249000000000000082,-4.608011877977020276
0.250000000000000111,-4.678625437977705914
0.251000000000000112,-4.740399856437659487
0.252000000000000113,-4.793840518271148987
0.253000000000000114,-4.839451134142693789
0.254000000000000115,-4.877730704066133960
0.255000000000000115,-4.909170736102696608
0.256000000000000116,-4.934252723965471432
0.257000000000000117,-4.953445884256045595
0.258000000000000118,-4.967205151336054669
0.259000000000000119,-4.975969425457594575
0.260000000000000120,-4.980160067724908046
0.261000000000000121,-4.980179633716368848
0.262000000000000122,-4.976410836141356597
0.263000000000000123,-4.969215725719455357
0.264000000000000123,-4.958935078529483675
0.265000000000000124,-4.945887977360889920
0.266000000000000125,-4.930371574090320230
0.267000000000000126,-4.912661019780311555
0.268000000000000127,-4.893009549036044348
0.269000000000000128,-4.871648705140727564
0.270000000000000129,-4.848788692602670203
0.271000000000000130,-4.824618843970372772
0.272000000000000131,-4.799308188090397387
0.273000000000000131,-4.773006107381376317
0.274000000000000132,-4.745843072162886145
0.275000000000000133,-4.717931440597422643
0.276000000000000134,-4.689366313365831651
0.277000000000000135,-4.660226432791283457
0.278000000000000136,-4.630575116744474862
0.279000000000000137,-4.600461218295050614
0.280000000000000138,-4.569920102714129406
0.281000000000000139,-4.538974634073037251
0.282000000000000139,-4.507636164319191785
0.283000000000000140,-4.475905518335659750
0.284000000000000141,-4.443773969102785770
0.285000000000000142,-4.411224197674381564
0.286000000000000143,-4.378231233254760824
0.287000000000000144,-4.344763369213534787
0.288000000000000145,-4.310783051401383403
0.289000000000000146,-4.276247735629547186
0.290000000000000147,-4.241110711648660825
0.291000000000000147,-4.205321891407026058
0.292000000000000148,-4.168828559785091592
0.293000000000000149,-4.131576086390875702
0.294000000000000150,-4.093508597361099177
0.295000000000000151,-4.054569606445115326
0.296000000000000152,-4.014702604953553688
0.297000000000000153,-3.973851610432334702
0.298000000000000154,-3.931961674175366461
0.299000000000000155,-3.888979347917547180
0.300000000000000155,-3.844853110254090378
0.301000000000000156,-3.799533753514008794
0.302000000000000157,-3.752974731976005618
0.303000000000000158,-3.705132472454978121
0.304000000000000159,-3.655966648408366382
0.305000000000000160,-3.605440418814217285
0.306000000000000161,-3.553520633159267028
0.307000000000000162,-3.500178003945578986
0.308000000000000163,-3.445387248180324491
0.309000000000000163,-3.389127199355978171
0.310000000000000164,-3.331380891458452176
0.311000000000000165,-3.272135616559673110
0.312000000000000166,-3.211382957560174667
0.313000000000000167,-3.149118797646574652
0.314000000000000168,-3.085343308020179087
0.315000000000000169,-3.020060915436566518
0.316000000000000170,-2.953280251073178597
0.317000000000000171,-2.885014082213036790
0.318000000000000171,-2.815279228198821926
0.319000000000000172,-2.744096462073129405
0.320000000000000173,-2.671490399278586558
0.321000000000000174,-2.597489374745973745
0.322000000000000175,-2.522125309650571801
0.323000000000000176,-2.445433569066687962
0.324000000000000177,-2.367452811698393056
0.325000000000000178,-2.288224832811426523
0.326000000000000179,-2.207794401437286336
0.327000000000000179,-2.126209092866010231
0.328000000000000180,-2.043519117389403839
0.329000000000000181,-1.959777146202401399
0.330000000000000182,-1.875038135315481025
0.331000000000000183,-1.789359148278224509
0.332000000000000184,-1.702799178460957297
0.333000000000000185,-1.615418971590031560
0.334000000000000186,-1.527280849181724465
0.335000000000000187,-1.438448533470517043
0.336000000000000187,-1.348986974379817294
0.337000000000000188,-1.258962179036858142
0.338000000000000189,-1.168441044288896169
0.339000000000000190,-1.077491192634793649
0.340000000000000191,-0.986180811944694091
0.341000000000000192,-0.894578499301148078
0.342000000000000193,-0.802753109256880593
0.343000000000000194,-0.710773606768778876
0.344000000000000195,-0.618708925033044421
0.345000000000000195,-0.526627828414243604
0.346000000000000196,-0.434598780630143733
0.347000000000000197,-0.342689818325202511
0.348000000000000198,-0.250968430138469478
0.349000000000000199,-0.159501441345808070
0.350000000000000200,-0.068354904132688327
0.351000000000000201,0.022406006468870154
0.352000000000000202,0.112717090966165473
0.353000000000000203,0.202515218120858986
0.354000000000000203,0.291738412017473581
0.355000000000000204,0.380325933525876569
0.356000000000000205,0.468218356213472409
0.357000000000000206,0.555357636776600661
0.358000000000000207,0.641687180073097996
0.359000000000000208,0.727151898849363598
0.360000000000000209,0.811698268265451217
0.361000000000000210,0.895274375330823213
0.362000000000000210,0.977829963371496858
0.363000000000000211,1.059316471656422731
0.364000000000000212,1.139687070317090711
0.365000000000000213,1.218896690699752927
0.366000000000000214,1.296902051294068103
0.367000000000000215,1.373661679385757228
0.368000000000000216,1.449135928583843214
0.369000000000000217,1.523286992375370907
0.370000000000000218,1.596078913862217785
0.371000000000000218,1.667477591835728745
0.372000000000000219,1.737450783345410033
0.373000000000000220,1.805968102918102947
0.374000000000000221,1.873001018583478672
0.375000000000000222,1.938522844861045868
0.376000000000000223,2.002508732862502860
0.377000000000000224,2.064935657661776780
0.378000000000000225,2.125782403083076755
0.379000000000000226,2.185029544055194339
0.380000000000000226,2.242659426677729329
0.381000000000000227,2.298656146142260326
0.382000000000000228,2.353005522648530690
0.383000000000000229,2.405695075452571885
0.384000000000000230,2.456713995180556331
0.385000000000000231,2.506053114538541848
0.386000000000000232,2.553704877544912488
0.387000000000000233,2.599663307408623059
0.388000000000000234,2.643923973172597641
0.389000000000000234,2.686483955237866983
0.390000000000000235,2.727341809880264201
0.391000000000000236,2.766497532867448150
0.392000000000000237,2.803952522280356519
0.393000000000000238,2.839709540639065555
0.394000000000000239,2.873772676429270145
0.395000000000000240,2.906147305121664637
0.396000000000000241,2.936840049772612371
0.397000000000000242,2.965858741290669620
0.398000000000000242,2.993212378449750855
0.399000000000000243,3.018911087725892006
0.400000000000000244,3.042966083031054314
0.401000000000000245,3.065389625413448282
0.402000000000000246,3.086194982790650077
0.403000000000000247,3.105396389778007471
0.404000000000000248,3.123009007671529780
0.405000000000000249,3.139048884641037596
0.406000000000000250,3.153532916186141399
0.407000000000000250,3.166478805904335836
0.408000000000000251,3.177905026617505069
0.409000000000000252,3.187830781899983368
0.410000000000000253,3.196275968048517768
0.411000000000000254,3.203261136531527775
0.412000000000000255,3.208807456952384118
0.413000000000000256,3.212936680558727609
0.414000000000000257,3.215671104327297858
0.415000000000000258,3.217033535651257381
0.416000000000000258,3.217047257654633174
0.417000000000000259,3.215735995156150828
0.418000000000000260,3.213123881302595741
0.419000000000000261,3.209235424889678168
0.420000000000000262,3.204095478386340456
0.421000000000000263,3.197729206676528158
0.422000000000000264,3.190162056530593482
0.423000000000000265,3.181419726816687277
0.424000000000000266,3.171528139460834339
0.425000000000000266,3.160513411162754416
0.426000000000000267,3.148401825872995996
0.427000000000000268,3.135219808035423661
0.428000000000000269,3.120993896597780815
0.429000000000000270,3.105750719791747549
0.430000000000000271,3.089516970682569585
0.431000000000000272,3.072319383487320810
0.432000000000000273,3.054184710659642032
0.433000000000000274,3.035139700737822910
0.434000000000000274,3.015211076952049485
0.435000000000000275,2.994425516585869307
0.436000000000000276,2.972809631085904236
0.437000000000000277,2.950389946913152706
0.438000000000000278,2.927192887128462928
0.439000000000000279,2.903244753704061765
0.440000000000000280,2.878571710552352947
0.441000000000000281,2.853199767262719178
0.442000000000000282,2.827154763536365412
0.443000000000000282,2.800462354308916879
0.444000000000000283,2.773147995549875233
0.445000000000000284,2.745236930727753766
0.446000000000000285,2.716754177929277869
0.447000000000000286,2.687724517620710962
0.448000000000000287,2.658172481039087209
0.449000000000000288,2.628122339200892554
0.450000000000000289,2.597598092515422064
0.451000000000000290,2.566623460989984729
0.452000000000000290,2.535221875013838666
0.453000000000000291,2.503416466707661492
0.454000000000000292,2.471230061825254065
0.455000000000000293,2.438685172194062112
0.456000000000000294,2.405803988681068706
0.457000000000000295,2.372608374670587050
0.458000000000000296,2.339119860040390186
0.459000000000000297,2.305359635622752368
0.460000000000000298,2.271348548136834289
0.461000000000000298,2.237107095579098370
0.462000000000000299,2.202655423058248019
0.463000000000000300,2.168013319061498301
0.464000000000000301,2.133200212138908647
0.465000000000000302,2.098235167992737349
0.466000000000000303,2.063136886958730987
0.467000000000000304,2.027923701866614969
0.468000000000000305,1.992613576266970998
0.469000000000000306,1.957224103011973027
0.470000000000000306,1.921772503177604063
0.471000000000000307,1.886275625315033455
0.472000000000000308,1.850749945019178666
0.473000000000000309,1.815211564802500677
0.474000000000000310,1.779676214262411849
0.475000000000000311,1.744159250530674443
0.476000000000000312,1.708675658993685342
0.477000000000000313,1.673240054272335131
0.478000000000000314,1.637866681450728779
0.479000000000000314,1.602569417542994090
0.480000000000000315,1.567361773187769369
0.481000000000000316,1.532256894560092064
0.482000000000000317,1.497267565490701946
0.483000000000000318,1.462406209782926014
0.484000000000000319,1.427684893717579673
0.485000000000000320,1.393115328736527658
0.486000000000000321,1.358708874295760705
0.487000000000000322,1.324476540879090392
0.488000000000000322,1.290428993163738491
0.489000000000000323,1.256576553329427970
0.490000000000000324,1.222929204502637424
0.491000000000000325,1.189496594328068202
0.492000000000000326,1.156288038659476936
0.493000000000000327,1.123312525362315961
0.494000000000000328,1.090578718220780230
0.495000000000000329,1.058094960942129958
0.496000000000000330,1.025869281251326148
0.497000000000000330,0.993909395069244583
0.498000000000000331,0.962222710767934641
0.499000000000000332,0.930816333496641946
0.500000000000000333,0.899697069572391372
0.501000000000000334,0.868871430929270661
0.502000000000000335,0.838345639620661665
0.503000000000000336,0.808125632368902891
0.504000000000000337,0.778217065156994403
0.505000000000000338,0.748625317857245509
0.506000000000000338,0.719355498891844580
0.507000000000000339,0.690412449920565385
0.508000000000000340,0.661800750551004624
0.509000000000000341,0.633524723066900108
0.510000000000000342,0.605588437170244687
0.511000000000000343,0.577995714733090749
0.512000000000000344,0.550750134555101911
0.513000000000000345,0.523855037123077683
0.514000000000000346,0.497313529368771268
0.515000000000000346,0.471128489421593244
0.516000000000000347,0.445302571352812149
0.517000000000000348,0.419838209908091731
0.518000000000000349,0.394737625225309974
0.519000000000000350,0.370002827534787138
0.520000000000000351,0.345635621839091689
0.521000000000000352,0.321637612569847020
0.522000000000000353,0.298010208219001538
0.523000000000000353,0.274754625942150610
0.524000000000000354,0.251871896131706019
0.525000000000000355,0.229362866957690953
0.526000000000000356,0.207228208874197101
0.527000000000000357,0.185468419089541342
0.528000000000000358,0.164083825998282723
0.529000000000000359,0.143074593573486564
0.530000000000000360,0.122440725717510815
0.531000000000000361,0.102182070569891550
0.532000000000000361,0.082298324770861631
0.533000000000000362,0.062789037679226639
0.534000000000000363,0.043653615543323469
0.535000000000000364,0.024891325623947920
0.536000000000000365,0.006501300268175014
0.537000000000000366,-0.011517459066899027
0.538000000000000367,-0.029166077841396236
0.539000000000000368,-0.046445804511709765
0.540000000000000369,-0.063358006662113817
0.541000000000000369,-0.079904167189616598
0.542000000000000370,-0.096085880542664731
0.543000000000000371,-0.111904849014258900
0.544000000000000372,-0.127362879089955860
0.545000000000000373,-0.142461877851178642
0.546000000000000374,-0.157203849434220139
0.547000000000000375,-0.171590891545220725
0.548000000000000376,-0.185625192031408093
0.549000000000000377,-0.199309025508769250
0.550000000000000377,-0.212644750046347031
0.551000000000000378,-0.225634803907231951
0.552000000000000379,-0.238281702346333280
0.553000000000000380,-0.250588034464943821
0.554000000000000381,-0.262556460122059021
0.555000000000000382,-0.274189706902415675
0.556000000000000383,-0.285490567141108431
0.557000000000000384,-0.296461895004681897
0.558000000000000385,-0.307106603628498842
0.559000000000000385,-0.317427662310198033
0.560000000000000386,-0.327428093758976024
0.561000000000000387,-0.337110971400458870
0.562000000000000388,-0.346479416736829304
0.563000000000000389,-0.355536596761932222
0.564000000000000390,-0.364285721430946174
0.565000000000000391,-0.372730041184313854
0.566000000000000392,-0.380872844525487586
0.567000000000000393,-0.388717455652091370
0.568000000000000393,-0.396267232140052217
0.569000000000000394,-0.403525562680259575
0.570000000000000395,-0.410495864867258031
0.571000000000000396,-0.417181583039481052
0.572000000000000397,-0.423586186170541890
0.573000000000000398,-0.429713165811033249
0.574000000000000399,-0.435566034080303033
0.575000000000000400,-0.441148321707668933
0.576000000000000401,-0.446463576122500982
0.577000000000000401,-0.451515359592604970
0.578000000000000402,-0.456307247410322359
0.579000000000000403,-0.460842826125754557
0.580000000000000404,-0.465125691826521137
0.581000000000000405,-0.469159448463433992
0.582000000000000406,-0.472947706221487518
0.583000000000000407,-0.476494079935520898
0.584000000000000408,-0.479802187549978054
0.585000000000000409,-0.482875648622065778
0.586000000000000409,-0.485718082867743983
0.587000000000000410,-0.488333108749878175
0.588000000000000411,-0.490724342107905442
0.589000000000000412,-0.492895394828417099
0.590000000000000413,-0.494849873555959607
0.591000000000000414,-0.496591378443449194
0.592000000000000415,-0.498123501941556079
0.593000000000000416,-0.499449827626380238
0.594000000000000417,-0.500573929064816014
0.595000000000000417,-0.501499368716936900
0.596000000000000418,-0.502229696874762266
0.597000000000000419,-0.502768450636782327
0.598000000000000420,-0.503119152917576029
0.599000000000000421,-0.503285311491912801
0.600000000000000422,-0.503270418072685133
0.601000000000000423,-0.503077947422055027
0.602000000000000424,-0.502711356495173622
0.603000000000000425,-0.502174083615884559
0.604000000000000425,-0.501469547683732308
0.605000000000000426,-0.500601147411724234
0.606000000000000427,-0.499572260594198903
0.607000000000000428,-0.498386243404194018
0.608000000000000429,-0.497046429719743610
0.609000000000000430,-0.495556130478456924
0.610000000000000431,-0.493918633059857559
0.611000000000000432,-0.492137200694823196
0.612000000000000433,-0.490215071901598631
0.613000000000000433,-0.488155459947798409
0.614000000000000434,-0.485961552337815683
0.615000000000000435,-0.483636510325071267
0.616000000000000436,-0.481183468448589668
0.617000000000000437,-0.478605534093305363
0.618000000000000438,-0.475905787073572673
