# Fe110_CYTOSINE
# h[nm],U(h)[kJ/mol]
0.149999999999999994,126.637125866275226826
0.150999999999999995,120.980627691803690027
0.151999999999999996,116.409381251300402482
0.152999999999999997,112.172740253158551127
0.153999999999999998,108.002104914713257244
0.154999999999999999,103.845964665089852019
0.156000000000000000,99.732261485646091614
0.157000000000000001,95.703310169841955712
0.158000000000000002,91.790036742200840081
0.159000000000000002,88.005954421900597140
0.160000000000000003,84.349799909469780346
0.161000000000000004,80.810921082895958989
0.162000000000000005,77.374550663324455968
0.163000000000000006,74.025815703846404858
0.164000000000000007,70.752237829031869865
0.165000000000000008,67.544905746329035878
0.166000000000000009,64.398658191061102229
0.167000000000000010,61.311630121159467421
0.168000000000000010,58.284463691405264285
0.169000000000000011,55.319411487819266426
0.170000000000000012,52.419485537251333085
0.171000000000000013,49.587742375995688349
0.172000000000000014,46.826745612210650904
0.173000000000000015,44.138212837767596852
0.174000000000000016,41.522831531678782824
0.175000000000000017,38.980216200590568576
0.176000000000000018,36.508973857631616511
0.177000000000000018,34.106844779943529034
0.178000000000000019,31.770888454919305133
0.179000000000000020,29.497689304901278717
0.180000000000000021,27.283562141820954849
0.181000000000000022,25.124742648653658250
0.182000000000000023,23.017553076610646201
0.183000000000000024,20.958537545768734844
0.184000000000000025,18.944564743931785245
0.185000000000000026,16.972898431631996630
0.186000000000000026,15.041238038676775446
0.187000000000000027,13.147732872024132433
0.188000000000000028,11.290974153569749205
0.189000000000000029,9.469969379236953699
0.190000000000000030,7.684103440821614228
0.191000000000000031,5.933090671409861905
0.192000000000000032,4.216921542363138542
0.193000000000000033,2.535807219205612029
0.194000000000000034,0.890124626000013075
0.195000000000000034,-0.719635888703440196
0.196000000000000035,-2.292918718968603109
0.197000000000000036,-3.829145916726704790
0.198000000000000037,-5.327754192484504436
0.199000000000000038,-6.788225697493343702
0.200000000000000039,-8.210112577780856569
0.201000000000000040,-9.593055522931893009
0.202000000000000041,-10.936796707664486306
0.203000000000000042,-12.241187648035236180
0.204000000000000042,-13.506192573210574537
0.205000000000000043,-14.731887955057079154
0.206000000000000044,-15.918458848118021365
0.207000000000000045,-17.066192678231647761
0.208000000000000046,-18.175471084945442612
0.209000000000000047,-19.246760376167046047
0.210000000000000048,-20.280601097654901821
0.211000000000000049,-21.277597158780032771
0.212000000000000050,-22.238404892614859421
0.213000000000000050,-23.163722365320133179
0.214000000000000051,-24.054279188957373492
0.215000000000000052,-24.910827034686111148
0.216000000000000053,-25.734130990828436580
0.217000000000000054,-26.524961863143090568
0.218000000000000055,-27.284089473191592390
0.219000000000000056,-28.012276974995483414
0.220000000000000057,-28.710276180189669759
0.221000000000000058,-29.378823857318074886
0.222000000000000058,-30.018638951461561248
0.223000000000000059,-30.630420655597077939
0.224000000000000060,-31.214847254505144747
0.225000000000000061,-31.772575655176542142
0.226000000000000062,-32.304241514025910931
0.227000000000000063,-32.810459870321530218
0.228000000000000064,-33.291826196622999134
0.229000000000000065,-33.748917780258047117
0.230000000000000066,-34.182295354564111278
0.231000000000000066,-34.592504904420273704
0.232000000000000067,-34.980079577176866223
0.233000000000000068,-35.345541637180247108
0.234000000000000069,-35.689404409446972011
0.235000000000000070,-36.012174165463697761
0.236000000000000071,-36.314351911406959061
0.237000000000000072,-36.596435046157424154
0.238000000000000073,-36.858918863215066608
0.239000000000000073,-37.102297876924886566
0.240000000000000074,-37.327066959241058441
0.241000000000000075,-37.533722278547202222
0.242000000000000076,-37.722762036793085372
0.243000000000000077,-37.894687005396342272
0.244000000000000078,-38.050000863994441147
0.245000000000000079,-38.189210349232510566
0.246000000000000080,-38.312825223359276094
0.247000000000000081,-38.421358074504041724
0.248000000000000081,-38.515323962153871662
0.249000000000000082,-38.595239922578493008
0.250000000000000111,-38.661624349798685785
0.251000000000000112,-38.714996268197225504
0.252000000000000113,-38.755874513073592880
0.253000000000000114,-38.784776835373854453
0.254000000000000115,-38.802218946531340293
0.255000000000000115,-38.808713518857558711
0.256000000000000116,-38.804769156265265906
0.257000000000000117,-38.790889349314603862
0.258000000000000118,-38.767571427675349582
0.259000000000000119,-38.735305522123681499
0.260000000000000120,-38.694573547159016869
0.261000000000000121,-38.645848214259117981
0.262000000000000122,-38.589592084707518893
0.263000000000000123,-38.526256669841941971
0.264000000000000123,-38.456281585500633469
0.265000000000000124,-38.380093766396527144
0.266000000000000125,-38.298106745138156271
0.267000000000000126,-38.210719999646570955
0.268000000000000127,-38.118318371800327782
0.269000000000000128,-38.021271559276023311
0.270000000000000129,-37.919933681747281184
0.271000000000000130,-37.814642921861057800
0.272000000000000131,-37.705721240729317856
0.273000000000000131,-37.593474167056129431
0.274000000000000132,-37.478190658464789919
0.275000000000000133,-37.360143033097735099
0.276000000000000134,-37.239586969128183114
0.277000000000000135,-37.116761569449657543
0.278000000000000136,-36.991889488490969029
0.279000000000000137,-36.865177117839607490
0.280000000000000138,-36.736814827142687534
0.281000000000000139,-36.606977256587150293
0.282000000000000139,-36.475823657138143119
0.283000000000000140,-36.343498274632160872
0.284000000000000141,-36.210130773776363355
0.285000000000000142,-36.075836698094903454
0.286000000000000143,-35.940717961882349130
0.287000000000000144,-35.804863370271981182
0.288000000000000145,-35.668349163599039287
0.289000000000000146,-35.531239582331316740
0.290000000000000147,-35.393587448953013563
0.291000000000000147,-35.255434763314681845
0.292000000000000148,-35.116813308105101044
0.293000000000000149,-34.977745261252465525
0.294000000000000150,-34.838243812225300644
0.295000000000000151,-34.698313779371559917
0.296000000000000152,-34.557952225608147501
0.297000000000000153,-34.417149069950866647
0.298000000000000154,-34.275887692552728936
0.299000000000000155,-34.134145531098617710
0.300000000000000155,-33.991894666581998763
0.301000000000000156,-33.849102396666097547
0.302000000000000157,-33.705731795004631124
0.303000000000000158,-33.561742255067052554
0.304000000000000159,-33.417090017177699224
0.305000000000000160,-33.271728677637256055
0.306000000000000161,-33.125609678949118120
0.307000000000000162,-32.978682780320042411
0.308000000000000163,-32.830896507745023882
0.309000000000000163,-32.682198583120531055
0.310000000000000164,-32.532536331956478648
0.311000000000000165,-32.381857069376621894
0.312000000000000166,-32.230108464209799024
0.313000000000000167,-32.077238881078471877
0.314000000000000168,-31.923197700489044593
0.315000000000000169,-31.767935617018633110
0.316000000000000170,-31.611404915776130764
0.317000000000000171,-31.453559727391933620
0.318000000000000171,-31.294356261859785917
0.319000000000000172,-31.133753021617870616
0.320000000000000173,-30.971710994312154241
0.321000000000000174,-30.808193825736175597
0.322000000000000175,-30.643167973485624600
0.323000000000000176,-30.476602841905638286
0.324000000000000177,-30.308470898942108107
0.325000000000000178,-30.138747775536948836
0.326000000000000179,-29.967412348231967201
0.327000000000000179,-29.794446805664069444
0.328000000000000180,-29.619836699651120426
0.329000000000000181,-29.443570981578062629
0.330000000000000182,-29.265642024800872179
0.331000000000000183,-29.086045633790046594
0.332000000000000184,-28.904781040736018838
0.333000000000000185,-28.721850890337485396
0.334000000000000186,-28.537261213488459788
0.335000000000000187,-28.351021390573095005
0.336000000000000187,-28.163144105068177225
0.337000000000000188,-27.973645288141579357
0.338000000000000189,-27.782544054922265531
0.339000000000000190,-27.589862633102733014
0.340000000000000191,-27.395626284518307614
0.341000000000000192,-27.199863220331430114
0.342000000000000193,-27.002604510429470963
0.343000000000000194,-26.803883987626516472
0.344000000000000195,-26.603738147238743750
0.345000000000000195,-26.402206042583021173
0.346000000000000196,-26.199329176926937635
0.347000000000000197,-25.995151392396884660
0.348000000000000198,-25.789718756329687466
0.349000000000000199,-25.583079445530636065
0.350000000000000200,-25.375283628879593323
0.351000000000000201,-25.166383348704361111
0.352000000000000202,-24.956432401319069925
0.353000000000000203,-24.745486217103700000
0.354000000000000203,-24.533601740479397790
0.355000000000000204,-24.320837310113084584
0.356000000000000205,-24.107252539664685287
0.357000000000000206,-23.892908199369351507
0.358000000000000207,-23.677866098727559319
0.359000000000000208,-23.462188970556827172
0.360000000000000209,-23.245940356639319901
0.361000000000000210,-23.029184495182157377
0.362000000000000210,-22.811986210288502264
0.363000000000000211,-22.594410803621361339
0.364000000000000212,-22.376523948424807742
0.365000000000000213,-22.158391586051450872
0.366000000000000214,-21.940079825130016644
0.367000000000000215,-21.721654843491680964
0.368000000000000216,-21.503182792960100045
0.369000000000000217,-21.284729707096385454
0.370000000000000218,-21.066361411977538864
0.371000000000000218,-20.848143440074476729
0.372000000000000219,-20.630140947284250075
0.373000000000000220,-20.412418633160143600
0.374000000000000221,-20.195040664372630346
0.375000000000000222,-19.978070601424487762
0.376000000000000223,-19.761571328634111921
0.377000000000000224,-19.545604987392252383
0.378000000000000225,-19.330232912689190528
0.379000000000000226,-19.115515572901902175
0.380000000000000226,-18.901512512823380519
0.381000000000000227,-18.688282299909747763
0.382000000000000228,-18.475882473714712262
0.383000000000000229,-18.264369498475183207
0.384000000000000230,-18.053798718806302048
0.385000000000000231,-17.844224318460113921
0.386000000000000232,-17.635699282096751972
0.387000000000000233,-17.428275360013770978
0.388000000000000234,-17.222003035775166779
0.389000000000000234,-17.016931496678882496
0.390000000000000235,-16.813108606997950289
0.391000000000000236,-16.610580883928818707
0.392000000000000237,-16.409393476177193349
0.393000000000000238,-16.209590145110659876
0.394000000000000239,-16.011213248404963849
0.395000000000000240,-15.814303726110040316
0.396000000000000241,-15.618901089060281961
0.397000000000000242,-15.425043409552959162
0.398000000000000242,-15.232767314218012444
0.399000000000000243,-15.042107979001864138
0.400000000000000244,-14.853099126187538914
0.401000000000000245,-14.665773023373954942
0.402000000000000246,-14.480160484336602522
0.403000000000000247,-14.296290871692335145
0.404000000000000248,-14.114192101291962445
0.405000000000000249,-13.933890648264107170
0.406000000000000250,-13.755411554635035287
0.407000000000000250,-13.578778438449864652
0.408000000000000251,-13.404013504321355299
0.409000000000000252,-13.231137555333805977
0.410000000000000253,-13.060170006230325868
0.411000000000000254,-12.891128897813436183
0.412000000000000255,-12.724030912489745049
0.413000000000000256,-12.558891390891242068
0.414000000000000257,-12.395724349506778594
0.415000000000000258,-12.234542499259109860
0.416000000000000258,-12.075357264964164727
0.417000000000000259,-11.918178805610761373
0.418000000000000260,-11.763016035400813308
0.419000000000000261,-11.609876645491233660
0.420000000000000262,-11.458767126380950074
0.421000000000000263,-11.309692790887570624
0.422000000000000264,-11.162657797660223480
0.423000000000000265,-11.017665175176585279
0.424000000000000266,-10.874716846174067086
0.425000000000000266,-10.733813652466398736
0.426000000000000267,-10.594955380098804554
0.427000000000000268,-10.458140784796658096
0.428000000000000269,-10.323367617663956608
0.429000000000000270,-10.190632651089776672
0.430000000000000271,-10.059931704822442811
0.431000000000000272,-9.931259672172689790
0.432000000000000273,-9.804610546308875740
0.433000000000000274,-9.679977446608678093
0.434000000000000274,-9.557352645033322602
0.435000000000000275,-9.436727592492001548
0.436000000000000276,-9.318092945165583174
0.437000000000000277,-9.201438590759984493
0.438000000000000278,-9.086753674661489200
0.439000000000000279,-8.974026625967240989
0.440000000000000280,-8.863245183365696889
0.441000000000000281,-8.754396420843287174
0.442000000000000282,-8.647466773194697254
0.443000000000000282,-8.542442061315449919
0.444000000000000283,-8.439307517256906976
0.445000000000000284,-8.338047809024869750
0.446000000000000285,-8.238647065103998912
0.447000000000000286,-8.141088898691968723
0.448000000000000287,-8.045356431627634919
0.449000000000000288,-7.951432317999246102
0.450000000000000289,-7.859298767419346632
0.451000000000000290,-7.768937567954216306
0.452000000000000290,-7.680330108696684199
0.453000000000000291,-7.593457401971960508
0.454000000000000292,-7.508300105167291072
0.455000000000000293,-7.424838542176767753
0.456000000000000294,-7.343052724453897895
0.457000000000000295,-7.262922371664943810
0.458000000000000296,-7.184426931937158756
0.459000000000000297,-7.107545601696611648
0.460000000000000298,-7.032257345091037060
0.461000000000000298,-6.958540912993910865
0.462000000000000299,-6.886374861586635809
0.463000000000000300,-6.815737570516129828
0.464000000000000301,-6.746607260626089619
0.465000000000000302,-6.678962011260468401
0.466000000000000303,-6.612779777138395154
0.467000000000000304,-6.548038404800228030
0.468000000000000305,-6.484715648625109630
0.469000000000000306,-6.422789186420568619
0.470000000000000306,-6.362236634585464401
0.471000000000000307,-6.303035562847755457
0.472000000000000308,-6.245163508579224754
0.473000000000000309,-6.188597990689387096
0.474000000000000310,-6.133316523101422391
0.475000000000000311,-6.079296627813191023
0.476000000000000312,-6.026515847546770388
0.477000000000000313,-5.974951757990080381
0.478000000000000314,-5.924581979634730544
0.479000000000000314,-5.875384189214282848
0.480000000000000315,-5.827336130747329257
0.481000000000000316,-5.780415626190267275
0.482000000000000317,-5.734600585704507481
0.483000000000000318,-5.689869017543380814
0.484000000000000319,-5.646199037563919276
0.485000000000000320,-5.603568878369106443
0.486000000000000321,-5.561956898086055645
0.487000000000000322,-5.521341588785956489
0.488000000000000322,-5.481701584551609940
0.489000000000000323,-5.443015669198539186
0.490000000000000324,-5.405262783655762959
0.491000000000000325,-5.368422033012366867
0.492000000000000326,-5.332472693236057992
0.493000000000000327,-5.297394217570101205
0.494000000000000328,-5.263166242614884638
0.495000000000000329,-5.229768594100557166
0.496000000000000330,-5.197181292357148763
0.497000000000000330,-5.165384557488600592
0.498000000000000331,-5.134358814257220516
0.499000000000000332,-5.104084696684987321
0.500000000000000333,-5.074543052378204244
0.501000000000000334,-5.045714946581986382
0.502000000000000335,-5.017581665971002636
0.503000000000000336,-4.990124722182956774
0.504000000000000337,-4.963325855101162531
0.505000000000000338,-4.937167035892666256
0.506000000000000338,-4.911630469808203614
0.507000000000000339,-4.886698598750321310
0.508000000000000340,-4.862354103615924572
0.509000000000000341,-4.838579906419450793
0.510000000000000342,-4.815359172202820837
0.511000000000000343,-4.792675310738269800
0.512000000000000344,-4.770511978030074651
0.513000000000000345,-4.748853077621150831
0.514000000000000346,-4.727682761710442882
0.515000000000000346,-4.706985432086876919
0.516000000000000347,-4.686745740885645439
0.517000000000000348,-4.666948591172570104
0.518000000000000349,-4.647579137361994128
0.519000000000000350,-4.628622785473826440
0.520000000000000351,-4.610065193235160841
0.521000000000000352,-4.591892270031756595
0.522000000000000353,-4.574090176714680211
0.523000000000000353,-4.556645325267262514
0.524000000000000354,-4.539544378337468267
0.525000000000000355,-4.522774248640679673
0.526000000000000356,-4.506322098237727225
0.527000000000000357,-4.490175337693086632
0.528000000000000358,-4.474321625117875456
0.529000000000000359,-4.458748865102284853
0.530000000000000360,-4.443445207542049857
0.531000000000000361,-4.428399046363302283
0.532000000000000361,-4.413599018150227593
0.533000000000000362,-4.399034000679750811
0.534000000000000363,-4.384693111367434781
0.535000000000000364,-4.370565705628608022
0.536000000000000365,-4.356641375158804230
0.537000000000000366,-4.342909946137284649
0.538000000000000367,-4.329361477357517529
0.539000000000000368,-4.315986258288308619
0.540000000000000369,-4.302774807069160268
0.541000000000000369,-4.289717868443426063
0.542000000000000370,-4.276806411632710692
0.543000000000000371,-4.264031628155773745
0.544000000000000372,-4.251384929595344531
0.545000000000000373,-4.238857945315889886
0.546000000000000374,-4.226442520135508474
0.547000000000000375,-4.214130711954905628
0.548000000000000376,-4.201914789346457013
0.549000000000000377,-4.189787229106094912
0.550000000000000377,-4.177740713770823788
0.551000000000000378,-4.165768129104608697
0.552000000000000379,-4.153862561555122568
0.553000000000000380,-4.142017295683965372
0.554000000000000381,-4.130225811572762140
0.555000000000000382,-4.118481782207542352
0.556000000000000383,-4.106779070843636248
0.557000000000000384,-4.095111728353412417
0.558000000000000385,-4.083473990558907474
0.559000000000000385,-4.071860275551514086
0.560000000000000386,-4.060265181000669799
0.561000000000000387,-4.048683481453560162
0.562000000000000388,-4.037110125627677348
0.563000000000000389,-4.025540233698039927
0.564000000000000390,-4.013969094580845720
0.565000000000000391,-4.002392163215258591
0.566000000000000392,-3.990805057844909243
0.567000000000000393,-3.979203557300722505
0.568000000000000393,-3.967583598286528179
0.569000000000000394,-3.955941272668971553
0.570000000000000395,-3.944272824773055852
0.571000000000000396,-3.932574648684660445
0.572000000000000397,-3.920843285561373737
0.573000000000000398,-3.909075420952794477
0.574000000000000399,-3.897267882131534300
0.575000000000000400,-3.885417635436033912
0.576000000000000401,-3.873521783626249437
0.577000000000000401,-3.861577563253296042
0.578000000000000402,-3.849582342043979200
0.579000000000000403,-3.837533616301169737
0.580000000000000404,-3.825429008320929025
0.581000000000000405,-3.813266263827254754
0.582000000000000406,-3.801043249425167581
0.583000000000000407,-3.788757950073036618
0.584000000000000408,-3.776408466574773026
0.585000000000000409,-3.763993013092609807
0.586000000000000409,-3.751509914681145030
0.587000000000000410,-3.738957604843237359
0.588000000000000411,-3.726334623108322752
0.589000000000000412,-3.713639612633746090
0.590000000000000413,-3.700871317829546037
0.591000000000000414,-3.688028582007258471
0.592000000000000415,-3.675110345053101746
0.593000000000000416,-3.662115641126008736
0.594000000000000417,-3.649043596380892929
0.595000000000000417,-3.635893426717486054
0.596000000000000418,-3.622664435555057683
0.597000000000000419,-3.609356011633407579
0.598000000000000420,-3.595967626840267606
0.599000000000000421,-3.582498834065498183
0.600000000000000422,-3.568949265082221878
0.601000000000000423,-3.555318628455120145
0.602000000000000424,-3.541606707476078864
0.603000000000000425,-3.527813358127342092
0.604000000000000425,-3.513938507072275286
0.605000000000000426,-3.499982149673900977
0.606000000000000427,-3.485944348041290830
0.607000000000000428,-3.471825229103820298
