# Fe110_ADENINE
# h[nm],U(h)[kJ/mol]
0.149999999999999994,142.141046721065038128
0.150999999999999995,136.184273969618772071
0.151999999999999996,130.952776787209870690
0.152999999999999997,125.959036935357744369
0.153999999999999998,121.034850893167373442
0.154999999999999999,116.154145980157267104
0.156000000000000000,111.341297323914290018
0.157000000000000001,106.628104877609118262
0.158000000000000002,102.037080856509575710
0.159000000000000002,97.577890506091833345
0.160000000000000003,93.249510697061850806
0.161000000000000004,89.044147298920080402
0.162000000000000005,84.950998642161607677
0.163000000000000006,80.959104980845637556
0.164000000000000007,77.059131340660002252
0.165000000000000008,73.244216726262905581
0.166000000000000009,69.510126677035842135
0.167000000000000010,65.854954703239585001
0.168000000000000010,62.278582374397160493
0.169000000000000011,58.782056828231091572
0.170000000000000012,55.366993604387403138
0.171000000000000013,52.035069160121814491
0.172000000000000014,48.787633659216680826
0.173000000000000015,45.625450571708384473
0.174000000000000016,42.548554002159470144
0.175000000000000017,39.556205762231030576
0.176000000000000018,36.646930289307562134
0.177000000000000018,33.818605052712129577
0.178000000000000019,31.068585826652594051
0.179000000000000020,28.393849177743174295
0.180000000000000021,25.791138011532307672
0.181000000000000022,23.257099565457068024
0.182000000000000023,20.788408519814527864
0.183000000000000024,18.381870751819754162
0.184000000000000025,16.034505604969410797
0.185000000000000026,13.743606376925004753
0.186000000000000026,11.506780076175378014
0.187000000000000027,9.321968417205281909
0.188000000000000028,7.187452583434113862
0.189000000000000029,5.101844556879363779
0.190000000000000030,3.064067860111767239
0.191000000000000031,1.073330439672414816
0.192000000000000032,-0.870907807623449770
0.193000000000000033,-2.768970660446056886
0.194000000000000034,-4.621002476688026661
0.195000000000000034,-6.427004840597483337
0.196000000000000035,-8.186871747704453028
0.197000000000000036,-9.900422427263752212
0.198000000000000037,-11.567431175331948978
0.199000000000000038,-13.187653808630972918
0.200000000000000039,-14.760850548544677707
0.201000000000000040,-16.286805306638274971
0.202000000000000041,-17.765341470183592776
0.203000000000000042,-19.196334381500459898
0.204000000000000042,-20.579720772230782444
0.205000000000000043,-21.915505456918847216
0.206000000000000044,-23.203765613456930339
0.207000000000000045,-24.444652984851895638
0.208000000000000046,-25.638394330884420214
0.209000000000000047,-26.785290442700720348
0.210000000000000048,-27.885714010945768848
0.211000000000000049,-28.940106611053174390
0.212000000000000050,-29.948975039707534052
0.213000000000000050,-30.912887205863249562
0.214000000000000051,-31.832467749296636583
0.215000000000000052,-32.708393530429006546
0.216000000000000053,-33.541389107780680945
0.217000000000000054,-34.332222294368968107
0.218000000000000055,-35.081699861933806517
0.219000000000000056,-35.790663442196418487
0.220000000000000057,-36.459985657452655516
0.221000000000000058,-37.090566498588948718
0.222000000000000058,-37.683329956956455931
0.223000000000000059,-38.239220907244188652
0.224000000000000060,-38.759202231344090706
0.225000000000000061,-39.244252167959274402
0.226000000000000062,-39.695361869124873522
0.227000000000000063,-40.113533142653899688
0.228000000000000064,-40.499776358550938937
0.229000000000000065,-40.855108497443801241
0.230000000000000066,-41.180551319859162618
0.231000000000000066,-41.477129636541505420
0.232000000000000067,-41.745869661816399798
0.233000000000000068,-41.987797434095078586
0.234000000000000069,-42.203937289885011808
0.235000000000000070,-42.395310380009412654
0.236000000000000071,-42.562933219065612889
0.237000000000000072,-42.707816261400587621
0.238000000000000073,-42.830962498999909371
0.239000000000000073,-42.933366078633724783
0.240000000000000074,-43.016010937357243904
0.241000000000000075,-43.079869457001031208
0.242000000000000076,-43.125901139602909495
0.243000000000000077,-43.155051306826727853
0.244000000000000078,-43.168249827286580000
0.245000000000000079,-43.166409876357263897
0.246000000000000080,-43.150426733515956812
0.247000000000000081,-43.121176622541241841
0.248000000000000081,-43.079515600008321030
0.249000000000000082,-43.026278497484554464
0.250000000000000111,-42.962277922663588470
0.251000000000000112,-42.888303324397504923
0.252000000000000113,-42.805120126215669529
0.253000000000000114,-42.713468932467996808
0.254000000000000115,-42.614064810723405685
0.255000000000000115,-42.507596653498488593
0.256000000000000116,-42.394726621808175082
0.257000000000000117,-42.276089672427474397
0.258000000000000118,-42.152293170144886858
0.259000000000000119,-42.023916585683920744
0.260000000000000120,-41.891511279377979804
0.261000000000000121,-41.755600370112588848
0.262000000000000122,-41.616678688505118089
0.263000000000000123,-41.475212812780291927
0.264000000000000123,-41.331641185324023979
0.265000000000000124,-41.186374307461186106
0.266000000000000125,-41.039795009609214560
0.267000000000000126,-40.892258793605734013
0.268000000000000127,-40.744094243701809432
0.269000000000000128,-40.595603502446110156
0.270000000000000129,-40.447062807464661205
0.271000000000000130,-40.298723084960407448
0.272000000000000131,-40.150810595618665388
0.273000000000000131,-40.003527628503562141
0.274000000000000132,-39.857053238468068912
0.275000000000000133,-39.711544022571416690
0.276000000000000134,-39.567134931001653797
0.277000000000000135,-39.423940108034102536
0.278000000000000136,-39.282053758618467043
0.279000000000000137,-39.141551036271209796
0.280000000000000138,-39.002488948059102825
0.281000000000000139,-38.864907272585639930
0.282000000000000139,-38.728829487037003787
0.283000000000000140,-38.594263699503144949
0.284000000000000141,-38.461203582960152403
0.285000000000000142,-38.329629307482775857
0.286000000000000143,-38.199508467444196924
0.287000000000000144,-38.070797000657080389
0.288000000000000145,-37.943440096609229784
0.289000000000000146,-37.817373091150003006
0.290000000000000147,-37.692522345188180566
0.291000000000000147,-37.568806105164277653
0.292000000000000148,-37.446135343263527773
0.293000000000000149,-37.324414575533879201
0.294000000000000150,-37.203542656269334543
0.295000000000000151,-37.083413547209673311
0.296000000000000152,-36.963917060292615702
0.297000000000000153,-36.844939572873862232
0.298000000000000154,-36.726364714502764741
0.299000000000000155,-36.608074024506663591
0.300000000000000155,-36.489947579794694832
0.301000000000000156,-36.371864592441596642
0.302000000000000157,-36.253703976753818949
0.303000000000000158,-36.135344885653871927
0.304000000000000159,-36.016667216344089297
0.305000000000000160,-35.897552085327696147
0.306000000000000161,-35.777882272973968725
0.307000000000000162,-35.657542637914602324
0.308000000000000163,-35.536420501650681558
0.309000000000000163,-35.414406003834031367
0.310000000000000164,-35.291392428763735722
0.311000000000000165,-35.167276503707313395
0.312000000000000166,-35.041958669718418662
0.313000000000000167,-34.915343325677525854
0.314000000000000168,-34.787339046330565395
0.315000000000000169,-34.657858775141839658
0.316000000000000170,-34.526819992813841509
0.317000000000000171,-34.394144862355908288
0.318000000000000171,-34.259760351608022688
0.319000000000000172,-34.123598334145931688
0.320000000000000173,-33.985595669507063121
0.321000000000000174,-33.845694263687320813
0.322000000000000175,-33.703841110863649533
0.323000000000000176,-33.559988317299669802
0.324000000000000177,-33.414093108388748021
0.325000000000000178,-33.266117819783815435
0.326000000000000179,-33.116029873554971630
0.327000000000000179,-32.963801740304141674
0.328000000000000180,-32.809410888152363839
0.329000000000000181,-32.652839719499475279
0.330000000000000182,-32.494075496437041295
0.331000000000000183,-32.333110255676118072
0.332000000000000184,-32.169940713829369372
0.333000000000000185,-32.004568163864036023
0.334000000000000186,-31.836998363518425492
0.335000000000000187,-31.667241416448728586
0.336000000000000187,-31.495311646847785170
0.337000000000000188,-31.321227468249503545
0.338000000000000189,-31.145011247206706884
0.339000000000000190,-30.966689162501456423
0.340000000000000191,-30.786291060519310747
0.341000000000000192,-30.603850307391589070
0.342000000000000193,-30.419403638480321916
0.343000000000000194,-30.232991005754200842
0.344000000000000195,-30.044655423574443631
0.345000000000000195,-29.854442813383464284
0.346000000000000196,-29.662401847760833107
0.347000000000000197,-29.468583794285017063
0.348000000000000198,-29.273042359612777119
0.349000000000000199,-29.075833534162143224
0.350000000000000200,-28.877015437760370276
0.351000000000000201,-28.676648166592762834
0.352000000000000202,-28.474793641765000274
0.353000000000000203,-28.271515459768227885
0.354000000000000203,-28.066878745113491789
0.355000000000000204,-27.860950005380281880
0.356000000000000205,-27.653796988903195597
0.357000000000000206,-27.445488545300246841
0.358000000000000207,-27.236094489026562826
0.359000000000000208,-27.025685466119206524
0.360000000000000209,-26.814332824280075585
0.361000000000000210,-26.602108486427368916
0.362000000000000210,-26.389084827829115909
0.363000000000000211,-26.175334556917029261
0.364000000000000212,-25.960930599864077806
0.365000000000000213,-25.745945988994662912
0.366000000000000214,-25.530453755083502898
0.367000000000000215,-25.314526823586028570
0.368000000000000216,-25.098237914831774020
0.369000000000000217,-24.881659448200565521
0.370000000000000218,-24.664863450290937408
0.371000000000000218,-24.447921467080266922
0.372000000000000219,-24.230904480066875806
0.373000000000000220,-24.013882826375667179
0.374000000000000221,-23.796926122800922343
0.375000000000000222,-23.580103193752339763
0.376000000000000223,-23.363482003063534620
0.377000000000000224,-23.147129589615914824
0.378000000000000225,-22.931112006725054897
0.379000000000000226,-22.715494265231118476
0.380000000000000226,-22.500340280230648915
0.381000000000000227,-22.285712821381636672
0.382000000000000228,-22.071673466711118294
0.383000000000000229,-21.858282559849943283
0.384000000000000230,-21.645599170616652174
0.385000000000000231,-21.433681058870011071
0.386000000000000232,-21.222584641546617945
0.387000000000000233,-21.012364962798638857
0.388000000000000234,-20.803075667144504735
0.389000000000000234,-20.594768975544582190
0.390000000000000235,-20.387495664311817478
0.391000000000000236,-20.181305046767615607
0.392000000000000237,-19.976244957551575254
0.393000000000000238,-19.772361739494130006
0.394000000000000239,-19.569700232960407504
0.395000000000000240,-19.368303767574268193
0.396000000000000241,-19.168214156231318412
0.397000000000000242,-18.969471691310140216
0.398000000000000242,-18.772115142992198855
0.399000000000000243,-18.576181759600778776
0.400000000000000244,-18.381707269870705801
0.401000000000000245,-18.188725887062020092
0.402000000000000246,-17.997270314831048665
0.403000000000000247,-17.807371754774216299
0.404000000000000248,-17.619059915561287255
0.405000000000000249,-17.432363023576009198
0.406000000000000250,-17.247307834983683250
0.407000000000000250,-17.063919649146949808
0.408000000000000251,-16.882222323312522150
0.409000000000000252,-16.702238288493695961
0.410000000000000253,-16.523988566474784534
0.411000000000000254,-16.347492787865864017
0.412000000000000255,-16.172769211137755008
0.413000000000000256,-15.999834742569358781
0.414000000000000257,-15.828704957040931944
0.415000000000000258,-15.659394119609297391
0.416000000000000258,-15.491915207802643195
0.417000000000000259,-15.326279934574339237
0.418000000000000260,-15.162498771857709556
0.419000000000000261,-15.000580974664847744
0.420000000000000262,-14.840534605675207658
0.421000000000000263,-14.682366560261254307
0.422000000000000264,-14.526082591900344454
0.423000000000000265,-14.371687337923981787
0.424000000000000266,-14.219184345557689397
0.425000000000000266,-14.068576098206055036
0.426000000000000267,-13.919864041939799648
0.427000000000000268,-13.773048612143421465
0.428000000000000269,-13.628129260283463609
0.429000000000000270,-13.485104480759659396
0.430000000000000271,-13.343971837802452995
0.431000000000000272,-13.204727992382379043
0.432000000000000273,-13.067368729098323143
0.433000000000000274,-12.931888983013291039
0.434000000000000274,-12.798282866407838299
0.435000000000000275,-12.666543695422998184
0.436000000000000276,-12.536664016565886470
0.437000000000000277,-12.408635633052638170
0.438000000000000278,-12.282449630964865861
0.439000000000000279,-12.158096405197168721
0.440000000000000280,-12.035565685174390183
0.441000000000000281,-11.914846560318895996
0.442000000000000282,-11.795927505249322209
0.443000000000000282,-11.678796404693269295
0.444000000000000283,-11.563440578097942790
0.445000000000000284,-11.449846803923680483
0.446000000000000285,-11.338001343606304516
0.447000000000000286,-11.227889965175801734
0.448000000000000287,-11.119497966519137577
0.449000000000000288,-11.012810198276762108
0.450000000000000289,-10.907811086362743325
0.451000000000000290,-10.804484654099718810
0.452000000000000290,-10.702814543960666782
0.453000000000000291,-10.602784038910273878
0.454000000000000292,-10.504376083339682424
0.455000000000000293,-10.407573303588899094
0.456000000000000294,-10.312358028052290848
0.457000000000000295,-10.218712306862901329
0.458000000000000296,-10.126617931152384955
0.459000000000000297,-10.036056451883712981
0.460000000000000298,-9.947009198254676221
0.461000000000000298,-9.859457295670617683
0.462000000000000299,-9.773381683285585098
0.463000000000000300,-9.688763131111432614
0.464000000000000301,-9.605582256695104348
0.465000000000000302,-9.523819541364749952
0.466000000000000303,-9.443455346045734444
0.467000000000000304,-9.364469926648068210
0.468000000000000305,-9.286843449027374575
0.469000000000000306,-9.210556003521537249
0.470000000000000306,-9.135587619065987042
0.471000000000000307,-9.061918276890441604
0.472000000000000308,-8.989527923800775255
0.473000000000000309,-8.918396485049505884
0.474000000000000310,-8.848503876798995194
0.475000000000000311,-8.779830018181565165
0.476000000000000312,-8.712354842961172352
0.477000000000000313,-8.646058310801119973
0.478000000000000314,-8.580920418142961026
0.479000000000000314,-8.516921208701743851
0.480000000000000315,-8.454040783582692953
0.481000000000000316,-8.392259311025108914
0.482000000000000317,-8.331557035778875075
0.483000000000000318,-8.271914288119502245
0.484000000000000319,-8.213311492507465061
0.485000000000000320,-8.155729175897993954
0.486000000000000321,-8.099147975707271740
0.487000000000000322,-8.043548647441262744
0.488000000000000322,-7.988912071993444997
0.489000000000000323,-7.935219262617771108
0.490000000000000324,-7.882451371583155897
0.491000000000000325,-7.830589696516016218
0.492000000000000326,-7.779615686437149513
0.493000000000000327,-7.729510947499558249
0.494000000000000328,-7.680257248433628448
0.495000000000000329,-7.631836525706162888
0.496000000000000330,-7.584230888399739356
0.497000000000000330,-7.537422622818925610
0.498000000000000331,-7.491394196829739727
0.499000000000000332,-7.446128263938874170
0.500000000000000333,-7.401607667119039391
0.501000000000000334,-7.357815442386842264
0.502000000000000335,-7.314734822139540071
0.503000000000000336,-7.272349238256968995
0.504000000000000337,-7.230642324974899893
0.505000000000000338,-7.189597921536024394
0.506000000000000338,-7.149200074624720180
0.507000000000000339,-7.109433040591642161
0.508000000000000340,-7.070281287474254661
0.509000000000000341,-7.031729496819133729
0.510000000000000342,-6.993762565312022339
0.511000000000000343,-6.956365606221396547
0.512000000000000344,-6.919523950661263356
0.513000000000000345,-6.883223148678919934
0.514000000000000346,-6.847448970173159566
0.515000000000000346,-6.812187405648470140
0.516000000000000347,-6.777424666810594189
0.517000000000000348,-6.743147187008882604
0.518000000000000349,-6.709341621530453992
0.519000000000000350,-6.675994847751577588
0.520000000000000351,-6.643093965151143365
0.521000000000000352,-6.610626295191262436
0.522000000000000353,-6.578579381069869392
0.523000000000000353,-6.546940987350085450
0.524000000000000354,-6.515699099471101263
0.525000000000000355,-6.484841923145092224
0.526000000000000356,-6.454357883644735061
0.527000000000000357,-6.424235624985759507
0.528000000000000358,-6.394464009008752114
0.529000000000000359,-6.365032114364592708
0.530000000000000360,-6.335929235407530058
0.531000000000000361,-6.307144881000034786
0.532000000000000361,-6.278668773233314404
0.533000000000000362,-6.250490846067407347
0.534000000000000363,-6.222601243894607670
0.535000000000000364,-6.194990320029878816
0.536000000000000365,-6.167648635131885548
0.537000000000000366,-6.140566955558144357
0.538000000000000367,-6.113736251657650556
0.539000000000000368,-6.087147696004419295
0.540000000000000369,-6.060792661575056250
0.541000000000000369,-6.034662719873601588
0.542000000000000370,-6.008749639006710552
0.543000000000000371,-5.983045381712089217
0.544000000000000372,-5.957542103343199891
0.545000000000000373,-5.932232149812953104
0.546000000000000374,-5.907108055499216803
0.547000000000000375,-5.882162541114709597
0.548000000000000376,-5.857388511544023402
0.549000000000000377,-5.832779053650098966
0.550000000000000377,-5.808327434052688254
0.551000000000000378,-5.784027096881198204
0.552000000000000379,-5.759871661504105234
0.553000000000000380,-5.735854920237228427
0.554000000000000381,-5.711970836032964627
0.555000000000000382,-5.688213540152623260
0.556000000000000383,-5.664577329823740293
0.557000000000000384,-5.641056665884471855
0.558000000000000385,-5.617646170416805695
0.559000000000000385,-5.594340624370493842
0.560000000000000386,-5.571134965179373566
0.561000000000000387,-5.548024284371828152
0.562000000000000388,-5.525003825177003947
0.563000000000000389,-5.502068980128271392
0.564000000000000390,-5.479215288665539418
0.565000000000000391,-5.456438434737819421
0.566000000000000392,-5.433734244407435909
0.567000000000000393,-5.411098683457243652
0.568000000000000393,-5.388527855002096523
0.569000000000000394,-5.366017997105854143
0.570000000000000395,-5.343565480405115586
0.571000000000000396,-5.321166805740704220
0.572000000000000397,-5.298818601798189754
0.573000000000000398,-5.276517622758277071
0.574000000000000399,-5.254260745958209355
0.575000000000000400,-5.232044969565065706
0.576000000000000401,-5.209867410261856513
0.577000000000000401,-5.187725300947330531
0.578000000000000402,-5.165615988450259266
0.579000000000000403,-5.143536931259002465
0.580000000000000404,-5.121485697267122994
0.581000000000000405,-5.099459961535719899
0.582000000000000406,-5.077457504073164429
0.583000000000000407,-5.055476207632864316
0.584000000000000408,-5.033514055529674458
0.585000000000000409,-5.011569129475488715
0.586000000000000409,-4.989639607434549262
0.587000000000000410,-4.967723761499009960
0.588000000000000411,-4.945819955785160538
0.589000000000000412,-4.923926644350792969
0.590000000000000413,-4.902042369134091970
0.591000000000000414,-4.880165757914467051
0.592000000000000415,-4.858295522295621893
0.593000000000000416,-4.836430455711248300
0.594000000000000417,-4.814569431453579185
0.595000000000000417,-4.792711400725161219
0.596000000000000418,-4.770855390713983013
0.597000000000000419,-4.749000502692335424
0.598000000000000420,-4.727145910139437746
0.599000000000000421,-4.705290856888167284
0.600000000000000422,-4.683434655295965143
0.601000000000000423,-4.661576684440086105
0.602000000000000424,-4.639716388337313369
0.603000000000000425,-4.617853274188259860
0.604000000000000425,-4.595986910646297829
0.605000000000000426,-4.574116926111233106
0.606000000000000427,-4.552243007047777290
0.607000000000000428,-4.530364896328769930
