# Fe110_CHLORANE-AC
# h[nm],U(h)[kJ/mol]
0.149999999999999994,93.816531667238791670
0.150999999999999995,93.409435733995877627
0.151999999999999996,91.101462209278309956
0.152999999999999997,88.344242569109766805
0.153999999999999998,85.730209069583622750
0.154999999999999999,83.416315161791573018
0.156000000000000000,81.366729295263013455
0.157000000000000001,79.483547528458302622
0.158000000000000002,77.670496189865232850
0.159000000000000002,75.858340868090891718
0.160000000000000003,74.009880772137350391
0.161000000000000004,72.115292347092221803
0.162000000000000005,70.184002695248494774
0.163000000000000006,68.236391943067232546
0.164000000000000007,66.296870071147239400
0.165000000000000008,64.388854294972617254
0.166000000000000009,62.531620933206681912
0.167000000000000010,60.738742166887149665
0.168000000000000010,59.017725497627409936
0.169000000000000011,57.370476104471251233
0.170000000000000012,55.794251948032830057
0.171000000000000013,54.282849464639092218
0.172000000000000014,52.827827444190106121
0.173000000000000015,51.419639492665361047
0.174000000000000016,50.048597536424530574
0.175000000000000017,48.705629227310446083
0.176000000000000018,47.382821558979891563
0.177000000000000018,46.073762993686401046
0.178000000000000019,44.773708692024349887
0.179000000000000020,43.479599789009519384
0.180000000000000021,42.189969651232487990
0.181000000000000022,40.904769024736005179
0.182000000000000023,39.625139027737546371
0.183000000000000024,38.353156897936656833
0.184000000000000025,37.091574896085816704
0.185000000000000026,35.843568238627376843
0.186000000000000026,34.612503677828826198
0.187000000000000027,33.401736548096415902
0.188000000000000028,32.214440845266537394
0.189000000000000029,31.053474231942992390
0.190000000000000030,29.921277753033983515
0.191000000000000031,28.819808459912088949
0.192000000000000032,27.750502020812668036
0.193000000000000033,26.714261672986555851
0.194000000000000034,25.711469480761259376
0.195000000000000034,24.742015737516418028
0.196000000000000035,23.805342428289080203
0.197000000000000036,22.900496899618630664
0.198000000000000037,22.026192218043117776
0.199000000000000038,21.180871099571493943
0.200000000000000039,20.362770727856752018
0.201000000000000040,19.569986223664010083
0.202000000000000041,18.800530963438980336
0.203000000000000042,18.052392356329264089
0.204000000000000042,17.323582067216381830
0.205000000000000043,16.612180012100612458
0.206000000000000044,15.916371748348453252
0.207000000000000045,15.234479134958462510
0.208000000000000046,14.564984347945150844
0.209000000000000047,13.906547505281181998
0.210000000000000048,13.258018287551404768
0.211000000000000049,12.618442038102587688
0.212000000000000050,11.987060893863658251
0.213000000000000050,11.363310539120410780
0.214000000000000051,10.746813193253663243
0.215000000000000052,10.137367443534799349
0.216000000000000053,9.534935519014151595
0.217000000000000054,8.939628574539000283
0.218000000000000055,8.351690517879880815
0.219000000000000056,7.771480870369151361
0.220000000000000057,7.199457104570326393
0.221000000000000058,6.636156853188185600
0.222000000000000058,6.082180333268032868
0.223000000000000059,5.538173280017708144
0.224000000000000060,5.004810636347255759
0.225000000000000061,4.482781198265258560
0.226000000000000062,3.972773373196914370
0.227000000000000063,3.475462168519315664
0.228000000000000064,2.991497491417436816
0.229000000000000065,2.521493808690530969
0.230000000000000066,2.066021186425400558
0.231000000000000066,1.625597704448076941
0.232000000000000067,1.200683219057092632
0.233000000000000068,0.791674429558005932
0.234000000000000069,0.398901189356109187
0.235000000000000070,0.022623990586138797
0.236000000000000071,-0.336967457785090407
0.237000000000000072,-0.679754645016498626
0.238000000000000073,-1.005689757800297013
0.239000000000000073,-1.314794357009646975
0.240000000000000074,-1.607157326075418169
0.241000000000000075,-1.882932184312578361
0.242000000000000076,-2.142333856510249213
0.243000000000000077,-2.385634987062593915
0.244000000000000078,-2.613161883045017397
0.245000000000000079,-2.825290166107565337
0.246000000000000080,-3.022440208024122832
0.247000000000000081,-3.205072419345130985
0.248000000000000081,-3.373682454977394940
0.249000000000000082,-3.528796394768202394
0.250000000000000111,-3.670965951397428650
0.251000000000000112,-3.800763752160745579
0.252000000000000113,-3.918778735629165233
0.253000000000000114,-4.025611698748829070
0.254000000000000115,-4.121871024748710255
0.255000000000000115,-4.208168617285126700
0.256000000000000116,-4.285116061600430015
0.257000000000000117,-4.353321029126351327
0.258000000000000118,-4.413383937933348378
0.259000000000000119,-4.465894877722730527
0.260000000000000120,-4.511430804679753770
0.261000000000000121,-4.550553008449698567
0.262000000000000122,-4.583804850760398786
0.263000000000000123,-4.611709772782726979
0.264000000000000123,-4.634769566184928635
0.265000000000000124,-4.653462900982509254
0.266000000000000125,-4.668244101698964421
0.267000000000000126,-4.679542162016555373
0.268000000000000127,-4.687759986995172490
0.269000000000000128,-4.693273851052954804
0.270000000000000129,-4.696433059218319883
0.271000000000000130,-4.697559798661897545
0.272000000000000131,-4.696949167181967866
0.273000000000000131,-4.694869365131885353
0.274000000000000132,-4.691562037227120285
0.275000000000000133,-4.687242750737643959
0.276000000000000134,-4.682101596744059790
0.277000000000000135,-4.676303901399811558
0.278000000000000136,-4.669991034484004544
0.279000000000000137,-4.663281302937936523
0.280000000000000138,-4.656270917542729038
0.281000000000000139,-4.649035021404608337
0.282000000000000139,-4.641628769459896553
0.283000000000000140,-4.634088448784234870
0.284000000000000141,-4.626432630083180619
0.285000000000000142,-4.618663341346239903
0.286000000000000143,-4.610767255258306996
0.287000000000000144,-4.602716882574702240
0.288000000000000145,-4.594471764275351866
0.289000000000000146,-4.585979655913652309
0.290000000000000147,-4.577177698164886621
0.291000000000000147,-4.567993568152504125
0.292000000000000148,-4.558346606687084801
0.293000000000000149,-4.548148917088989052
0.294000000000000150,-4.537306431780480764
0.295000000000000151,-4.525719943324910233
0.296000000000000152,-4.513286097058068158
0.297000000000000153,-4.499898342899623316
0.298000000000000154,-4.485447844349898183
0.299000000000000155,-4.469824343069063843
0.300000000000000155,-4.452916977802073184
0.301000000000000156,-4.434615056753221651
0.302000000000000157,-4.414808782830014877
0.303000000000000158,-4.393389931466842313
0.304000000000000159,-4.370252481006053458
0.305000000000000160,-4.345293195857339974
0.306000000000000161,-4.318412162877623750
0.307000000000000162,-4.289513281612860496
0.308000000000000163,-4.258504709221492490
0.309000000000000163,-4.225299261058316880
0.310000000000000164,-4.189814768037004811
0.311000000000000165,-4.151974392011483772
0.312000000000000166,-4.111706900521625130
0.313000000000000167,-4.068946902337597038
0.314000000000000168,-4.023635045311733549
0.315000000000000169,-3.975718178107121137
0.316000000000000170,-3.925149477419751065
0.317000000000000171,-3.871888542346574980
0.318000000000000171,-3.815901457576400979
0.319000000000000172,-3.757160827094991440
0.320000000000000173,-3.695645780100948574
0.321000000000000174,-3.631341950825514253
0.322000000000000175,-3.564241433938631243
0.323000000000000176,-3.494342717205741966
0.324000000000000177,-3.421650593035646004
0.325000000000000178,-3.346176050530382806
0.326000000000000179,-3.267936149613733132
0.327000000000000179,-3.186953878776197957
0.328000000000000180,-3.103257997931989642
0.329000000000000181,-3.016882867838596827
0.330000000000000182,-2.927868267480537412
0.331000000000000183,-2.836259200769620570
0.332000000000000184,-2.742105693861239146
0.333000000000000185,-2.645462584333287737
0.334000000000000186,-2.546389303419752892
0.335000000000000187,-2.444949652435971288
0.336000000000000187,-2.341211574477238155
0.337000000000000188,-2.235246922416876725
0.338000000000000189,-2.127131224174692470
0.339000000000000190,-2.016943446171766574
0.340000000000000191,-1.904765755833158325
0.341000000000000192,-1.790683283946957305
0.342000000000000193,-1.674783887634940793
0.343000000000000194,-1.557157914639365703
0.344000000000000195,-1.437897969579496227
0.345000000000000195,-1.317098682783043984
0.346000000000000196,-1.194856482249891494
0.347000000000000197,-1.071269369259455484
0.348000000000000198,-0.946436698088771400
0.349000000000000199,-0.820458960265122550
0.350000000000000200,-0.693437573736211843
0.351000000000000201,-0.565474677300813910
0.352000000000000202,-0.436672930605346898
0.353000000000000203,-0.307135319975329502
0.354000000000000203,-0.176964970316165982
0.355000000000000204,-0.046264963284958237
0.356000000000000205,0.084861838096208328
0.357000000000000206,0.216312958244606252
0.358000000000000207,0.347986471125837138
0.359000000000000208,0.479781155580631058
0.360000000000000209,0.611596643807589158
0.361000000000000210,0.743333562962977035
0.362000000000000210,0.874893669860583478
0.363000000000000211,1.006179978774750960
0.364000000000000212,1.137096882368556106
0.365000000000000213,1.267550265786698827
0.366000000000000214,1.397447613968648472
0.367000000000000215,1.526698112252601991
0.368000000000000216,1.655212740354414125
0.369000000000000217,1.782904359818113349
0.370000000000000218,1.909687795046027814
0.371000000000000218,2.035479908026808005
0.372000000000000219,2.160199666888794390
0.373000000000000220,2.283768208414611145
0.374000000000000221,2.406108894659932940
0.375000000000000222,2.527147363826109050
0.376000000000000223,2.646811575541691219
0.377000000000000224,2.765031850712848627
0.378000000000000225,2.881740906106609934
0.379000000000000226,2.996873883834298979
0.380000000000000226,3.110368375905133487
0.381000000000000227,3.222164444022058483
0.382000000000000228,3.332204634793340947
0.383000000000000229,3.440433990534246700
0.384000000000000230,3.546800055833838172
0.385000000000000231,3.651252880061431227
0.386000000000000232,3.753745015987097311
0.387000000000000233,3.854231514689541171
0.388000000000000234,3.952669916923361448
0.389000000000000234,4.049020241116108920
0.390000000000000235,4.143244968163664055
0.391000000000000236,4.235309023190022337
0.392000000000000237,4.325179754435380275
0.393000000000000238,4.412826909433342770
0.394000000000000239,4.498222608635382258
0.395000000000000240,4.581341316637411509
0.396000000000000241,4.662159811160048406
0.397000000000000242,4.740657149930749270
0.398000000000000242,4.816814635612284512
0.399000000000000243,4.890615778918444789
0.400000000000000244,4.962046260054187030
0.401000000000000245,5.031093888613131782
0.402000000000000246,5.097748562061978461
0.403000000000000247,5.162002222937037921
0.404000000000000248,5.223848814874146207
0.405000000000000249,5.283284237589321641
0.406000000000000250,5.340306300923318261
0.407000000000000250,5.394914678059308244
0.408000000000000251,5.447110858018879398
0.409000000000000252,5.496898097537377126
0.410000000000000253,5.544281372415897025
0.411000000000000254,5.589267328443000338
0.412000000000000255,5.631864231975501234
0.413000000000000256,5.672081920263718047
0.414000000000000257,5.709931751602841388
0.415000000000000258,5.745426555388180923
0.416000000000000258,5.778580582148578948
0.417000000000000259,5.809409453628376241
0.418000000000000260,5.837930112985053377
0.419000000000000261,5.864160775165977668
0.420000000000000262,5.888120877524352537
0.421000000000000263,5.909831030731183432
0.422000000000000264,5.929312970036755281
0.423000000000000265,5.946589506932088653
0.424000000000000266,5.961684481257551127
0.425000000000000266,5.974622713803051433
0.426000000000000267,5.985429959441193049
0.427000000000000268,5.994132860831986598
0.428000000000000269,6.000758902735020328
0.429000000000000270,6.005336366962319872
0.430000000000000271,6.007894288002566086
0.431000000000000272,6.008462409344936361
0.432000000000000273,6.007071140528386977
0.433000000000000274,6.003751514939947853
0.434000000000000274,5.998535148383354887
0.435000000000000275,5.991454198437272893
0.436000000000000276,5.982541324620322953
0.437000000000000277,5.971829649378049609
0.438000000000000278,5.959352719905307794
0.439000000000000279,5.945144470815538540
0.440000000000000280,5.929239187666786925
0.441000000000000281,5.911671471352738294
0.442000000000000282,5.892476203365253795
0.443000000000000282,5.871688511933717436
0.444000000000000283,5.849343739044749135
0.445000000000000284,5.825477408344729824
0.446000000000000285,5.800125193926228384
0.447000000000000286,5.773322889998122598
0.448000000000000287,5.745106381438150223
0.449000000000000288,5.715511615225539188
0.450000000000000289,5.684574572750199728
0.451000000000000290,5.652331242994208971
0.452000000000000290,5.618817596580194973
0.453000000000000291,5.584069560680516631
0.454000000000000292,5.548122994780225525
0.455000000000000293,5.511013667286137618
0.456000000000000294,5.472777232973563777
0.457000000000000295,5.433449211261671685
0.458000000000000296,5.393064965307711844
0.459000000000000297,5.351659681910008182
0.460000000000000298,5.309268352208773578
0.461000000000000298,5.265925753173725354
0.462000000000000299,5.221666429866624881
0.463000000000000300,5.176524678466821072
0.464000000000000301,5.130534530047290431
0.465000000000000302,5.083729735088478918
0.466000000000000303,5.036143748716801483
0.467000000000000304,4.987809716654627579
0.468000000000000305,4.938760461868085372
0.469000000000000306,4.889028471899036887
0.470000000000000306,4.838645886867330326
0.471000000000000307,4.787644488129186193
0.472000000000000308,4.736055687577673368
0.473000000000000309,4.683910517570932797
0.474000000000000310,4.631239621473890899
0.475000000000000311,4.578073244798952501
0.476000000000000312,4.524441226931520177
0.477000000000000313,4.470372993425617558
0.478000000000000314,4.415897548855474142
0.479000000000000314,4.361043470208562312
0.480000000000000315,4.305838900805795788
0.481000000000000316,4.250311544734629798
0.482000000000000317,4.194488661780863659
0.483000000000000318,4.138397062845042385
0.484000000000000319,4.082063105829470295
0.485000000000000320,4.025512691981917079
0.486000000000000321,3.968771262682303735
0.487000000000000322,3.911863796658696657
0.488000000000000322,3.854814807619130423
0.489000000000000323,3.797648342285994794
0.490000000000000324,3.740387978819728065
0.491000000000000325,3.683056825618894692
0.492000000000000326,3.625677520483770788
0.493000000000000327,3.568272230130877354
0.494000000000000328,3.510862650045916578
0.495000000000000329,3.453470004662962278
0.496000000000000330,3.396115047857759528
0.497000000000000330,3.338818063743355768
0.498000000000000331,3.281598867756330584
0.499000000000000332,3.224476808022348706
0.500000000000000333,3.167470766989614717
0.501000000000000334,3.110599163319360816
0.502000000000000335,3.053879954022527876
0.503000000000000336,2.997330636832107320
0.504000000000000337,2.940968252800725491
0.505000000000000338,2.884809389113399458
0.506000000000000338,2.828870182105542419
0.507000000000000339,2.773166320476494473
0.508000000000000340,2.717713048689152533
0.509000000000000341,2.662525170546467201
0.510000000000000342,2.607617052935721880
0.511000000000000343,2.553002629731840667
0.512000000000000344,2.498695405851113271
0.513000000000000345,2.444708461447002712
0.514000000000000346,2.391054456239817938
0.515000000000000346,2.337745633972395431
0.516000000000000347,2.284793826984003129
0.517000000000000348,2.232210460894987314
0.518000000000000349,2.180006559394814136
0.519000000000000350,2.128192749126504246
0.520000000000000351,2.076779264660413737
0.521000000000000352,2.025775953550833286
0.522000000000000353,1.975192281468804323
0.523000000000000353,1.925037337404863935
0.524000000000000354,1.875319838935707084
0.525000000000000355,1.826048137548701877
0.526000000000000356,1.777230224018699234
0.527000000000000357,1.728873733831493009
0.528000000000000358,1.680985952648553994
0.529000000000000359,1.633573821808009585
0.530000000000000360,1.586643943856681060
0.531000000000000361,1.540202588108493753
0.532000000000000361,1.494255696224509933
0.533000000000000362,1.448808887810162149
0.534000000000000363,1.403867466025313648
0.535000000000000364,1.359436423202983635
0.536000000000000365,1.315520446472747462
0.537000000000000366,1.272123923384941957
0.538000000000000367,1.229250947531944416
0.539000000000000368,1.186905324163020525
0.540000000000000369,1.145090575789253551
0.541000000000000369,1.103809947775347577
0.542000000000000370,1.063066413915111363
0.543000000000000371,1.022862681987650735
0.544000000000000372,0.983201199291373507
0.545000000000000373,0.944084158153095876
0.546000000000000374,0.905513501409562216
0.547000000000000375,0.867490927858960426
0.548000000000000376,0.830017897679971917
0.549000000000000377,0.793095637816171317
0.550000000000000377,0.756725147323522473
0.551000000000000378,0.720907202679018200
0.552000000000000379,0.685642363048477033
0.553000000000000380,0.650930975511655907
0.554000000000000381,0.616773180242972119
0.555000000000000382,0.583168915646175678
0.556000000000000383,0.550117923441427181
0.557000000000000384,0.517619753703358887
0.558000000000000385,0.485673769848716019
0.559000000000000385,0.454279153572327121
0.560000000000000386,0.423434909730228015
0.561000000000000387,0.393139871168790012
0.562000000000000388,0.363392703498864045
0.563000000000000389,0.334191909813937094
0.564000000000000390,0.305535835351493978
0.565000000000000391,0.277422672096693801
0.566000000000000392,0.249850463327675604
0.567000000000000393,0.222817108101815153
0.568000000000000393,0.196320365682310538
0.569000000000000394,0.170357859904536474
0.570000000000000395,0.144927083481743990
0.571000000000000396,0.120025402249604604
0.572000000000000397,0.095650059349273342
0.573000000000000398,0.071798179348633445
0.574000000000000399,0.048466772301488895
0.575000000000000400,0.025652737744432653
0.576000000000000401,0.003352868631291672
0.577000000000000401,-0.018436144795023330
0.578000000000000402,-0.039717711193324554
0.579000000000000403,-0.060495334377622376
0.580000000000000404,-0.080772609633292011
0.581000000000000405,-0.100553220095864676
0.582000000000000406,-0.119840933192369437
0.583000000000000407,-0.138639597145090554
0.584000000000000408,-0.156953137537614251
0.585000000000000409,-0.174785553942917643
0.586000000000000409,-0.192140916613364382
0.587000000000000410,-0.209023363232281267
0.588000000000000411,-0.225437095726864628
0.589000000000000412,-0.241386377142138731
0.590000000000000413,-0.256875528575573164
0.591000000000000414,-0.271908926172058085
0.592000000000000415,-0.286490998178829614
0.593000000000000416,-0.300626222059939330
0.594000000000000417,-0.314319121669872081
0.595000000000000417,-0.327574264485813782
0.596000000000000418,-0.340396258898180759
0.597000000000000419,-0.352789751558856279
0.598000000000000420,-0.364759424786692321
0.599000000000000421,-0.376309994029723427
0.600000000000000422,-0.387446205383603026
0.601000000000000423,-0.398172833165669315
0.602000000000000424,-0.408494677544136209
0.603000000000000425,-0.418416562221839150
0.604000000000000425,-0.427943332173891744
0.605000000000000426,-0.437079851438752442
0.606000000000000427,-0.445831000962053914
0.607000000000000428,-0.454201676492584361
0.608000000000000429,-0.462196786529847803
0.609000000000000430,-0.469821250322508710
0.610000000000000431,-0.477079995917185584
0.611000000000000432,-0.483977958256867180
0.612000000000000433,-0.490520077328362447
0.613000000000000433,-0.496711296358152476
0.614000000000000434,-0.502556560055934742
0.615000000000000435,-0.508060812905253512
0.616000000000000436,-0.513228997500569273
0.617000000000000437,-0.518066052930066023
0.618000000000000438,-0.522576913203563032
