# Cr2O3-001_DGL-AC
# h[nm],U(h)[kJ/mol]
0.149999999999999994,204.099446877312800552
0.150999999999999995,201.356025452176680801
0.151999999999999996,198.404605064763870814
0.152999999999999997,195.436246397731679281
0.153999999999999998,192.533231842777951215
0.154999999999999999,189.717808817799607368
0.156000000000000000,186.982813032284497012
0.157000000000000001,184.309918683510630899
0.158000000000000002,181.679693957750089339
0.159000000000000002,179.076432618027979515
0.160000000000000003,176.489822560116806471
0.161000000000000004,173.914840732953109637
0.162000000000000005,171.350778688099637748
0.163000000000000006,168.799960445048384372
0.164000000000000007,166.266478641739638533
0.165000000000000008,163.755117731523171187
0.166000000000000009,161.270532259083495319
0.167000000000000010,158.816687219222188787
0.168000000000000010,156.396533636445354887
0.169000000000000011,154.011876612348913795
0.170000000000000012,151.663388576679750486
0.171000000000000013,149.350722721069757881
0.172000000000000014,147.072687435551046065
0.173000000000000015,144.827449926712631623
0.174000000000000016,142.612744764588484259
0.175000000000000017,140.426070116539278843
0.176000000000000018,138.264860483701284011
0.177000000000000018,136.126629705918333002
0.178000000000000019,134.009081844517652371
0.179000000000000020,131.910190378358663565
0.180000000000000021,129.828248092706559191
0.181000000000000022,127.761891255096855957
0.182000000000000023,125.710102308710361285
0.183000000000000024,123.672195511181683969
0.184000000000000025,121.647789827056087120
0.185000000000000026,119.636773047494187949
0.186000000000000026,117.639260644016644619
0.187000000000000027,115.655552328620984781
0.188000000000000028,113.686088739023034577
0.189000000000000029,111.731410129912887896
0.190000000000000030,109.792118452563187248
0.191000000000000031,107.868843760445813018
0.192000000000000032,105.962215495291914635
0.193000000000000033,104.072838888596493234
0.194000000000000034,102.201276456497524237
0.195000000000000034,100.348034367234276942
0.196000000000000035,98.513553314380487791
0.197000000000000036,96.698203429245651819
0.198000000000000037,94.902282705403621321
0.199000000000000038,93.126018380478086556
0.200000000000000039,91.369570718691321076
0.201000000000000040,89.633038656394049326
0.202000000000000041,87.916466806611637708
0.203000000000000042,86.219853363028235549
0.204000000000000042,84.543158494926615276
0.205000000000000043,82.886312879223339678
0.206000000000000044,81.249226071304036623
0.207000000000000045,79.631794470864591062
0.208000000000000046,78.033908690869836278
0.209000000000000047,76.455460185958088459
0.210000000000000048,74.896347040412450724
0.211000000000000049,73.356478854755678753
0.212000000000000050,71.835780703907474276
0.213000000000000050,70.334196168686432316
0.214000000000000051,68.851689466384101479
0.215000000000000052,67.388246725455104524
0.216000000000000053,65.943876464394833192
0.217000000000000054,64.518609346002065763
0.218000000000000055,63.112497285868279562
0.219000000000000056,61.725611998528052027
0.220000000000000057,60.358043066662652620
0.221000000000000058,59.009895618492215874
0.222000000000000058,57.681287696390597830
0.223000000000000059,56.372347396185901403
0.224000000000000060,55.083209851882067198
0.225000000000000061,53.814014134951435153
0.226000000000000062,52.564900131163525998
0.227000000000000063,51.336005451354687068
0.228000000000000064,50.127462425804040436
0.229000000000000065,48.939395225120790656
0.230000000000000066,47.771917143908005698
0.231000000000000066,46.625128077051172681
0.232000000000000067,45.499112212377198716
0.233000000000000068,44.393935957701977202
0.234000000000000069,43.309646114981809717
0.235000000000000070,42.246268309435095034
0.236000000000000071,41.203805677124151430
0.237000000000000072,40.182237810587295712
0.238000000000000073,39.181519958685477434
0.239000000000000073,38.201582473866608325
0.240000000000000074,37.242330497529771094
0.241000000000000075,36.303643872077664412
0.242000000000000076,35.385377266545624764
0.243000000000000077,34.487360501363319543
0.244000000000000078,33.609399056812648610
0.245000000000000079,32.751274749058389091
0.246000000000000080,31.912746557219186627
0.247000000000000081,31.093551584781589980
0.248000000000000081,30.293406138713180553
0.249000000000000082,29.512006909871381310
0.250000000000000111,28.749032238705730435
0.251000000000000112,28.004143450789285907
0.252000000000000113,27.276986247362877691
0.253000000000000114,26.567192136817276094
0.254000000000000115,25.874379893846708001
0.255000000000000115,25.198157033870536736
0.256000000000000116,24.538121291217642295
0.257000000000000117,23.893862090488095618
0.258000000000000118,23.264962001436437333
0.259000000000000119,22.650998168646815145
0.260000000000000120,22.051543708185327830
0.261000000000000121,21.466169064310474113
0.262000000000000122,20.894443320189910906
0.263000000000000123,20.335935457408123028
0.264000000000000123,19.790215559847762705
0.265000000000000124,19.256855958285516550
0.266000000000000125,18.735432312758273810
0.267000000000000126,18.225524630425230299
0.268000000000000127,17.726718217274282097
0.269000000000000128,17.238604562598890624
0.270000000000000129,16.760782155701093643
0.271000000000000130,16.292857234759772211
0.272000000000000131,15.834444468242661941
0.273000000000000131,15.385167569634052853
0.274000000000000132,14.944659846602480258
0.275000000000000133,14.512564686043043949
0.276000000000000134,14.088535976700573116
0.277000000000000135,13.672238471315178998
0.278000000000000136,13.263348090430465476
0.279000000000000137,12.861552170171956178
0.280000000000000138,12.466549656439731564
0.281000000000000139,12.078051248066410395
0.282000000000000139,11.695779491573762954
0.283000000000000140,11.319468830218088584
0.284000000000000141,10.948865610050209085
0.285000000000000142,10.583728045731096046
0.286000000000000143,10.223826148841180128
0.287000000000000144,9.868941621403159559
0.288000000000000145,9.518867717303489684
0.289000000000000146,9.173409074253370932
0.290000000000000147,8.832381518871049053
0.291000000000000147,8.495611847401855599
0.292000000000000148,8.162937584516193112
0.293000000000000149,7.834206722544578838
0.294000000000000150,7.509277443420442566
0.295000000000000151,7.188017825509342984
0.296000000000000152,6.870305537407285890
0.297000000000000153,6.556027520692270016
0.298000000000000154,6.245079663512738577
0.299000000000000155,5.937366466795347186
0.300000000000000155,5.632800704752488841
0.301000000000000156,5.331303081269194166
0.302000000000000157,5.032801883647496588
0.303000000000000158,4.737232635088116872
0.304000000000000159,4.444537747191080079
0.305000000000000160,4.154666173662016959
0.306000000000000161,3.867573066317729680
0.307000000000000162,3.583219434394489866
0.308000000000000163,3.301571808075356440
0.309000000000000163,3.022601907068733329
0.310000000000000164,2.746286314989329291
0.311000000000000165,2.472606160215492288
0.312000000000000166,2.201546803822707954
0.313000000000000167,1.933097535122663357
0.314000000000000168,1.667251275270366095
0.315000000000000169,1.404004289338307343
0.316000000000000170,1.143355907196830668
0.317000000000000171,0.885308253483528373
0.318000000000000171,0.629865986891652407
0.319000000000000172,0.377036048957554659
0.320000000000000173,0.126827422481483099
0.321000000000000174,-0.120749100327330994
0.322000000000000175,-0.365681139930267740
0.323000000000000176,-0.607954941749206723
0.324000000000000177,-0.847555578686677302
0.325000000000000178,-1.084467143926850508
0.326000000000000179,-1.318672934097106175
0.327000000000000179,-1.550155622895071250
0.328000000000000180,-1.778897425310048686
0.329000000000000181,-2.004880252588440825
0.330000000000000182,-2.228085858111723105
0.331000000000000183,-2.448495974372495887
0.332000000000000184,-2.666092441248447908
0.333000000000000185,-2.880857325787319567
0.334000000000000186,-3.092773033726828213
0.335000000000000187,-3.301822412983001609
0.336000000000000187,-3.507988849348494309
0.337000000000000188,-3.711256354648200251
0.338000000000000189,-3.911609647605467366
0.339000000000000190,-4.109034227675461892
0.340000000000000191,-4.303516442104814210
0.341000000000000192,-4.495043546478770580
0.342000000000000193,-4.683603759017175960
0.343000000000000194,-4.869186308880762759
0.344000000000000195,-5.051781478747412457
0.345000000000000195,-5.231380641917172447
0.346000000000000196,-5.407976294201173317
0.347000000000000197,-5.581562080847272789
0.348000000000000198,-5.752132818750938625
0.349000000000000199,-5.919684514195976632
0.350000000000000200,-6.084214376364914578
0.351000000000000201,-6.245720826853900398
0.352000000000000202,-6.404203505421344644
0.353000000000000203,-6.559663272194204531
0.354000000000000203,-6.712102206549734440
0.355000000000000204,-6.861523602884181727
0.356000000000000205,-7.007931963473938985
0.357000000000000206,-7.151332988628363196
0.358000000000000207,-7.291733564326167816
0.359000000000000208,-7.429141747521683214
0.360000000000000209,-7.563566749300107972
0.361000000000000210,-7.695018916054055858
0.362000000000000210,-7.823509708847575794
0.363000000000000211,-7.949051681126732660
0.364000000000000212,-8.071658454929476534
0.365000000000000213,-8.191344695740955473
0.366000000000000214,-8.308126086133908572
0.367000000000000215,-8.422019298327493075
0.368000000000000216,-8.533041965791749561
0.369000000000000217,-8.641212654018412209
0.370000000000000218,-8.746550830573207591
0.371000000000000218,-8.849076834538482927
0.372000000000000219,-8.948811845449561986
0.373000000000000220,-9.045777851822508708
0.374000000000000221,-9.139997619365441750
0.375000000000000222,-9.231494658960226474
0.376000000000000223,-9.320293194496638733
0.377000000000000224,-9.406418130635387342
0.378000000000000225,-9.489895020572273410
0.379000000000000226,-9.570750033870456974
0.380000000000000226,-9.649009924424051476
0.381000000000000227,-9.724701998611017473
0.382000000000000228,-9.797854083690085147
0.383000000000000229,-9.868494496491662105
0.384000000000000230,-9.936652012449268767
0.385000000000000231,-10.002355835014299146
0.386000000000000232,-10.065635565493106895
0.387000000000000233,-10.126521173342442950
0.388000000000000234,-10.185042966955595745
0.389000000000000234,-10.241231564968874324
0.390000000000000235,-10.295117868114912696
0.391000000000000236,-10.346733031646554224
0.392000000000000237,-10.396108438352351655
0.393000000000000238,-10.443275672182350533
0.394000000000000239,-10.488266492500162741
0.395000000000000240,-10.531112808975365169
0.396000000000000241,-10.571846657127910163
0.397000000000000242,-10.610500174534227114
0.398000000000000242,-10.647105577702962620
0.399000000000000243,-10.681695139626201652
0.400000000000000244,-10.714301168010678111
0.401000000000000245,-10.744955984191648213
0.402000000000000246,-10.773691902730599068
0.403000000000000247,-10.800541211696854660
0.404000000000000248,-10.825536153631523106
0.405000000000000249,-10.848708907191250361
0.406000000000000250,-10.870091569467955850
0.407000000000000250,-10.889716138979860460
0.408000000000000251,-10.907614499328037283
0.409000000000000252,-10.923818403511868169
0.410000000000000253,-10.938359458895964949
0.411000000000000254,-10.951269112820465779
0.412000000000000255,-10.962578638845688062
0.413000000000000256,-10.972319123621929293
0.414000000000000257,-10.980521454374079227
0.415000000000000258,-10.987216306990873704
0.416000000000000258,-10.992434134707478322
0.417000000000000259,-10.996205157370315675
0.418000000000000260,-10.998559351272239937
0.419000000000000261,-10.999526439546130518
0.420000000000000262,-10.999135883104573352
0.421000000000000263,-10.997416872113225494
0.422000000000000264,-10.994398317984979130
0.423000000000000265,-10.990108845882289756
0.424000000000000266,-10.984576787714676271
0.425000000000000266,-10.977830175618233710
0.426000000000000267,-10.969896735904233864
0.427000000000000268,-10.960803883463622554
0.428000000000000269,-10.950578716614263186
0.429000000000000270,-10.939248012377964514
0.430000000000000271,-10.926838222174064086
0.431000000000000272,-10.913375467916754502
0.432000000000000273,-10.898885538503154891
0.433000000000000274,-10.883393886679375129
0.434000000000000274,-10.866925626271884298
0.435000000000000275,-10.849505529771613865
0.436000000000000276,-10.831158026258490779
0.437000000000000277,-10.811907199654012146
0.438000000000000278,-10.791776787289936834
0.439000000000000279,-10.770790178781165736
0.440000000000000280,-10.748970415191028138
0.441000000000000281,-10.726340188477600179
0.442000000000000282,-10.702921841209706244
0.443000000000000282,-10.678737366541461995
0.444000000000000283,-10.653808408434619182
0.445000000000000284,-10.628156262117951059
0.446000000000000285,-10.601801874773261858
0.447000000000000286,-10.574765846438010541
0.448000000000000287,-10.547068431114251297
0.449000000000000288,-10.518729538074557794
0.450000000000000289,-10.489768733355102626
0.451000000000000290,-10.460205241426823619
0.452000000000000290,-10.430057947035678012
0.453000000000000291,-10.399345397203074270
0.454000000000000292,-10.368085803378033205
0.455000000000000293,-10.336297043732763257
0.456000000000000294,-10.303996665593547988
0.457000000000000295,-10.271201887999170665
0.458000000000000296,-10.237929604379139903
0.459000000000000297,-10.204196385344539877
0.460000000000000298,-10.170018481584136794
0.461000000000000298,-10.135411826859016315
0.462000000000000299,-10.100392041088925410
0.463000000000000300,-10.064974433523826036
0.464000000000000301,-10.029174005994558883
0.465000000000000302,-9.993005456236350170
0.466000000000000303,-9.956483181279441652
0.467000000000000304,-9.919621280901267824
0.468000000000000305,-9.882433561134535083
0.469000000000000306,-9.844933537826186409
0.470000000000000306,-9.807134440242169404
0.471000000000000307,-9.769049214712957507
0.472000000000000308,-9.730690528315493637
0.473000000000000309,-9.692070772586800942
0.474000000000000310,-9.653202067265109321
0.475000000000000311,-9.614096264054266427
0.476000000000000312,-9.574764950407649522
0.477000000000000313,-9.535219453327584915
0.478000000000000314,-9.495470843176764930
0.479000000000000314,-9.455529937498228676
0.480000000000000315,-9.415407304840453406
0.481000000000000316,-9.375113268584589932
0.482000000000000317,-9.334657910770596700
0.483000000000000318,-9.294051075919636418
0.484000000000000319,-9.253302374849770473
0.485000000000000320,-9.212421188482547763
0.486000000000000321,-9.171416671637881990
0.487000000000000322,-9.130297756814957921
0.488000000000000322,-9.089073157956775617
0.489000000000000323,-9.047751374196536744
0.490000000000000324,-9.006340693583556600
0.491000000000000325,-8.964849196787039176
0.492000000000000326,-8.923284760775802127
0.493000000000000327,-8.881655062472415096
0.494000000000000328,-8.839967582380079847
0.495000000000000329,-8.798229608180843542
0.496000000000000330,-8.756448238303708109
0.497000000000000330,-8.714630385461470397
0.498000000000000331,-8.672782780154864923
0.499000000000000332,-8.630911974143220533
0.500000000000000333,-8.589024343880323542
0.501000000000000334,-8.547126093914579670
0.502000000000000335,-8.505223260252746442
0.503000000000000336,-8.463321713686266179
0.504000000000000337,-8.421427163079538758
0.505000000000000338,-8.379545158619412959
0.506000000000000338,-8.337681095025363476
0.507000000000000339,-8.295840214719705230
0.508000000000000340,-8.254027610957429317
0.509000000000000341,-8.212248230915276892
0.510000000000000342,-8.170506878739493217
0.511000000000000343,-8.128808218552157072
0.512000000000000344,-8.087156777415625442
0.513000000000000345,-8.045556948254958485
0.514000000000000346,-8.004012992738193333
0.515000000000000346,-7.962529044114146082
0.516000000000000347,-7.921109110007806819
0.517000000000000348,-7.879757075173261960
0.518000000000000349,-7.838476704203936940
0.519000000000000350,-7.797271644200462148
0.520000000000000351,-7.756145427395881420
0.521000000000000352,-7.715101473738617877
0.522000000000000353,-7.674143093432988394
0.523000000000000353,-7.633273489437603310
0.524000000000000354,-7.592495759921805032
0.525000000000000355,-7.551812900680206830
0.526000000000000356,-7.511227807505638232
0.527000000000000357,-7.470743278520791009
0.528000000000000358,-7.430362016468626152
0.529000000000000359,-7.390086630962082737
0.530000000000000360,-7.349919640693111766
0.531000000000000361,-7.309863475601575900
0.532000000000000361,-7.269920479004198910
0.533000000000000362,-7.230092909683984104
0.534000000000000363,-7.190382943940420546
0.535000000000000364,-7.150792677600895431
0.536000000000000365,-7.111324127993633226
0.537000000000000366,-7.071979235882656312
0.538000000000000367,-7.032759867364996254
0.539000000000000368,-6.993667815730863602
0.540000000000000369,-6.954704803286856141
0.541000000000000369,-6.915872483142962324
0.542000000000000370,-6.877172440963526867
0.543000000000000371,-6.838606196682817995
0.544000000000000372,-6.800175206185572918
0.545000000000000373,-6.761880862952994065
0.546000000000000374,-6.723724499674635702
0.547000000000000375,-6.685707389826648139
0.548000000000000376,-6.647830749216933732
0.549000000000000377,-6.610095737497556634
0.550000000000000377,-6.572503459644984503
0.551000000000000378,-6.535054967408548521
0.552000000000000379,-6.497751260727733680
0.553000000000000380,-6.460593289118625293
0.554000000000000381,-6.423581953030047309
0.555000000000000382,-6.386718105169993720
0.556000000000000383,-6.350002551802553796
0.557000000000000384,-6.313436054016160703
0.558000000000000385,-6.277019328963275413
0.559000000000000385,-6.240753051072299051
0.560000000000000386,-6.204637853231976585
0.561000000000000387,-6.168674327948851399
0.562000000000000388,-6.132863028478203304
0.563000000000000389,-6.097204469928995785
0.564000000000000390,-6.061699130343191300
0.565000000000000391,-6.026347451749997752
0.566000000000000392,-5.991149841195434256
0.567000000000000393,-5.956106671747725123
0.568000000000000393,-5.921218283478893341
0.569000000000000394,-5.886484984423040245
0.570000000000000395,-5.851907051511842539
0.571000000000000396,-5.817484731487452265
0.572000000000000397,-5.783218241793575132
0.573000000000000398,-5.749107771444816883
0.574000000000000399,-5.715153481874990504
0.575000000000000400,-5.681355507764604518
0.576000000000000401,-5.647713957848041311
0.577000000000000401,-5.614228915700897105
0.578000000000000402,-5.580900440507709170
0.579000000000000403,-5.547728567810567668
0.580000000000000404,-5.514713310239136135
0.581000000000000405,-5.481854658222149013
0.582000000000000406,-5.449152580681117186
0.583000000000000407,-5.416607025706327683
0.584000000000000408,-5.384217921215748603
0.585000000000000409,-5.351985175597017808
0.586000000000000409,-5.319908678332956775
0.587000000000000410,-5.287988300611034198
0.588000000000000411,-5.256223895916933841
0.589000000000000412,-5.224615300612835966
0.590000000000000413,-5.193162334500462052
0.591000000000000414,-5.161864801369466349
0.592000000000000415,-5.130722489531377661
0.593000000000000416,-5.099735172339395994
0.594000000000000417,-5.068902608694400236
0.595000000000000417,-5.038224543537598521
0.596000000000000418,-5.007700708329775097
0.597000000000000419,-4.977330821517942816
0.598000000000000420,-4.947114588989169448
0.599000000000000421,-4.917051704512315879
0.600000000000000422,-4.887141850167656898
0.601000000000000423,-4.857384696764825982
0.602000000000000424,-4.827779904249332787
0.603000000000000425,-4.798327122097897579
0.604000000000000425,-4.769025989702845081
0.605000000000000426,-4.739876136745893476
0.606000000000000427,-4.710877183561603232
0.607000000000000428,-4.682028741490482204
0.608000000000000429,-4.653330413222495743
0.609000000000000430,-4.624781793130620322
0.610000000000000431,-4.596382467595216959
0.611000000000000432,-4.568132015319069872
