# Cr2O3-001_HSPSCA-AC
# h[nm],U(h)[kJ/mol]
0.149999999999999994,149.606897476026631466
0.150999999999999995,147.576366098932822979
0.151999999999999996,145.265567914242922143
0.152999999999999997,142.901267142639710528
0.153999999999999998,140.570451840571251978
0.154999999999999999,138.294416139768429730
0.156000000000000000,136.068386695800143116
0.157000000000000001,133.881036493521463626
0.158000000000000002,131.722781560079226892
0.159000000000000002,129.588229236822684243
0.160000000000000003,127.475902406925499122
0.161000000000000004,125.386966614421197619
0.162000000000000005,123.323840937608636636
0.163000000000000006,121.289080410529621190
0.164000000000000007,119.284645936226297636
0.165000000000000008,117.311540605892759004
0.166000000000000009,115.369733393811628730
0.167000000000000010,113.458277111570055240
0.168000000000000010,111.575535596722801301
0.169000000000000011,109.719452517215430021
0.170000000000000012,107.887813659174682357
0.171000000000000013,106.078472404621265923
0.172000000000000014,104.289522682399962150
0.173000000000000015,102.519414587668649119
0.174000000000000016,100.767015354047941855
0.175000000000000017,99.031622964800959608
0.176000000000000018,97.312942032552953719
0.177000000000000018,95.611032266302601101
0.178000000000000019,93.926239407591594954
0.179000000000000020,92.259117384338054535
0.180000000000000021,90.610348931630952052
0.181000000000000022,88.980670304726544373
0.182000000000000023,87.370804125920074057
0.183000000000000024,85.781402968560584554
0.184000000000000025,84.213005046430495781
0.185000000000000026,82.666002369192483457
0.186000000000000026,81.140620945075028203
0.187000000000000027,79.636912045422434403
0.188000000000000028,78.154753168024896581
0.189000000000000029,76.693857118651635574
0.190000000000000030,75.253787543154544437
0.191000000000000031,73.833979257175712974
0.192000000000000032,72.433761810635843403
0.193000000000000033,71.052384866767027916
0.194000000000000034,69.689044151023125551
0.195000000000000034,68.342906917811674816
0.196000000000000035,67.013136080091541658
0.197000000000000036,65.698912338919711829
0.198000000000000037,64.399453830130227061
0.199000000000000038,63.114032968841890181
0.200000000000000039,61.841990316624254831
0.201000000000000040,60.582745419586125024
0.202000000000000041,59.335804668212382751
0.203000000000000042,58.100766312146774339
0.204000000000000042,56.877322826581306003
0.205000000000000043,55.665260873162637267
0.206000000000000044,54.464459129277727811
0.207000000000000045,53.274884277269407562
0.208000000000000046,52.096585451586726379
0.209000000000000047,50.929687439056927190
0.210000000000000048,49.774382917217891986
0.211000000000000049,48.630923999655820467
0.212000000000000050,47.499613337057354556
0.213000000000000050,46.380794999538451862
0.214000000000000051,45.274845340883203448
0.215000000000000052,44.182164019581321668
0.216000000000000053,43.103165325778654449
0.217000000000000054,42.038269938089271704
0.218000000000000055,40.987897210154493166
0.219000000000000056,39.952458064248034475
0.220000000000000057,38.932348548377021302
0.221000000000000058,37.927944094394248964
0.222000000000000058,36.939594497702344711
0.223000000000000059,35.967619624234984599
0.224000000000000060,35.012305837512450069
0.225000000000000061,34.073903127631560039
0.226000000000000062,33.152622914963849610
0.227000000000000063,32.248636493987092422
0.228000000000000064,31.362074076927591193
0.229000000000000065,30.493024392601064676
0.230000000000000066,29.641534792864909775
0.231000000000000066,28.807611817278512945
0.232000000000000067,27.991222165774644282
0.233000000000000068,27.192294029225603680
0.234000000000000069,26.410718728615716344
0.235000000000000070,25.646352614978571438
0.236000000000000071,24.899019184212193068
0.237000000000000072,24.168511363237207945
0.238000000000000073,23.454593926624145439
0.239000000000000073,22.757006005697249407
0.240000000000000074,22.075463655147295583
0.241000000000000075,21.409662445296245181
0.242000000000000076,20.759280051288254043
0.243000000000000077,20.123978813591239856
0.244000000000000078,19.503408247240397344
0.245000000000000079,18.897207480204571084
0.246000000000000080,18.305007604085268724
0.247000000000000081,17.726433923042044682
0.248000000000000081,17.161108089364525142
0.249000000000000082,16.608650116468393065
0.250000000000000111,16.068680262272913239
0.251000000000000112,15.540820777918952444
0.252000000000000113,15.024697518606089375
0.253000000000000114,14.519941414971768268
0.254000000000000115,14.026189804901907365
0.255000000000000115,13.543087626963536962
0.256000000000000116,13.070288477787821435
0.257000000000000117,12.607455536716312139
0.258000000000000118,12.154262361864192954
0.259000000000000119,11.710393562458254024
0.260000000000000120,11.275545352885872674
0.261000000000000121,10.849425994354529479
0.262000000000000122,10.431756130416626860
0.263000000000000123,10.022269022874453981
0.264000000000000123,9.620710694751078762
0.265000000000000124,9.226839987107076979
0.266000000000000125,8.840428536505893220
0.267000000000000126,8.461260679893401360
0.268000000000000127,8.089133293565009097
0.269000000000000128,7.723855572756306742
0.270000000000000129,7.365248758215756197
0.271000000000000130,7.013145815906926650
0.272000000000000131,6.667391075750439100
0.273000000000000131,6.327839835055508289
0.274000000000000132,5.994357932014104939
0.275000000000000133,5.666821294340927295
0.276000000000000134,5.345115467843664980
0.277000000000000135,5.029135129404894045
0.278000000000000136,4.718783588550223840
0.279000000000000137,4.413972281472678283
0.280000000000000138,4.114620261081102015
0.281000000000000139,3.820653686343022493
0.282000000000000139,3.532005313902671695
0.283000000000000140,3.248613994672788330
0.284000000000000141,2.970424177827012624
0.285000000000000142,2.697385424357983119
0.286000000000000143,2.429451932116176938
0.287000000000000144,2.166582074006852654
0.288000000000000145,1.908737950796071114
0.289000000000000146,1.655884959764946984
0.290000000000000147,1.407991380250200431
0.291000000000000147,1.165027976922798247
0.292000000000000148,0.926967621481499471
0.293000000000000149,0.693784933276948679
0.294000000000000150,0.465455939232300497
0.295000000000000151,0.241957753289348598
0.296000000000000152,0.023268275483472232
0.297000000000000153,-0.190634089363181131
0.298000000000000154,-0.399770693444570058
0.299000000000000155,-0.604162888476517113
0.300000000000000155,-0.803832249195489013
0.301000000000000156,-0.998800778213760454
0.302000000000000157,-1.189091092659528837
0.303000000000000158,-1.374726593086336823
0.304000000000000159,-1.555731615185041106
0.305000000000000160,-1.732131564872325002
0.306000000000000161,-1.903953037364231715
0.307000000000000162,-2.071223920871027691
0.308000000000000163,-2.233973485571524087
0.309000000000000163,-2.392232458541764917
0.310000000000000164,-2.546033085324469258
0.311000000000000165,-2.695409178832621766
0.312000000000000166,-2.840396156283624407
0.313000000000000167,-2.981031064859484658
0.314000000000000168,-3.117352596784244589
0.315000000000000169,-3.249401094502779586
0.316000000000000170,-3.377218546635106122
0.317000000000000171,-3.500848575367945692
0.318000000000000171,-3.620336415930989205
0.319000000000000172,-3.735728888789275004
0.320000000000000173,-3.847074365165087162
0.321000000000000174,-3.954422726483938444
0.322000000000000175,-4.057825318319078889
0.323000000000000176,-4.157334899387882921
0.324000000000000177,-4.253005586131882509
0.325000000000000178,-4.344892793389790064
0.326000000000000179,-4.433053171650636948
0.327000000000000179,-4.517544541350908105
0.328000000000000180,-4.598425824656922956
0.329000000000000181,-4.675756975150914485
0.330000000000000182,-4.749598905816062810
0.331000000000000183,-4.820013415693904513
0.332000000000000184,-4.887063115564623139
0.333000000000000185,-4.950811352979351376
0.334000000000000186,-5.011322136952075290
0.335000000000000187,-5.068660062597735383
0.336000000000000187,-5.122890235983067697
0.337000000000000188,-5.174078199436469738
0.338000000000000189,-5.222289857544623715
0.339000000000000190,-5.267591404044710046
0.340000000000000191,-5.310049249803253879
0.341000000000000192,-5.349729952055792381
0.342000000000000193,-5.386700145064706291
0.343000000000000194,-5.421026472337301172
0.344000000000000195,-5.452775520530567022
0.345000000000000195,-5.482013755155533019
0.346000000000000196,-5.508807458179673766
0.347000000000000197,-5.533222667613594048
0.348000000000000198,-5.555325119155584801
0.349000000000000199,-5.575180189956212118
0.350000000000000200,-5.592852844554320413
0.351000000000000201,-5.608407583025402765
0.352000000000000202,-5.621908391373827030
0.353000000000000203,-5.633418694191407283
0.354000000000000203,-5.643001309596472836
0.355000000000000204,-5.650718406459546372
0.356000000000000205,-5.656631463914865598
0.357000000000000206,-5.660801233150142053
0.358000000000000207,-5.663287701460485657
0.359000000000000208,-5.664150058547269495
0.360000000000000209,-5.663446665037157324
0.361000000000000210,-5.661235023191773408
0.362000000000000210,-5.657571749774425562
0.363000000000000211,-5.652512551036136479
0.364000000000000212,-5.646112199779989460
0.365000000000000213,-5.638424514459472903
0.366000000000000214,-5.629502340263925042
0.367000000000000215,-5.619397532141591434
0.368000000000000216,-5.608160939708944248
0.369000000000000217,-5.595842393992835007
0.370000000000000218,-5.582490695950765414
0.371000000000000218,-5.568153606713134529
0.372000000000000219,-5.552877839490479417
0.373000000000000220,-5.536709053087824017
0.374000000000000221,-5.519691846967802462
0.375000000000000222,-5.501869757803643068
0.376000000000000223,-5.483285257463367479
0.377000000000000224,-5.463979752366063813
0.378000000000000225,-5.443993584151604281
0.379000000000000226,-5.423366031605302950
0.380000000000000226,-5.402135313779666603
0.381000000000000227,-5.380338594255595908
0.382000000000000228,-5.358011986486518552
0.383000000000000229,-5.335190560169404073
0.384000000000000230,-5.311908348587494721
0.385000000000000231,-5.288198356870842609
0.386000000000000232,-5.264092571121333108
0.387000000000000233,-5.239621968350372860
0.388000000000000234,-5.214816527178237848
0.389000000000000234,-5.189705239245608226
0.390000000000000235,-5.164316121288708317
0.391000000000000236,-5.138676227831102672
0.392000000000000237,-5.112811664446167192
0.393000000000000238,-5.086747601545948072
0.394000000000000239,-5.060508288653078779
0.395000000000000240,-5.034117069114175891
0.396000000000000241,-5.007596395214251039
0.397000000000000242,-4.980967843653102634
0.398000000000000242,-4.954252131346210675
0.399000000000000243,-4.927469131513737111
0.400000000000000244,-4.900637890022858656
0.401000000000000245,-4.873776641949984167
0.402000000000000246,-4.846902828330573954
0.403000000000000247,-4.820033113065894881
0.404000000000000248,-4.793183399957158031
0.405000000000000249,-4.766368849838896971
0.406000000000000250,-4.739603897784657072
0.407000000000000250,-4.712902270359423440
0.408000000000000251,-4.686277002894322585
0.409000000000000252,-4.659740456760492755
0.410000000000000253,-4.633304336620049924
0.411000000000000254,-4.606979707633405141
0.412000000000000255,-4.580777012603102882
0.413000000000000256,-4.554706089035760463
0.414000000000000257,-4.528776186104352064
0.415000000000000258,-4.502995981494594346
0.416000000000000258,-4.477373598119738674
0.417000000000000259,-4.451916620689469362
0.418000000000000260,-4.426632112119238016
0.419000000000000261,-4.401526629767498200
0.420000000000000262,-4.376606241489081839
0.421000000000000263,-4.351876541493908235
0.422000000000000264,-4.327342666000916438
0.423000000000000265,-4.303009308678044320
0.424000000000000266,-4.278880735859856621
0.425000000000000266,-4.254960801534974912
0.426000000000000267,-4.231252962096436754
0.427000000000000268,-4.207760290848602480
0.428000000000000269,-4.184485492264947482
0.429000000000000270,-4.161430915991794599
0.430000000000000271,-4.138598570593421400
0.431000000000000272,-4.115990137034833296
0.432000000000000273,-4.093606981898792796
0.433000000000000274,-4.071450170334400376
0.434000000000000274,-4.049520478734885742
0.435000000000000275,-4.027818407142865098
0.436000000000000276,-4.006344191381673525
0.437000000000000277,-3.985097814911839897
0.438000000000000278,-3.964079020412210497
0.439000000000000279,-3.943287321085591657
0.440000000000000280,-3.922722011689113053
0.441000000000000281,-3.902382179289851649
0.442000000000000282,-3.882266713746747033
0.443000000000000282,-3.862374317919788247
0.444000000000000283,-3.842703517608183184
0.445000000000000284,-3.823252671219095511
0.446000000000000285,-3.804019979168965282
0.447000000000000286,-3.785003493019805543
0.448000000000000287,-3.766201124352662077
0.449000000000000288,-3.747610653381156176
0.450000000000000289,-3.729229737307730996
0.451000000000000290,-3.711055918425757660
0.452000000000000290,-3.693086631970628808
0.453000000000000291,-3.675319213723113876
0.454000000000000292,-3.657750907368499504
0.455000000000000293,-3.640378871615042478
0.456000000000000294,-3.623200187075416245
0.457000000000000295,-3.606211862914977750
0.458000000000000296,-3.589410843270652407
0.459000000000000297,-3.572794013444454464
0.460000000000000298,-3.556358205875610246
0.461000000000000298,-3.540100205895404972
0.462000000000000299,-3.524016757268833455
0.463000000000000300,-3.508104567527246420
0.464000000000000301,-3.492360313096216196
0.465000000000000302,-3.476780644222837058
0.466000000000000303,-3.461362189706685744
0.467000000000000304,-3.446101561438772443
0.468000000000000305,-3.430995358752693569
0.469000000000000306,-3.416040172592285096
0.470000000000000306,-3.401232589500108983
0.471000000000000307,-3.386569195430874313
0.472000000000000308,-3.372046579394258892
0.473000000000000309,-3.357661336931167195
0.474000000000000310,-3.343410073427752316
0.475000000000000311,-3.329289407271306178
0.476000000000000312,-3.315295972852257300
0.477000000000000313,-3.301426423416285338
0.478000000000000314,-3.287677433770672675
0.479000000000000314,-3.274045702848984885
0.480000000000000315,-3.260527956137944106
0.481000000000000316,-3.247120947970602689
0.482000000000000317,-3.233821463689543485
0.483000000000000318,-3.220626321684092908
0.484000000000000319,-3.207532375305255812
0.485000000000000320,-3.194536514662156712
0.486000000000000321,-3.181635668303637310
0.487000000000000322,-3.168826804788682061
0.488000000000000322,-3.156106934149144561
0.489000000000000323,-3.143473109248422936
0.490000000000000324,-3.130922427039398048
0.491000000000000325,-3.118452029725101049
0.492000000000000326,-3.106059105825370814
0.493000000000000327,-3.093740891152838124
0.494000000000000328,-3.081494669701336342
0.495000000000000329,-3.069317774449960901
0.496000000000000330,-3.057207588085756100
0.497000000000000330,-3.045161543648147173
0.498000000000000331,-3.033177125097878957
0.499000000000000332,-3.021251867813544045
0.500000000000000333,-3.009383359018356519
0.501000000000000334,-2.997569238139947245
0.502000000000000335,-2.985807197105915467
0.503000000000000336,-2.974094980577689729
0.504000000000000337,-2.962430386125294302
0.505000000000000338,-2.950811264345474250
0.506000000000000338,-2.939235518925652713
0.507000000000000339,-2.927701106656039443
0.508000000000000340,-2.916206037392206518
0.509000000000000341,-2.904748373970440056
0.510000000000000342,-2.893326232077920501
0.511000000000000343,-2.881937780080005673
0.512000000000000344,-2.870581238806544810
0.513000000000000345,-2.859254881299325923
0.514000000000000346,-2.847957032522605125
0.515000000000000346,-2.836686069038527602
0.516000000000000347,-2.825440418649353358
0.517000000000000348,-2.814218560008306280
0.518000000000000349,-2.803019022200635924
0.519000000000000350,-2.791840384296744304
0.520000000000000351,-2.780681274878849418
0.521000000000000352,-2.769540371542897450
0.522000000000000353,-2.758416400377122990
0.523000000000000353,-2.747308135418812025
0.524000000000000354,-2.736214398090698996
0.525000000000000355,-2.725134056618316869
0.526000000000000356,-2.714066025429672901
0.527000000000000357,-2.703009264538581924
0.528000000000000358,-2.691962778912784238
0.529000000000000359,-2.680925617828194163
0.530000000000000360,-2.669896874210296644
0.531000000000000361,-2.658875683963926484
0.532000000000000361,-2.647861225292417409
0.533000000000000362,-2.636852718007224983
0.534000000000000363,-2.625849422828957280
0.535000000000000364,-2.614850640680834282
0.536000000000000365,-2.603855711975449516
0.537000000000000366,-2.592864015895758101
0.538000000000000367,-2.581874969671077658
0.539000000000000368,-2.570888027849047575
0.540000000000000369,-2.559902681564152793
0.541000000000000369,-2.548918457803747817
0.542000000000000370,-2.537934918672136053
0.543000000000000371,-2.526951660653507847
0.544000000000000372,-2.515968313874352713
0.545000000000000373,-2.504984541365972817
0.546000000000000374,-2.494000038327699453
0.547000000000000375,-2.483014531391382729
0.548000000000000376,-2.472027777887742861
0.549000000000000377,-2.461039565115032524
0.550000000000000377,-2.450049709610572002
0.551000000000000378,-2.439058056425565280
0.552000000000000379,-2.428064478403721971
0.553000000000000380,-2.417068875464041255
0.554000000000000381,-2.406071173888161052
0.555000000000000382,-2.395071325612752489
0.556000000000000383,-2.384069307527144410
0.557000000000000384,-2.373065120776708170
0.558000000000000385,-2.362058790072157244
0.559000000000000385,-2.351050363005186661
0.560000000000000386,-2.340039909370655202
0.561000000000000387,-2.329027520495620784
0.562000000000000388,-2.318013308575431530
0.563000000000000389,-2.306997406017169627
0.564000000000000390,-2.295979964790590078
0.565000000000000391,-2.284961155786804810
0.566000000000000392,-2.273941168184867134
0.567000000000000393,-2.262920208826467938
0.568000000000000393,-2.251898501598826652
0.569000000000000394,-2.240876286825996377
0.570000000000000395,-2.229853820668687980
0.571000000000000396,-2.218831374532679312
0.572000000000000397,-2.207809234486028949
0.573000000000000398,-2.196787700685053579
0.574000000000000399,-2.185767086809276449
0.575000000000000400,-2.174747719505324639
0.576000000000000401,-2.163729937839881323
0.577000000000000401,-2.152714092761782272
0.578000000000000402,-2.141700546573213959
0.579000000000000403,-2.130689672410095881
0.580000000000000404,-2.119681853731728349
0.581000000000000405,-2.108677483819592080
0.582000000000000406,-2.097676965285454109
0.583000000000000407,-2.086680709588663252
0.584000000000000408,-2.075689136562723469
0.585000000000000409,-2.064702673951070544
0.586000000000000409,-2.053721756952058719
0.587000000000000410,-2.042746827773160412
0.588000000000000411,-2.031778335194273755
0.589000000000000412,-2.020816734140219673
0.590000000000000413,-2.009862485262249088
0.591000000000000414,-1.998916054528629305
0.592000000000000415,-1.987977912824225868
0.593000000000000416,-1.977048535558971976
0.594000000000000417,-1.966128402285233889
0.595000000000000417,-1.955217996324027485
0.596000000000000418,-1.944317804399877003
0.597000000000000419,-1.933428316284464543
0.598000000000000420,-1.922550024448777872
0.599000000000000421,-1.911683423723845365
0.600000000000000422,-1.900829010969879773
0.601000000000000423,-1.889987284753788188
0.602000000000000424,-1.879158745034957168
0.603000000000000425,-1.868343892859234190
0.604000000000000425,-1.857543230060976880
0.605000000000000426,-1.846757258973121596
0.606000000000000427,-1.835986482145199661
0.607000000000000428,-1.825231402069055875
0.608000000000000429,-1.814492520912446283
0.609000000000000430,-1.803770340260079319
0.610000000000000431,-1.793065360862323931
0.611000000000000432,-1.782378082391236518
0.612000000000000433,-1.771709003203930433
0.613000000000000433,-1.761058620113171269
