# Cr2O3-001_GLY-JS
# h[nm],U(h)[kJ/mol]
0.149999999999999994,141.796311700851049409
0.150999999999999995,140.004281905723416912
0.151999999999999996,138.025029839479174143
0.152999999999999997,136.001960498800286814
0.153999999999999998,133.992989625233207107
0.154999999999999999,132.014508693418548546
0.156000000000000000,130.065548984689314693
0.157000000000000001,128.140116806602094357
0.158000000000000002,126.232742398398698924
0.159000000000000002,124.340356244799721708
0.160000000000000003,122.462355764386344958
0.161000000000000004,120.599929418311219820
0.162000000000000005,118.755210816798665974
0.163000000000000006,116.930537833241871226
0.164000000000000007,115.127920471646774558
0.165000000000000008,113.348729136232492465
0.166000000000000009,111.593570976279721663
0.167000000000000010,109.862306019409217583
0.168000000000000010,108.154154119303299808
0.169000000000000011,106.467850479366987315
0.170000000000000012,104.801817024066139084
0.171000000000000013,103.154326581983653455
0.172000000000000014,101.523645412169031488
0.173000000000000015,99.908146518109603562
0.174000000000000016,98.306391367404017956
0.175000000000000017,96.717181221040760875
0.176000000000000018,95.139581530473918747
0.177000000000000018,93.572924068355192162
0.178000000000000019,92.016791890741274074
0.179000000000000020,90.470992120857943064
0.180000000000000021,88.935521090503272035
0.181000000000000022,87.410525725628716032
0.182000000000000023,85.896264329510515267
0.183000000000000024,84.393069179161287252
0.184000000000000025,82.901312660359394613
0.185000000000000026,81.421378055142909602
0.186000000000000026,79.953635578425547692
0.187000000000000027,78.498423841935689893
0.188000000000000028,77.056036600696586447
0.189000000000000029,75.626714401676949251
0.190000000000000030,74.210640595236782247
0.191000000000000031,72.807941075604333037
0.192000000000000032,71.418687074793837155
0.193000000000000033,70.042900333686887393
0.194000000000000034,68.680560004112464867
0.195000000000000034,67.331610687632931445
0.196000000000000035,65.995971082728942747
0.197000000000000036,64.673542785903094909
0.198000000000000037,63.364218868895136438
0.199000000000000038,62.067891929896006786
0.200000000000000039,60.784461388542275984
0.201000000000000040,59.513839860616030819
0.202000000000000041,58.255958507524042034
0.203000000000000042,57.010771307127562579
0.204000000000000042,55.778258236122141511
0.205000000000000043,54.558427390070491469
0.206000000000000044,53.351316095742980394
0.207000000000000045,52.156991092190637005
0.208000000000000046,50.975547872620992962
0.209000000000000047,49.807109289399690510
0.210000000000000048,48.651823530098887716
0.211000000000000049,47.509861574192434830
0.212000000000000050,46.381414238449572451
0.213000000000000050,45.266688914959104295
0.214000000000000051,44.165906099606210944
0.215000000000000052,43.079295801257060816
0.216000000000000053,42.007093913339083713
0.217000000000000054,40.949538620333228778
0.218000000000000055,39.906866902252758678
0.219000000000000056,38.879311190746534521
0.220000000000000057,37.867096221252246835
0.221000000000000058,36.870436116816350136
0.222000000000000058,35.889531730914043806
0.223000000000000059,34.924568268948526395
0.224000000000000060,33.975713201137367037
0.225000000000000061,33.043114473243463181
0.226000000000000062,32.126899016091044814
0.227000000000000063,31.227171550015235368
0.228000000000000064,30.344013676309639749
0.229000000000000065,29.477483244323231304
0.230000000000000066,28.627613980082493583
0.231000000000000066,27.794415360123785774
0.232000000000000067,26.977872712571002722
0.233000000000000068,26.177947526328626537
0.234000000000000069,25.394577948531019018
0.235000000000000070,24.627679450041551235
0.236000000000000071,23.877145638782568682
0.237000000000000072,23.142849200947740229
0.238000000000000073,22.424642950660857110
0.239000000000000073,21.722360969356728333
0.240000000000000074,21.035819817028610146
0.241000000000000075,20.364819798483740243
0.242000000000000076,19.709146268837134386
0.243000000000000077,19.068570963627671233
0.244000000000000078,18.442853340135723528
0.245000000000000079,17.831741917694778010
0.246000000000000080,17.234975606003693827
0.247000000000000081,16.652285011643890300
0.248000000000000081,16.083393714175091560
0.249000000000000082,15.528019504313443022
0.250000000000000111,14.985875577776216261
0.251000000000000112,14.456671679404177411
0.252000000000000113,13.940115193137355476
0.253000000000000114,13.435912174323695112
0.254000000000000115,12.943768321674678390
0.255000000000000115,12.463389886952532137
0.256000000000000116,11.994484521175042602
0.257000000000000117,11.536762056760267114
0.258000000000000118,11.089935225605072944
0.259000000000000119,10.653720313599686520
0.260000000000000120,10.227837752528573745
0.261000000000000121,9.812012650699628580
0.262000000000000122,9.405975263979525991
0.263000000000000123,9.009461409199655435
0.264000000000000123,8.622212822134482479
0.265000000000000124,8.243977462448771831
0.266000000000000125,7.874509768163129309
0.267000000000000126,7.513570862303955877
0.268000000000000127,7.160928714485670810
0.269000000000000128,6.816358260225508836
0.270000000000000129,6.479641480815371501
0.271000000000000130,6.150567446574920716
0.272000000000000131,5.828932326289053556
0.273000000000000131,5.514539365592165510
0.274000000000000132,5.207198837005115877
0.275000000000000133,4.906727964260054087
0.276000000000000134,4.612950823465697070
0.277000000000000135,4.325698223574069523
0.278000000000000136,4.044807568508919537
0.279000000000000137,3.770122703210221804
0.280000000000000138,3.501493745738328389
0.281000000000000139,3.238776907466760058
0.282000000000000139,2.981834303276801545
0.283000000000000140,2.730533753549519993
0.284000000000000141,2.484748579634031618
0.285000000000000142,2.244357394354271840
0.286000000000000143,2.009243889002109373
0.287000000000000144,1.779296618152418574
0.288000000000000145,1.554408783525713655
0.289000000000000146,1.334478018018629086
0.290000000000000147,1.119406170918946009
0.291000000000000147,0.909099095224241038
0.292000000000000148,0.703466437888028540
0.293000000000000149,0.502421433727999522
0.294000000000000150,0.305880703644948460
0.295000000000000151,0.113764057720376677
0.296000000000000152,-0.074005696315650613
0.297000000000000153,-0.257502938826332795
0.298000000000000154,-0.436799417866849893
0.299000000000000155,-0.611964422349533743
0.300000000000000155,-0.783064948543335859
0.301000000000000156,-0.950165859729016460
0.302000000000000157,-1.113330038881424233
0.303000000000000158,-1.272618534295341997
0.304000000000000159,-1.428090698113431589
0.305000000000000160,-1.579804317752280696
0.306000000000000161,-1.727815740257178989
0.307000000000000162,-1.872179989647000609
0.308000000000000163,-2.012950877338110622
0.309000000000000163,-2.150181105760965217
0.310000000000000164,-2.283922365304664304
0.311000000000000165,-2.414225424743631443
0.312000000000000166,-2.541140215317168494
0.313000000000000167,-2.664715908646507536
0.314000000000000168,-2.785000988685845336
0.315000000000000169,-2.902043317913660658
0.316000000000000170,-3.015890197978493781
0.317000000000000171,-3.126588425019325879
0.318000000000000171,-3.234184339885286530
0.319000000000000172,-3.338723873482537297
0.320000000000000173,-3.440252587477644397
0.321000000000000174,-3.538815710587297936
0.322000000000000175,-3.634458170683664058
0.323000000000000176,-3.727224622942848953
0.324000000000000177,-3.817159474261610175
0.325000000000000178,-3.904306904163836300
0.326000000000000179,-3.988710882414792103
0.327000000000000179,-4.070415183555914140
0.328000000000000180,-4.149463398568198791
0.329000000000000181,-4.225898943866600810
0.330000000000000182,-4.299765067821539333
0.331000000000000183,-4.371104854997827971
0.332000000000000184,-4.439961228294261097
0.333000000000000185,-4.506376949160687317
0.334000000000000186,-4.570394616062359638
0.335000000000000187,-4.632056661354232219
0.336000000000000187,-4.691405346721102987
0.337000000000000188,-4.748482757331823123
0.338000000000000189,-4.803330794849352436
0.339000000000000190,-4.855991169430919463
0.340000000000000191,-4.906505390845547154
0.341000000000000192,-4.954914758829623622
0.342000000000000193,-5.001260352793949870
0.343000000000000194,-5.045583020989510281
0.344000000000000195,-5.087923369232029813
0.345000000000000195,-5.128321749279857400
0.346000000000000196,-5.166818246952648686
0.347000000000000197,-5.203452670073001940
0.348000000000000198,-5.238264536306955321
0.349000000000000199,-5.271293060973775368
0.350000000000000200,-5.302577144890136651
0.351000000000000201,-5.332155362308368396
0.352000000000000202,-5.360065949003577579
0.353000000000000203,-5.386346790559673359
0.354000000000000203,-5.411035410899678766
0.355000000000000204,-5.434168961101255135
0.356000000000000205,-5.455784208534380397
0.357000000000000206,-5.475917526354143305
0.358000000000000207,-5.494604883377537163
0.359000000000000208,-5.511881834370027100
0.360000000000000209,-5.527783510764082031
0.361000000000000210,-5.542344611828554868
0.362000000000000210,-5.555599396305115789
0.363000000000000211,-5.567581674524847202
0.364000000000000212,-5.578324801015730472
0.365000000000000213,-5.587861667609070437
0.366000000000000214,-5.596224697050773855
0.367000000000000215,-5.603445837121159734
0.368000000000000216,-5.609556555265171163
0.369000000000000217,-5.614587833732693767
0.370000000000000218,-5.618570165227448676
0.371000000000000218,-5.621533549060897528
0.372000000000000219,-5.623507487806563176
0.373000000000000220,-5.624520984448669658
0.374000000000000221,-5.624602540017856533
0.375000000000000222,-5.623780151705555674
0.376000000000000223,-5.622081311447975516
0.377000000000000224,-5.619533004969353485
0.378000000000000225,-5.616161711273665702
0.379000000000000226,-5.611993402573149936
0.380000000000000226,-5.607053544641588338
0.381000000000000227,-5.601367097579479370
0.382000000000000228,-5.594958516978158158
0.383000000000000229,-5.587851755469275261
0.384000000000000230,-5.580070264645820899
0.385000000000000231,-5.571636997340823072
0.386000000000000232,-5.562574410249332857
0.387000000000000233,-5.552904466879536649
0.388000000000000234,-5.542648640818431005
0.389000000000000234,-5.531827919297834129
0.390000000000000235,-5.520462807046120801
0.391000000000000236,-5.508573330411477897
0.392000000000000237,-5.496179041742304427
0.393000000000000238,-5.483299024010703349
0.394000000000000239,-5.469951895664990182
0.395000000000000240,-5.456155815697482758
0.396000000000000241,-5.441928488913921669
0.397000000000000242,-5.427287171391150800
0.398000000000000242,-5.412248676109990164
0.399000000000000243,-5.396829378750345185
0.400000000000000244,-5.381045223636029995
0.401000000000000245,-5.364911729817096742
0.402000000000000246,-5.348443997277510853
0.403000000000000247,-5.331656713256707647
0.404000000000000248,-5.314564158673588778
0.405000000000000249,-5.297180214642017049
0.406000000000000250,-5.279518369067101702
0.407000000000000250,-5.261591723312035285
0.408000000000000251,-5.243412998925434110
0.409000000000000252,-5.224994544419638842
0.410000000000000253,-5.206348342090649339
0.411000000000000254,-5.187486014870829720
0.412000000000000255,-5.168418833205740803
0.413000000000000256,-5.149157721946987287
0.414000000000000257,-5.129713267253050546
0.415000000000000258,-5.110095723490751141
0.416000000000000258,-5.090315020129940748
0.417000000000000259,-5.070380768624741741
0.418000000000000260,-5.050302269274655309
0.419000000000000261,-5.030088518059400826
0.420000000000000262,-5.009748213441528542
0.421000000000000263,-4.989289763131298905
0.422000000000000264,-4.968721290808415958
0.423000000000000265,-4.948050642795720044
0.424000000000000266,-4.927285394680151143
0.425000000000000266,-4.906432857876465548
0.426000000000000267,-4.885500086129660247
0.427000000000000268,-4.864493881952212995
0.428000000000000269,-4.843420802992459251
0.429000000000000270,-4.822287168330863238
0.430000000000000271,-4.801099064700939500
0.431000000000000272,-4.779862352632062716
0.432000000000000273,-4.758582672511424860
0.433000000000000274,-4.737265450562796687
0.434000000000000274,-4.715915904739807374
0.435000000000000275,-4.694539050531780333
0.436000000000000276,-4.673139706680343508
0.437000000000000277,-4.651722500805097305
0.438000000000000278,-4.630291874937040753
0.439000000000000279,-4.608852090958423631
0.440000000000000280,-4.587407235947928541
0.441000000000000281,-4.565961227430298308
0.442000000000000282,-4.544517818529667075
0.443000000000000282,-4.523080603025836588
0.444000000000000283,-4.501653020313244546
0.445000000000000284,-4.480238360262057462
0.446000000000000285,-4.458839767981261915
0.447000000000000286,-4.437460248483769298
0.448000000000000287,-4.416102671253317347
0.449000000000000288,-4.394769774713543242
0.450000000000000289,-4.373464170599292267
0.451000000000000290,-4.352188348230565218
0.452000000000000290,-4.330944678689568228
0.453000000000000291,-4.309735418901261106
0.454000000000000292,-4.288562715618152055
0.455000000000000293,-4.267428609309866339
0.456000000000000294,-4.246335037958339775
0.457000000000000295,-4.225283840759413323
0.458000000000000296,-4.204276761731675194
0.459000000000000297,-4.183315453233536374
0.460000000000000298,-4.162401479389503223
0.461000000000000298,-4.141536319426679214
0.462000000000000299,-4.120721370922609594
0.463000000000000300,-4.099957952965558761
0.464000000000000301,-4.079247309228414053
0.465000000000000302,-4.058590610957446998
0.466000000000000303,-4.037988959877077733
0.467000000000000304,-4.017443391012024634
0.468000000000000305,-3.996954875428028409
0.469000000000000306,-3.976524322892504237
0.470000000000000306,-3.956152584456526622
0.471000000000000307,-3.935840454959320223
0.472000000000000308,-3.915588675456826984
0.473000000000000309,-3.895397935575598325
0.474000000000000310,-3.875268875793430823
0.475000000000000311,-3.855202089648152253
0.476000000000000312,-3.835198125876007502
0.477000000000000313,-3.815257490480939762
0.478000000000000314,-3.795380648736273344
0.479000000000000314,-3.775568027120200121
0.480000000000000315,-3.755820015186409844
0.481000000000000316,-3.736136967371371131
0.482000000000000317,-3.716519204739566540
0.483000000000000318,-3.696967016668157413
0.484000000000000319,-3.677480662472412121
0.485000000000000320,-3.658060372973316099
0.486000000000000321,-3.638706352008722611
0.487000000000000322,-3.619418777889399585
0.488000000000000322,-3.600197804801301693
0.489000000000000323,-3.581043564155477643
0.490000000000000324,-3.561956165886859704
0.491000000000000325,-3.542935699703283259
0.492000000000000326,-3.523982236286001157
0.493000000000000327,-3.505095828443031358
0.494000000000000328,-3.486276512216531565
0.495000000000000329,-3.467524307945507367
0.496000000000000330,-3.448839221285010304
0.497000000000000330,-3.430221244183167872
0.498000000000000331,-3.411670355817027378
0.499000000000000332,-3.393186523488636031
0.500000000000000333,-3.374769703482348060
0.501000000000000334,-3.356419841884495270
0.502000000000000335,-3.338136875366650713
0.503000000000000336,-3.319920731933483360
0.504000000000000337,-3.301771331636324192
0.505000000000000338,-3.283688587253474900
0.506000000000000338,-3.265672404938352091
0.507000000000000339,-3.247722684836411133
0.508000000000000340,-3.229839321671879926
0.509000000000000341,-3.212022205305356870
0.510000000000000342,-3.194271221263053739
0.511000000000000343,-3.176586251238823433
0.512000000000000344,-3.158967173569720899
0.513000000000000345,-3.141413863686089769
0.514000000000000346,-3.123926194537070877
0.515000000000000346,-3.106504036992276507
0.516000000000000347,-3.089147260220567848
0.517000000000000348,-3.071855732046773646
0.518000000000000349,-3.054629319287004208
0.519000000000000350,-3.037467888063530186
0.520000000000000351,-3.020371304099809695
0.521000000000000352,-3.003339432996568359
0.522000000000000353,-2.986372140489510496
0.523000000000000353,-2.969469292689438600
0.524000000000000354,-2.952630756305502313
0.525000000000000355,-2.935856398852142668
0.526000000000000356,-2.919146088840452791
0.527000000000000357,-2.902499695954619874
0.528000000000000358,-2.885917091213926700
0.529000000000000359,-2.869398147121100529
0.530000000000000360,-2.852942737797402373
0.531000000000000361,-2.836550739105176966
0.532000000000000361,-2.820222028758296418
0.533000000000000362,-2.803956486421112615
0.534000000000000363,-2.787753993796375340
0.535000000000000364,-2.771614434702662777
0.536000000000000365,-2.755537695141774712
0.537000000000000366,-2.739523663356602690
0.538000000000000367,-2.723572229879848372
0.539000000000000368,-2.707683287574187414
0.540000000000000369,-2.691856731664102220
0.541000000000000369,-2.676092459760019526
0.542000000000000370,-2.660390371874949089
0.543000000000000371,-2.644750370434159947
0.544000000000000372,-2.629172360278206444
0.545000000000000373,-2.613656248659677495
0.546000000000000374,-2.598201945234013710
0.547000000000000375,-2.582809362044729440
0.548000000000000376,-2.567478413503409662
0.549000000000000377,-2.552209016364728189
0.550000000000000377,-2.537001089696842904
0.551000000000000378,-2.521854554847429597
0.552000000000000379,-2.506769335405686139
0.553000000000000380,-2.491745357160511709
0.554000000000000381,-2.476782548055162625
0.555000000000000382,-2.461880838138674754
0.556000000000000383,-2.447040159514179525
0.557000000000000384,-2.432260446284511879
0.558000000000000385,-2.417541634495158132
0.559000000000000385,-2.402883662074910109
0.560000000000000386,-2.388286468774334370
0.561000000000000387,-2.373749996102313631
0.562000000000000388,-2.359274187260794076
0.563000000000000389,-2.344858987077995671
0.564000000000000390,-2.330504341940186741
0.565000000000000391,-2.316210199722238183
0.566000000000000392,-2.301976509717087449
0.567000000000000393,-2.287803222564318784
0.568000000000000393,-2.273690290177914353
0.569000000000000394,-2.259637665673395635
0.570000000000000395,-2.245645303294483419
0.571000000000000396,-2.231713158339329262
0.572000000000000397,-2.217841187086548871
0.573000000000000398,-2.204029346721067206
0.574000000000000399,-2.190277595259981336
0.575000000000000400,-2.176585891478445944
0.576000000000000401,-2.162954194835754240
0.577000000000000401,-2.149382465401713738
0.578000000000000402,-2.135870663783330237
0.579000000000000403,-2.122418751051930563
0.580000000000000404,-2.109026688670859073
0.581000000000000405,-2.095694438423691075
0.582000000000000406,-2.082421962343169231
0.583000000000000407,-2.069209222640818968
0.584000000000000408,-2.056056181637393898
0.585000000000000409,-2.042962801694144126
0.586000000000000409,-2.029929045144987843
0.587000000000000410,-2.016954874229658579
0.588000000000000411,-2.004040251027812580
0.589000000000000412,-1.991185137394230864
0.590000000000000413,-1.978389494895055334
0.591000000000000414,-1.965653284745172868
0.592000000000000415,-1.952976467746772027
0.593000000000000416,-1.940359004229046391
0.594000000000000417,-1.927800853989130925
0.595000000000000417,-1.915301976234332626
0.596000000000000418,-1.902862329525517371
0.597000000000000419,-1.890481871721911178
0.598000000000000420,-1.878160559927102735
0.599000000000000421,-1.865898350436440811
0.600000000000000422,-1.853695198685731071
0.601000000000000423,-1.841551059201294249
0.602000000000000424,-1.829465885551386561
0.603000000000000425,-1.817439630298996134
0.604000000000000425,-1.805472244955992567
0.605000000000000426,-1.793563679938671385
0.606000000000000427,-1.781713884524723124
0.607000000000000428,-1.769922806811468519
0.608000000000000429,-1.758190393675655994
0.609000000000000430,-1.746516590734456642
0.610000000000000431,-1.734901342308005523
0.611000000000000432,-1.723344591383214830
0.612000000000000433,-1.711846279578987717
0.613000000000000433,-1.700406347112834782
