# Cr2O3-001_CS-5008-AC
# h[nm],U(h)[kJ/mol]
0.200000000000000011,64.819550111324872432
0.201000000000000012,62.181300439488687459
0.202000000000000013,60.487324243350713004
0.203000000000000014,59.232512282780376722
0.204000000000000015,58.128981685839164584
0.205000000000000016,57.027932535688933058
0.206000000000000016,55.866006252003920451
0.207000000000000017,54.629236777399832192
0.208000000000000018,53.329480450780863521
0.209000000000000019,51.989567563204118983
0.210000000000000020,50.634439674211634497
0.211000000000000021,49.286300756583543148
0.212000000000000022,47.962378253003024042
0.213000000000000023,46.674309371392027401
0.214000000000000024,45.428474771228742668
0.215000000000000024,44.226824115347646682
0.216000000000000025,43.067897141356468182
0.217000000000000026,41.947856227677448260
0.218000000000000027,40.861424251817147990
0.219000000000000028,39.802674200000723204
0.220000000000000029,38.765651502457231459
0.221000000000000030,37.744831674094953655
0.222000000000000031,36.735428416884261082
0.223000000000000032,35.733573739383622581
0.224000000000000032,34.736393944244930765
0.225000000000000033,33.742005015815742297
0.226000000000000034,32.749449060817646284
0.227000000000000035,31.758590746447829645
0.228000000000000036,30.769989636201120931
0.229000000000000037,29.784761266424048642
0.230000000000000038,28.804436935165803391
0.231000000000000039,27.830829601680271423
0.232000000000000040,26.865911072632780332
0.233000000000000040,25.911703792406115099
0.234000000000000041,24.970189047004375027
0.235000000000000042,24.043232205685278302
0.236000000000000043,23.132524725207506577
0.237000000000000044,22.239541988827902230
0.238000000000000045,21.365515606327512899
0.239000000000000046,20.511418524907405470
0.240000000000000047,19.677961159608535979
0.241000000000000048,18.865596715748608858
0.242000000000000048,18.074533918622261552
0.243000000000000049,17.304755465318685026
0.244000000000000050,16.556040651719793999
0.245000000000000051,15.827990789738390021
0.246000000000000052,15.120056203906756309
0.247000000000000053,14.431563773437309450
0.248000000000000054,13.761744159027950118
0.249000000000000055,13.109758018043720540
0.250000000000000056,12.474720663896135875
0.251000000000000056,11.855724763346286110
0.252000000000000057,11.251860787954759857
0.253000000000000058,10.662235042644171656
0.254000000000000059,10.085985185561089139
0.255000000000000060,9.522293229787440083
0.256000000000000061,8.970396079912255516
0.257000000000000062,8.429593706183840851
0.258000000000000063,7.899255097178420115
0.259000000000000064,7.378822159946873960
0.260000000000000064,6.867811755734130941
0.261000000000000065,6.365816070863458798
0.262000000000000066,5.872501527426907231
0.263000000000000067,5.387606438130572606
0.264000000000000068,4.910937605015112339
0.265000000000000069,4.442366053716431118
0.266000000000000070,3.981822084255598249
0.267000000000000071,3.529289806754024816
0.268000000000000071,3.084801316572272967
0.269000000000000072,2.648430648685693001
0.270000000000000073,2.220287636075400695
0.271000000000000074,1.800511781888222362
0.272000000000000075,1.389266240395386376
0.273000000000000076,0.986731987588792436
0.274000000000000077,0.593102248770874030
0.275000000000000078,0.208577237851202080
0.276000000000000079,-0.166640748650539572
0.277000000000000079,-0.532351850624382172
0.278000000000000080,-0.888362753856049681
0.279000000000000081,-1.234490376121488708
0.280000000000000082,-1.570565123728082657
0.281000000000000083,-1.896433719066038082
0.282000000000000084,-2.211961605528853347
0.283000000000000085,-2.517034941078994059
0.284000000000000086,-2.811562195831382116
0.285000000000000087,-3.095475372362754385
0.286000000000000087,-3.368730870094745367
0.287000000000000088,-3.631310017105362054
0.288000000000000089,-3.883219294161461388
0.289000000000000090,-4.124490276696682223
0.290000000000000091,-4.355179320943355137
0.291000000000000092,-4.575367020522687511
0.292000000000000093,-4.785157459556268478
0.293000000000000094,-4.984677287835825865
0.294000000000000095,-5.174074642822724890
0.295000000000000095,-5.353517942287520981
0.296000000000000096,-5.523194570280603344
0.297000000000000097,-5.683309477884479932
0.298000000000000098,-5.834083718866438950
0.299000000000000099,-5.975752938956584437
0.300000000000000100,-6.108565836044163255
0.301000000000000101,-6.232782607137312247
0.302000000000000102,-6.348673396485236431
0.303000000000000103,-6.456516757834970477
0.304000000000000103,-6.556598142398611273
0.305000000000000104,-6.649208422754480985
0.306000000000000105,-6.734642461604598118
0.307000000000000106,-6.813197733068879991
0.308000000000000107,-6.885173003019448679
0.309000000000000108,-6.950867073849583910
0.310000000000000109,-7.010577598034788416
0.311000000000000110,-7.064599963878698929
0.312000000000000111,-7.113226255946083931
0.313000000000000111,-7.156744291866985463
0.314000000000000112,-7.195436736450751880
0.315000000000000113,-7.229580293373471633
0.316000000000000114,-7.259444974095797143
0.317000000000000115,-7.285293443127272894
0.318000000000000116,-7.307380438275545842
0.319000000000000117,-7.325952264101047717
0.320000000000000118,-7.341246356436423426
0.321000000000000119,-7.353490915522172600
0.322000000000000119,-7.362904605051715734
0.323000000000000120,-7.369696314207149435
0.324000000000000121,-7.374064979598029090
0.325000000000000122,-7.376199463885861007
0.326000000000000123,-7.376278487783213045
0.327000000000000124,-7.374470612055672447
0.328000000000000125,-7.370934266123819967
0.329000000000000126,-7.365817819857720217
0.330000000000000127,-7.359259695175779825
0.331000000000000127,-7.351388514100323235
0.332000000000000128,-7.342323279980862871
0.333000000000000129,-7.332173588671284215
0.334000000000000130,-7.321039866535485885
0.335000000000000131,-7.309013632257185478
0.336000000000000132,-7.296177779539145369
0.337000000000000133,-7.282606877895938524
0.338000000000000134,-7.268367488868710424
0.339000000000000135,-7.253518495119871901
0.340000000000000135,-7.238111439998718311
0.341000000000000136,-7.222190875303984292
0.342000000000000137,-7.205794715105753312
0.343000000000000138,-7.188954593625399347
0.344000000000000139,-7.171696225308025419
0.345000000000000140,-7.154039765355918234
0.346000000000000141,-7.136000169123336789
0.347000000000000142,-7.117587548902053030
0.348000000000000143,-7.098807526752869634
0.349000000000000143,-7.079661582160142075
0.350000000000000144,-7.060147393404344385
0.351000000000000145,-7.040259171661022997
0.352000000000000146,-7.019987986943431402
0.353000000000000147,-6.999322085109949576
0.354000000000000148,-6.978247195256659374
0.355000000000000149,-6.956746826909165904
0.356000000000000150,-6.934802556517027483
0.357000000000000151,-6.912394302837668647
0.358000000000000151,-6.889500590875789143
0.359000000000000152,-6.866098804117721777
0.360000000000000153,-6.842165424869435242
0.361000000000000154,-6.817676262570563139
0.362000000000000155,-6.792606670016414050
0.363000000000000156,-6.766931747474518311
0.364000000000000157,-6.740626534732510500
0.365000000000000158,-6.713666191160390539
0.366000000000000159,-6.686026163911739317
0.367000000000000159,-6.657682344426606669
0.368000000000000160,-6.628611213432928473
0.369000000000000161,-6.598789974673660019
0.370000000000000162,-6.568196677614077217
0.371000000000000163,-6.536810329407535036
0.372000000000000164,-6.504610996418529467
0.373000000000000165,-6.471579895620067191
0.374000000000000166,-6.437699476197296988
0.375000000000000167,-6.402953491701902422
0.376000000000000167,-6.367327063112201202
0.377000000000000168,-6.330806733161603361
0.378000000000000169,-6.293380512304152852
0.379000000000000170,-6.255037916689886401
0.380000000000000171,-6.215769998524884876
0.381000000000000172,-6.175569369191667768
0.382000000000000173,-6.134430215504503181
0.383000000000000174,-6.092348309472280121
0.384000000000000175,-6.049321011937869308
0.385000000000000175,-6.005347270458508468
0.386000000000000176,-5.960427611786178304
0.387000000000000177,-5.914564129300384998
0.388000000000000178,-5.867760465738742326
0.389000000000000179,-5.820021791562554725
0.390000000000000180,-5.771354779286309800
0.391000000000000181,-5.721767574090760533
0.392000000000000182,-5.671269761029931189
0.393000000000000183,-5.619872329132304500
0.394000000000000183,-5.567587632686523236
0.395000000000000184,-5.514429349991350371
0.396000000000000185,-5.460412439839066323
0.397000000000000186,-5.405553095990879520
0.398000000000000187,-5.349868699891980661
0.399000000000000188,-5.293377771863145398
0.400000000000000189,-5.236099920994972123
0.401000000000000190,-5.178055793959974729
0.402000000000000191,-5.119267022947319390
0.403000000000000191,-5.059756172914063654
0.404000000000000192,-4.999546688336704570
0.405000000000000193,-4.938662839636302593
0.406000000000000194,-4.877129669440560811
0.407000000000000195,-4.814972938836342919
0.408000000000000196,-4.752219073756387857
0.409000000000000197,-4.688895111634723278
0.410000000000000198,-4.625028648456124714
0.411000000000000199,-4.560647786315969121
0.412000000000000199,-4.495781081598418716
0.413000000000000200,-4.430457493872412833
0.414000000000000201,-4.364706335597022147
0.415000000000000202,-4.298557222719824544
0.416000000000000203,-4.232040026244767716
0.417000000000000204,-4.165184824838465971
0.418000000000000205,-4.098021858537391537
0.419000000000000206,-4.030581483611625160
0.420000000000000207,-3.962894128634484758
0.421000000000000207,-3.894990251801692782
0.422000000000000208,-3.826900299537565608
0.423000000000000209,-3.758654666420740309
0.424000000000000210,-3.690283656456466055
0.425000000000000211,-3.621817445717744555
0.426000000000000212,-3.553286046373052898
0.427000000000000213,-3.484719272113811606
0.428000000000000214,-3.416146704990958405
0.429000000000000214,-3.347597663665805356
0.430000000000000215,-3.279101173076976572
0.431000000000000216,-3.210685935521809142
0.432000000000000217,-3.142380303147247922
0.433000000000000218,-3.074212251842563415
0.434000000000000219,-3.006209356523351417
0.435000000000000220,-2.938398767793774180
0.436000000000000221,-2.870807189971642082
0.437000000000000222,-2.803460860458792947
0.438000000000000222,-2.736385530437310809
0.439000000000000223,-2.669606446870226968
0.440000000000000224,-2.603148335783800782
0.441000000000000225,-2.537035386806868242
0.442000000000000226,-2.471291238941698332
0.443000000000000227,-2.405938967539204221
0.444000000000000228,-2.341001072450686671
0.445000000000000229,-2.276499467327168347
0.446000000000000230,-2.212455470036567284
0.447000000000000230,-2.148889794168447498
0.448000000000000231,-2.085822541595310220
0.449000000000000232,-2.023273196059029111
0.450000000000000233,-1.961260617750728796
0.451000000000000234,-1.899803038851934689
0.452000000000000235,-1.838918060004876009
0.453000000000000236,-1.778622647679461988
0.454000000000000237,-1.718933132404691921
0.455000000000000238,-1.659865207832007084
0.456000000000000238,-1.601433930598485489
0.457000000000000239,-1.543653720957651521
0.458000000000000240,-1.486538364146244406
0.459000000000000241,-1.430101012455122333
0.460000000000000242,-1.374354187973306551
0.461000000000000243,-1.319309785974049687
0.462000000000000244,-1.264979078912663590
0.463000000000000245,-1.211372721005839370
0.464000000000000246,-1.158500753363138180
0.465000000000000246,-1.106372609641461002
0.466000000000000247,-1.054997122194045289
0.467000000000000248,-1.004382528686004861
0.468000000000000249,-0.954536479149138528
0.469000000000000250,-0.905466043449134839
0.470000000000000251,-0.857177719139138872
0.471000000000000252,-0.809677439674053145
0.472000000000000253,-0.762970582960859400
0.473000000000000254,-0.717061980220600192
0.474000000000000254,-0.671955925138578491
0.475000000000000255,-0.627656183279843516
0.476000000000000256,-0.584166001747753127
0.477000000000000257,-0.541488119064128859
0.478000000000000258,-0.499624775250062048
0.479000000000000259,-0.458577722087260942
0.480000000000000260,-0.418348233540404901
0.481000000000000261,-0.378937116321610923
0.482000000000000262,-0.340344720578943882
0.483000000000000262,-0.302570950691366025
0.484000000000000263,-0.265615276153301827
0.485000000000000264,-0.229476742532603417
0.486000000000000265,-0.194153982486360260
0.487000000000000266,-0.159645226819590508
0.488000000000000267,-0.125948315572487340
0.489000000000000268,-0.093060709122586460
0.490000000000000269,-0.060979499288638217
0.491000000000000270,-0.029701420423796688
0.492000000000000270,0.000777139513920222
0.493000000000000271,0.030460127925157156
0.494000000000000272,0.059351816577623492
0.495000000000000273,0.087456790669600881
0.496000000000000274,0.114779937958247993
0.497000000000000275,0.141326437962010026
0.498000000000000276,0.167101751245730623
0.499000000000000277,0.192111608796751876
0.500000000000000222,0.216362001499717044
0.501000000000000334,0.239859169717335036
0.502000000000000224,0.262609592983894413
0.503000000000000336,0.284619979817989699
0.504000000000000226,0.305897257660264210
0.505000000000000338,0.326448562941872966
0.506000000000000227,0.346281231288592450
0.507000000000000339,0.365402787865542256
0.508000000000000229,0.383820937866690248
0.509000000000000341,0.401543557153299702
0.510000000000000231,0.418578683044822264
0.511000000000000343,0.434934505265726412
0.512000000000000233,0.450619357051104508
0.513000000000000345,0.465641706413852163
0.514000000000000234,0.480010147575666679
0.515000000000000346,0.493733392564144613
0.516000000000000236,0.506820262977595193
0.517000000000000348,0.519279681919244007
0.518000000000000238,0.531120666102066763
0.519000000000000350,0.542352318125316923
0.520000000000000240,0.552983818923547643
0.521000000000000352,0.563024420388713920
0.522000000000000242,0.572483438165762082
0.523000000000000353,0.581370244621827625
0.524000000000000243,0.589694261989068269
0.525000000000000355,0.597464955680905074
0.526000000000000245,0.604691827781272506
0.527000000000000357,0.611384410706381720
0.528000000000000247,0.617552261038219807
0.529000000000000359,0.623204953529013617
0.530000000000000249,0.628352075275586341
0.531000000000000361,0.633003220062535954
0.532000000000000250,0.637167982872943406
0.533000000000000362,0.640855954565262453
0.534000000000000252,0.644076716714925612
0.535000000000000364,0.646839836619007125
0.536000000000000254,0.649154862462362869
0.537000000000000366,0.651031318643404244
0.538000000000000256,0.652478701257661831
0.539000000000000368,0.653506473737235360
0.540000000000000258,0.654124062644076965
0.541000000000000369,0.654340853615077989
0.542000000000000259,0.654166187456803883
0.543000000000000371,0.653609356387691243
0.544000000000000261,0.652679600425466688
0.545000000000000373,0.651386103917506953
0.546000000000000263,0.649737992211819826
0.547000000000000375,0.647744328466257180
0.548000000000000265,0.645414110593599877
0.549000000000000377,0.642756268340053616
0.550000000000000266,0.639779660494759428
0.551000000000000378,0.636493072227776180
0.552000000000000268,0.632905212554131791
0.553000000000000380,0.629024711921377433
0.554000000000000270,0.624860119918176027
0.555000000000000382,0.620419903101389170
0.556000000000000272,0.615712442939141735
0.557000000000000384,0.610746033867370253
0.558000000000000274,0.605528881457276014
0.559000000000000385,0.600069100691232649
0.560000000000000275,0.594374714344587218
0.561000000000000387,0.588453651470864258
0.562000000000000277,0.582313745987921072
0.563000000000000389,0.575962735362492984
0.564000000000000279,0.569408259390753679
0.565000000000000391,0.562657859072358102
0.566000000000000281,0.555718975575628882
0.567000000000000393,0.548598949291379090
0.568000000000000282,0.541305018973056606
0.569000000000000394,0.533844320960792040
0.570000000000000284,0.526223888487069358
0.571000000000000396,0.518450651061608481
0.572000000000000286,0.510531433933251844
0.573000000000000398,0.502472957626549865
0.574000000000000288,0.494281837550834879
0.575000000000000400,0.485964583679500073
0.576000000000000290,0.477527600297443677
0.577000000000000401,0.468977185814371755
0.578000000000000291,0.460319532641965012
0.579000000000000403,0.451560727132767181
0.580000000000000293,0.442706749578763659
0.581000000000000405,0.433763474267582883
0.582000000000000295,0.424736669594441896
0.583000000000000407,0.415631998227734112
0.584000000000000297,0.406455017326496748
0.585000000000000409,0.397211178807716170
0.586000000000000298,0.387905829661785995
0.587000000000000410,0.378544212314125716
0.588000000000000300,0.369131465031347306
0.589000000000000412,0.359672622370078687
0.590000000000000302,0.350172615666856479
0.591000000000000414,0.340636273567277492
0.592000000000000304,0.331068322592913411
0.593000000000000416,0.321473387744251604
0.594000000000000306,0.311855993138168586
0.595000000000000417,0.302220562678342464
0.596000000000000307,0.292571420757179124
0.597000000000000419,0.282912792987670580
0.598000000000000309,0.273248806963826474
0.599000000000000421,0.263583493048281770
0.600000000000000311,0.253920785185649422
0.601000000000000423,0.244264521740317819
0.602000000000000313,0.234618446357415966
0.603000000000000425,0.224986208845608937
0.604000000000000314,0.215371366080547688
0.605000000000000426,0.205777382927715496
0.606000000000000316,0.196207633183540037
0.607000000000000428,0.186665400533588655
0.608000000000000318,0.177153879526757457
0.609000000000000430,0.167676176564339613
0.610000000000000320,0.158235310902984677
0.611000000000000432,0.148834215670418268
0.612000000000000322,0.139475738893056755
0.613000000000000433,0.130162644534428995
0.614000000000000323,0.120897613543553412
0.615000000000000435,0.111683244912300611
0.616000000000000325,0.102522056740929776
0.617000000000000437,0.093416487310845980
0.618000000000000327,0.084368896163847212
0.619000000000000439,0.075381565186989435
0.620000000000000329,0.066456699702327621
0.621000000000000441,0.057596429560761865
0.622000000000000330,0.048802810239280486
0.623000000000000442,0.040077823940858119
0.624000000000000332,0.031423380696407051
0.625000000000000444,0.022841319468005654
0.626000000000000334,0.014333409252910346
0.627000000000000446,0.005901350187610915
0.628000000000000336,-0.002453225348560789
0.629000000000000448,-0.010728751630906547
0.630000000000000338,-0.018923728488399832
0.631000000000000449,-0.027036720204905679
0.632000000000000339,-0.035066354422976447
0.633000000000000451,-0.043011321050806857
0.634000000000000341,-0.050870371172735476
0.635000000000000453,-0.058642315963839176
0.636000000000000343,-0.066326025608899525
0.637000000000000455,-0.073920428226345952
0.638000000000000345,-0.081424508797370343
0.639000000000000457,-0.088837308100759876
0.640000000000000346,-0.096157921653675510
0.641000000000000458,-0.103385498658831801
0.642000000000000348,-0.110519240958295975
0.643000000000000460,-0.117558401994329251
0.644000000000000350,-0.124502285777461738
0.645000000000000462,-0.131350245862184356
0.646000000000000352,-0.138101684330421831
0.647000000000000464,-0.144756050783152845
0.648000000000000353,-0.151312841340302123
0.649000000000000465,-0.157771597649247086
0.650000000000000355,-0.164131905902042685
0.651000000000000467,-0.170393395861661384
0.652000000000000357,-0.176555739897376357
0.653000000000000469,-0.182618652029488931
0.654000000000000359,-0.188581886983575198
0.655000000000000471,-0.194445239254384644
0.656000000000000361,-0.200208542179548754
0.657000000000000473,-0.205871667023250465
0.658000000000000362,-0.211434522069937403
0.659000000000000474,-0.216897051728235007
0.660000000000000364,-0.222259235645133224
0.661000000000000476,-0.227521087830577784
0.662000000000000366,-0.232682655792498888
0.663000000000000478,-0.237744019682422536
0.664000000000000368,-0.242705291451662364
0.665000000000000480,-0.247566614018230963
0.666000000000000369,-0.252328160444439786
