# Cr2O3-001_CS-730-AC
# h[nm],U(h)[kJ/mol]
0.149999999999999994,132.685285501031358990
0.150999999999999995,130.822339662197862253
0.151999999999999996,128.927581831727991357
0.152999999999999997,127.018082016981296078
0.153999999999999998,125.108195939580554068
0.154999999999999999,123.208371192727895505
0.156000000000000000,121.325426134367788222
0.157000000000000001,119.463347814629244681
0.158000000000000002,117.624144479607551261
0.159000000000000002,115.808559357575674653
0.160000000000000003,114.016593481314586711
0.161000000000000004,112.247851301952209724
0.162000000000000005,110.501747580463415943
0.163000000000000006,108.777617674688983129
0.164000000000000007,107.074767496972953040
0.165000000000000008,105.392490464440086839
0.166000000000000009,103.730069913121610625
0.167000000000000010,102.086778090967953858
0.168000000000000010,100.461877378999346888
0.169000000000000011,98.854625709543711309
0.170000000000000012,97.264285938256108466
0.171000000000000013,95.690137810993917356
0.172000000000000014,94.131490802335719081
0.173000000000000015,92.587696204369095199
0.174000000000000016,91.058157195665728523
0.175000000000000017,89.542336068279425376
0.176000000000000018,88.039758235745765091
0.177000000000000018,86.550013029548907184
0.178000000000000019,85.072751587739290358
0.179000000000000020,83.607682340350905292
0.180000000000000021,82.154564708029298004
0.181000000000000022,80.713201666120809818
0.182000000000000023,79.283431802843054470
0.183000000000000024,77.865121433902899639
0.184000000000000025,76.458157242597479808
0.185000000000000026,75.062439807336261310
0.186000000000000026,73.677878268343619084
0.187000000000000027,72.304386280074396609
0.188000000000000028,70.941879301187555029
0.189000000000000029,69.590273193236384941
0.190000000000000030,68.249484034258529164
0.191000000000000031,66.919429004536837624
0.192000000000000032,65.600028168283586183
0.193000000000000033,64.291206955516742028
0.194000000000000034,62.992899141151589504
0.195000000000000034,61.705050121308637756
0.196000000000000035,60.427620297963699159
0.197000000000000036,59.160588400337871917
0.198000000000000037,57.903954592978337246
0.199000000000000038,56.657743244667145177
0.200000000000000039,55.422005257688944369
0.201000000000000040,54.196819882408206581
0.202000000000000041,52.982295966609186166
0.203000000000000042,51.778572611917283552
0.204000000000000042,50.585819230327743412
0.205000000000000043,49.404235012082374112
0.206000000000000044,48.234047831664732087
0.207000000000000045,47.075512631473529268
0.208000000000000046,45.928909332822847489
0.209000000000000047,44.794540331427867841
0.210000000000000048,43.672727639645728459
0.211000000000000049,42.563809740676603610
0.212000000000000050,41.468138220929425586
0.213000000000000050,40.386074246088604411
0.214000000000000051,39.317984944332621922
0.215000000000000052,38.264239756915038981
0.216000000000000053,37.225206812162035419
0.217000000000000054,36.201249374093663391
0.218000000000000055,35.192722411544806960
0.219000000000000056,34.199969328031137650
0.220000000000000057,33.223318886831350483
0.221000000000000058,32.263082359988040082
0.222000000000000058,31.319550924269275782
0.223000000000000059,30.392993321689846908
0.224000000000000060,29.483653797032722821
0.225000000000000061,28.591750319999370333
0.226000000000000062,27.717473095195192201
0.227000000000000063,26.860983359149617655
0.228000000000000064,26.022412459997791956
0.229000000000000065,25.201861212313890093
0.230000000000000066,24.399399516885797112
0.231000000000000066,23.615066232941170909
0.232000000000000067,22.848869288463397709
0.233000000000000068,22.100786012746304721
0.234000000000000069,21.370763674208326677
0.235000000000000070,20.658720205688148042
0.236000000000000071,19.964545098949852076
0.237000000000000072,19.288100449902021438
0.238000000000000073,18.629222136055972214
0.239000000000000073,17.987721107982991953
0.240000000000000074,17.363384776946652721
0.241000000000000075,16.755978481463440488
0.242000000000000076,16.165247016251100831
0.243000000000000077,15.590916207837125285
0.244000000000000078,15.032694521998337223
0.245000000000000079,14.490274689163666011
0.246000000000000080,13.963335334919236175
0.247000000000000081,13.451542603788785968
0.248000000000000081,12.954551765510505135
0.249000000000000082,12.472008794079034288
0.250000000000000111,12.003551910856876006
0.251000000000000112,11.548813084074442514
0.252000000000000113,11.107419478021828496
0.253000000000000114,10.678994846184810541
0.254000000000000115,10.263160863482221785
0.255000000000000115,9.859538393622020891
0.256000000000000116,9.467748688402386037
0.257000000000000117,9.087414516541461040
0.258000000000000118,8.718161220323340288
0.259000000000000119,8.359617698996778756
0.260000000000000120,8.011417318458004644
0.261000000000000121,7.673198747290325805
0.262000000000000122,7.344606719721087806
0.263000000000000123,7.025292726493776563
0.264000000000000123,6.714915635039841568
0.265000000000000124,6.413142240674991612
0.266000000000000125,6.119647750838683287
0.267000000000000126,5.834116204647442849
0.268000000000000127,5.556240830243398321
0.269000000000000128,5.285724342593256964
0.270000000000000129,5.022279184531241114
0.271000000000000130,4.765627713945078447
0.272000000000000131,4.515502340080702837
0.273000000000000131,4.271645611989726810
0.274000000000000132,4.033810262168203487
0.275000000000000133,3.801759208436551241
0.276000000000000134,3.575265517092462542
0.277000000000000135,3.354112330332799097
0.278000000000000136,3.138092760888409938
0.279000000000000137,2.927009756750708291
0.280000000000000138,2.720675938791921489
0.281000000000000139,2.518913413993447925
0.282000000000000139,2.321553566901679133
0.283000000000000140,2.128436831827932529
0.284000000000000141,1.939412448201671690
0.285000000000000142,1.754338201373913053
0.286000000000000143,1.573080151052783648
0.287000000000000144,1.395512349436357713
0.288000000000000145,1.221516550989417471
0.289000000000000146,1.050981915693318225
0.290000000000000147,0.883804707479792007
0.291000000000000147,0.719887989443914300
0.292000000000000148,0.559141317316424247
0.293000000000000149,0.401480432564045864
0.294000000000000150,0.246826956376854006
0.295000000000000151,0.095108085695836828
0.296000000000000152,-0.053743707668810849
0.297000000000000153,-0.199790973876842526
0.298000000000000154,-0.343091576997745340
0.299000000000000155,-0.483698981284895524
0.300000000000000155,-0.621662531104556715
0.301000000000000156,-0.757027723922057860
0.302000000000000157,-0.889836475825898865
0.303000000000000158,-1.020127379143489721
0.304000000000000159,-1.147935951771974716
0.305000000000000160,-1.273294877912109602
0.306000000000000161,-1.396234239954177614
0.307000000000000162,-1.516781741321460597
0.308000000000000163,-1.634962920129237052
0.309000000000000163,-1.750801353566041829
0.310000000000000164,-1.864318852948815275
0.311000000000000165,-1.975535649444583708
0.312000000000000166,-2.084470570489191932
0.313000000000000167,-2.191141206967752275
0.314000000000000168,-2.295564071252540028
0.315000000000000169,-2.397754746222083178
0.316000000000000170,-2.497728025410285824
0.317000000000000171,-2.595498044456550080
0.318000000000000171,-2.691078404047542172
0.319000000000000172,-2.784482284558643439
0.320000000000000173,-2.875722552617619332
0.321000000000000174,-2.964811859825930096
0.322000000000000175,-3.051762733883748080
0.323000000000000176,-3.136587662373346852
0.324000000000000177,-3.219299169462648713
0.325000000000000178,-3.299909885795860198
0.326000000000000179,-3.378432611842227651
0.327000000000000179,-3.454880374976095680
0.328000000000000180,-3.529266480562736952
0.329000000000000181,-3.601604557324576295
0.330000000000000182,-3.671908597260968410
0.331000000000000183,-3.740192990393203409
0.332000000000000184,-3.806472554603017588
0.333000000000000185,-3.870762560829580146
0.334000000000000186,-3.933078753885429713
0.335000000000000187,-3.993437369146858096
0.336000000000000187,-4.051855145368906896
0.337000000000000188,-4.108349333868821063
0.338000000000000189,-4.162937704315885057
0.339000000000000190,-4.215638547358564026
0.340000000000000191,-4.266470674312846434
0.341000000000000192,-4.315453414128722187
0.342000000000000193,-4.362606607844017326
0.343000000000000194,-4.407950600727586377
0.344000000000000195,-4.451506232305712629
0.345000000000000195,-4.493294824458585524
0.346000000000000196,-4.533338167765220028
0.347000000000000197,-4.571658506268035715
0.348000000000000198,-4.608278520820355162
0.349000000000000199,-4.643221311172404775
0.350000000000000200,-4.676510376944120750
0.351000000000000201,-4.708169597625277980
0.352000000000000202,-4.738223211736352525
0.353000000000000203,-4.766695795276303826
0.354000000000000203,-4.793612239576413359
0.355000000000000204,-4.818997728672339775
0.356000000000000205,-4.842877716300018953
0.357000000000000206,-4.865277902614544736
0.358000000000000207,-4.886224210724499528
0.359000000000000208,-4.905742763128534634
0.360000000000000209,-4.923859858134830958
0.361000000000000210,-4.940601946338242456
0.362000000000000210,-4.955995607224712884
0.363000000000000211,-4.970067525966941346
0.364000000000000212,-4.982844470470422671
0.365000000000000213,-4.994353268723874528
0.366000000000000214,-5.004620786503605423
0.367000000000000215,-5.013673905476640158
0.368000000000000216,-5.021539501743495393
0.369000000000000217,-5.028244424857004624
0.370000000000000218,-5.033815477350125356
0.371000000000000218,-5.038279394801625344
0.372000000000000219,-5.041662826465350911
0.373000000000000220,-5.043992316485308436
0.374000000000000221,-5.045294285715668181
0.375000000000000222,-5.045595014161883718
0.376000000000000223,-5.044920624056433489
0.377000000000000224,-5.043297063579911033
0.378000000000000225,-5.040750091235853603
0.379000000000000226,-5.037305260885353242
0.380000000000000226,-5.032987907445479081
0.381000000000000227,-5.027823133253241927
0.382000000000000228,-5.021835795095415556
0.383000000000000229,-5.015050491902341534
0.384000000000000230,-5.007491553102566328
0.385000000000000231,-4.999183027633621101
0.386000000000000232,-4.990148673602734064
0.387000000000000233,-4.980411948590306892
0.388000000000000234,-4.969996000587519447
0.389000000000000234,-4.958923659558753805
0.390000000000000235,-4.947217429618213203
0.391000000000000236,-4.934899481809660315
0.392000000000000237,-4.921991647477033993
0.393000000000000238,-4.908515412213460216
0.394000000000000239,-4.894491910375150745
0.395000000000000240,-4.879941920146530165
0.396000000000000241,-4.864885859142277447
0.397000000000000242,-4.849343780531567560
0.398000000000000242,-4.833335369669697457
0.399000000000000243,-4.816879941221705153
0.400000000000000244,-4.799996436762624441
0.401000000000000245,-4.782703422838854301
0.402000000000000246,-4.765019089474767711
0.403000000000000247,-4.746961249108963443
0.404000000000000248,-4.728547335944285557
0.405000000000000249,-4.709794405695885366
0.406000000000000250,-4.690719135721574062
0.407000000000000250,-4.671337825518877551
0.408000000000000251,-4.651666397573235301
0.409000000000000252,-4.631720398542008788
0.410000000000000253,-4.611515000759085048
0.411000000000000254,-4.591065004045048248
0.412000000000000255,-4.570384837808142642
0.413000000000000256,-4.549488563421475895
0.414000000000000257,-4.528389876862083163
0.415000000000000258,-4.507102111597885319
0.416000000000000258,-4.485638241708707952
0.417000000000000259,-4.464010885227899017
0.418000000000000260,-4.442232307691355686
0.419000000000000261,-4.420314425881111120
0.420000000000000262,-4.398268811750872587
0.421000000000000263,-4.376106696521366857
0.422000000000000264,-4.353838974933474049
0.423000000000000265,-4.331476209647665776
0.424000000000000266,-4.309028635778526350
0.425000000000000266,-4.286506165553348957
0.426000000000000267,-4.263918393084388470
0.427000000000000268,-4.241274599244456489
0.428000000000000269,-4.218583756635998938
0.429000000000000270,-4.195854534644190892
0.430000000000000271,-4.173095304564684582
0.431000000000000272,-4.150314144797341953
0.432000000000000273,-4.127518846097220973
0.433000000000000274,-4.104716916874767030
0.434000000000000274,-4.081915588537182948
0.435000000000000275,-4.059121820863513364
0.436000000000000276,-4.036342307406147967
0.437000000000000277,-4.013583480911759871
0.438000000000000278,-3.990851518755119454
0.439000000000000279,-3.968152348379395455
0.440000000000000280,-3.945491652736870414
0.441000000000000281,-3.922874875724344346
0.442000000000000282,-3.900307227607778149
0.443000000000000282,-3.877793690430838325
0.444000000000000283,-3.855339023402577503
0.445000000000000284,-3.832947768259431509
0.446000000000000285,-3.810624254597122729
0.447000000000000286,-3.788372605168420559
0.448000000000000287,-3.766196741142608939
0.449000000000000288,-3.744100387323157086
0.450000000000000289,-3.722087077319963466
0.451000000000000290,-3.700160158672996857
0.452000000000000290,-3.678322797924296506
0.453000000000000291,-3.656577985635391936
0.454000000000000292,-3.634928541347654196
0.455000000000000293,-3.613377118482976158
0.456000000000000294,-3.591926209182627616
0.457000000000000295,-3.570578149082185515
0.458000000000000296,-3.549335122020553790
0.459000000000000297,-3.528199164681461220
0.460000000000000298,-3.507172171165711116
0.461000000000000298,-3.486255897492890998
0.462000000000000299,-3.465451966031167785
0.463000000000000300,-3.444761869854046754
0.464000000000000301,-3.424186977023144784
0.465000000000000302,-3.403728534796057748
0.466000000000000303,-3.383387673758573300
0.467000000000000304,-3.363165411880648215
0.468000000000000305,-3.343062658495588924
0.469000000000000306,-3.323080218202044023
0.470000000000000306,-3.303218794688588478
0.471000000000000307,-3.283478994480518942
0.472000000000000308,-3.263861330608958333
0.473000000000000309,-3.244366226202125780
0.474000000000000310,-3.224994017998870532
0.475000000000000311,-3.205744959784606607
0.476000000000000312,-3.186619225749948825
0.477000000000000313,-3.167616913772214993
0.478000000000000314,-3.148738048620256968
0.479000000000000314,-3.129982585083045166
0.480000000000000315,-3.111350411022412832
0.481000000000000316,-3.092841350350631124
0.482000000000000317,-3.074455165933282164
0.483000000000000318,-3.056191562418178354
0.484000000000000319,-3.038050188990951916
0.485000000000000320,-3.020030642058110892
0.486000000000000321,-3.002132467858281473
0.487000000000000322,-2.984355165002511079
0.488000000000000322,-2.966698186944372484
0.489000000000000323,-2.949160944380914806
0.490000000000000324,-2.931742807585213662
0.491000000000000325,-2.914443108671540550
0.492000000000000326,-2.897261143794056082
0.493000000000000327,-2.880196175280089310
0.494000000000000328,-2.863247433698902000
0.495000000000000329,-2.846414119867035630
0.496000000000000330,-2.829695406791210122
0.497000000000000330,-2.813090441549904064
0.498000000000000331,-2.796598347114533922
0.499000000000000332,-2.780218224111478342
0.500000000000000333,-2.763949152525889463
0.501000000000000334,-2.747790193348383259
0.502000000000000335,-2.731740390165775967
0.503000000000000336,-2.715798770696876474
0.504000000000000337,-2.699964348274477732
0.505000000000000338,-2.684236123274587715
0.506000000000000338,-2.668613084494058985
0.507000000000000339,-2.653094210477658255
0.508000000000000340,-2.637678470795647545
0.509000000000000341,-2.622364827273076404
0.510000000000000342,-2.607152235171688925
0.511000000000000343,-2.592039644325695225
0.512000000000000344,-2.577026000232331082
0.513000000000000345,-2.562110245098362604
0.514000000000000346,-2.547291318843583063
0.515000000000000346,-2.532568160062266927
0.516000000000000347,-2.517939706943700617
0.517000000000000348,-2.503404898152814972
0.518000000000000349,-2.488962673671835102
0.519000000000000350,-2.474611975604096070
0.520000000000000351,-2.460351748940886374
0.521000000000000352,-2.446180942292393912
0.522000000000000353,-2.432098508583671048
0.523000000000000353,-2.418103405716566900
0.524000000000000354,-2.404194597198631378
0.525000000000000355,-2.390371052739847180
0.526000000000000356,-2.376631748818133438
0.527000000000000357,-2.362975669214555374
0.528000000000000358,-2.349401805519045983
0.529000000000000359,-2.335909157607627407
0.530000000000000360,-2.322496734091851867
0.531000000000000361,-2.309163552741442693
0.532000000000000361,-2.295908640880853557
0.533000000000000362,-2.282731035760643845
0.534000000000000363,-2.269629784904396708
0.535000000000000364,-2.256603946432032437
0.536000000000000365,-2.243652589360217497
0.537000000000000366,-2.230774793880706319
0.538000000000000367,-2.217969651617234028
0.539000000000000368,-2.205236265861848732
0.540000000000000369,-2.192573751791211389
0.541000000000000369,-2.179981236663722122
0.542000000000000370,-2.167457859998015657
0.543000000000000371,-2.155002773733587951
0.544000000000000372,-2.142615142374153514
0.545000000000000373,-2.130294143114390248
0.546000000000000374,-2.118038965950673536
0.547000000000000375,-2.105848813776407091
0.548000000000000376,-2.093722902462587854
0.549000000000000377,-2.081660460924108058
0.550000000000000377,-2.069660731172417556
0.551000000000000378,-2.057722968355055748
0.552000000000000379,-2.045846440782640663
0.553000000000000380,-2.034030429943775253
0.554000000000000381,-2.022274230508407822
0.555000000000000382,-2.010577150320199458
0.556000000000000383,-1.998938510378237776
0.557000000000000384,-1.987357644808751989
0.558000000000000385,-1.975833900827113521
0.559000000000000385,-1.964366638690697275
0.560000000000000386,-1.952955231642963252
0.561000000000000387,-1.941599065849204608
0.562000000000000388,-1.930297540324357630
0.563000000000000389,-1.919050066853307257
0.564000000000000390,-1.907856069904013907
0.565000000000000391,-1.896714986533892588
0.566000000000000392,-1.885626266289763375
0.567000000000000393,-1.874589371101784252
0.568000000000000393,-1.863603775171615240
0.569000000000000394,-1.852668964855238798
0.570000000000000395,-1.841784438540721824
0.571000000000000396,-1.830949706521179721
0.572000000000000397,-1.820164290863359513
0.573000000000000398,-1.809427725271995913
0.574000000000000399,-1.798739554950346875
0.575000000000000400,-1.788099336457079414
0.576000000000000401,-1.777506637559830072
0.577000000000000401,-1.766961037085702957
0.578000000000000402,-1.756462124768887190
0.579000000000000403,-1.746009501095676431
0.580000000000000404,-1.735602777147156051
0.581000000000000405,-1.725241574439667858
0.582000000000000406,-1.714925524763401654
0.583000000000000407,-1.704654270019190010
0.584000000000000408,-1.694427462053811340
0.585000000000000409,-1.684244762493919634
0.586000000000000409,-1.674105842578804459
0.587000000000000410,-1.664010382992191950
0.588000000000000411,-1.653958073693179376
0.589000000000000412,-1.643948613746565091
0.590000000000000413,-1.633981711152628025
0.591000000000000414,-1.624057082676574115
0.592000000000000415,-1.614174453677799104
0.593000000000000416,-1.604333557939032318
0.594000000000000417,-1.594534137495557280
0.595000000000000417,-1.584775942464672571
0.596000000000000418,-1.575058730875347646
0.597000000000000419,-1.565382268498422436
0.598000000000000420,-1.555746328677242385
0.599000000000000421,-1.546150692158991813
0.600000000000000422,-1.536595146926730049
0.601000000000000423,-1.527079488032264010
0.602000000000000424,-1.517603517429958249
0.603000000000000425,-1.508167043811537100
0.604000000000000425,-1.498769882441973733
0.605000000000000426,-1.489411854996547824
0.606000000000000427,-1.480092789399179543
0.607000000000000428,-1.470812519661968132
0.608000000000000429,-1.461570885726259483
0.609000000000000430,-1.452367733304980035
0.610000000000000431,-1.443202913726607139
0.611000000000000432,-1.434076283780599592
0.612000000000000433,-1.424987705564443319
0.613000000000000433,-1.415937046332369054
