# Cr2O3-001_CS-6110-AC
# h[nm],U(h)[kJ/mol]
0.149999999999999994,96.288580661667438676
0.150999999999999995,94.613090642649765982
0.151999999999999996,93.043189029405667156
0.152999999999999997,91.476413533856273830
0.153999999999999998,89.890524224282074783
0.154999999999999999,88.294554271267088552
0.156000000000000000,86.704941515357731419
0.157000000000000001,85.135467583947473713
0.158000000000000002,83.594308571540935304
0.159000000000000002,82.084363066985119417
0.160000000000000003,80.604773012483335037
0.161000000000000004,79.152592101128590230
0.162000000000000005,77.724149782972773437
0.163000000000000006,76.315978780226586764
0.164000000000000007,74.925330944146338652
0.165000000000000008,73.550370107006386888
0.166000000000000009,72.190144339325826195
0.167000000000000010,70.844429494812359849
0.168000000000000010,69.513515930202274262
0.169000000000000011,68.197988829921968090
0.170000000000000012,66.898533538893929062
0.171000000000000013,65.615782216423113482
0.172000000000000014,64.350207170173206350
0.173000000000000015,63.102058966751826574
0.174000000000000016,61.871343142209298094
0.175000000000000017,60.657827308588515791
0.176000000000000018,59.461069996977343521
0.177000000000000018,58.280463133771945650
0.178000000000000019,57.115281180744851497
0.179000000000000020,55.964731363217730120
0.180000000000000021,54.828000845565952659
0.181000000000000022,53.704298050188789659
0.182000000000000023,52.592886476043453570
0.183000000000000024,51.493110320541596536
0.184000000000000025,50.404411938577403873
0.185000000000000026,49.326341698284657866
0.186000000000000026,48.258561139326253908
0.187000000000000027,47.200840535697892619
0.188000000000000028,46.153052041832637542
0.189000000000000029,45.115159587339164204
0.190000000000000030,44.087206608047985412
0.191000000000000031,43.069302581413651865
0.192000000000000032,42.061609190933495483
0.193000000000000033,41.064326791391664528
0.194000000000000034,40.077681695170724652
0.195000000000000034,39.101914657226259919
0.196000000000000035,38.137270807634358505
0.197000000000000036,37.183991168821385997
0.198000000000000037,36.242305800947022476
0.199000000000000038,35.312428543468080022
0.200000000000000039,34.394553262809893113
0.201000000000000040,33.488851473855262952
0.202000000000000041,32.595471174820723093
0.203000000000000042,31.714536719028718181
0.204000000000000042,30.846149541077231504
0.205000000000000043,29.990389556992418818
0.206000000000000044,29.147317066291368093
0.207000000000000045,28.316974996834112233
0.208000000000000046,27.499391349454448630
0.209000000000000047,26.694581717389603170
0.210000000000000048,25.902551774449012356
0.211000000000000049,25.123299644839821809
0.212000000000000050,24.356818085946493113
0.213000000000000050,23.603096432659512516
0.214000000000000051,22.862122267710738299
0.215000000000000052,22.133882796679319682
0.216000000000000053,21.418365918754528110
0.217000000000000054,20.715560994939771433
0.218000000000000055,20.025459324178278564
0.219000000000000056,19.348054344950455175
0.220000000000000057,18.683341585342269298
0.221000000000000058,18.031318388556456966
0.222000000000000058,17.391983443475925952
0.223000000000000059,16.765336151360806127
0.224000000000000060,16.151375860221499181
0.225000000000000061,15.550100998021409993
0.226000000000000062,14.961508134774950562
0.227000000000000063,14.385591001959483037
0.228000000000000064,13.822339495585527658
0.229000000000000065,13.271738686881743519
0.230000000000000066,12.733767861957209888
0.231000000000000066,12.208399609090411886
0.232000000000000067,11.695598969542121637
0.233000000000000068,11.195322665061087974
0.234000000000000069,10.707518412602022195
0.235000000000000070,10.232124334246570641
0.236000000000000071,9.769068467943800016
0.237000000000000072,9.318268382490021651
0.238000000000000073,8.879630898167192754
0.239000000000000073,8.453051912664111711
0.240000000000000074,8.038416330317971870
0.241000000000000075,7.635598091338627214
0.242000000000000076,7.244460296506997743
0.243000000000000077,6.864855421866112195
0.244000000000000078,6.496625617139089925
0.245000000000000079,6.139603080999942009
0.246000000000000080,5.793610505878932670
0.247000000000000081,5.458461584688362400
0.248000000000000081,5.133961571695076387
0.249000000000000082,4.819907889726510852
0.250000000000000111,4.516090775963632176
0.251000000000000112,4.222293958733581043
0.252000000000000113,3.938295357951864251
0.253000000000000114,3.663867802168866206
0.254000000000000115,3.398779755532228108
0.255000000000000115,3.142796048378192264
0.256000000000000116,2.895678605598066113
0.257000000000000117,2.657187167382758286
0.258000000000000118,2.427079997420607871
0.259000000000000119,2.205114574102860381
0.260000000000000120,1.991048260771488332
0.261000000000000121,1.784638951520104211
0.262000000000000122,1.585645689524354918
0.263000000000000123,1.393829255330771399
0.264000000000000123,1.208952722967668647
0.265000000000000124,1.030781982156895538
0.266000000000000125,0.859086225297551187
0.267000000000000126,0.693638398261763767
0.268000000000000127,0.534215614385766147
0.269000000000000128,0.380599531357579235
0.270000000000000129,0.232576690993768265
0.271000000000000130,0.089938822162860713
0.272000000000000131,-0.047516892647736064
0.273000000000000131,-0.179987586411040068
0.274000000000000132,-0.307664511386871842
0.275000000000000133,-0.430732876631459205
0.276000000000000134,-0.549371717984498131
0.277000000000000135,-0.663753799207631778
0.278000000000000136,-0.774045542849117085
0.279000000000000137,-0.880406989329037493
0.280000000000000138,-0.982991782677305914
0.281000000000000139,-1.081947181311362360
0.282000000000000139,-1.177414092210255836
0.283000000000000140,-1.269527126825955587
0.284000000000000141,-1.358414677069370802
0.285000000000000142,-1.444199009717021198
0.286000000000000143,-1.526996377602863220
0.287000000000000144,-1.606917145987446505
0.288000000000000145,-1.684065932532739840
0.289000000000000146,-1.758541759353235978
0.290000000000000147,-1.830438215663285018
0.291000000000000147,-1.899843629593927830
0.292000000000000148,-1.966841247810959370
0.293000000000000149,-2.031509421626934486
0.294000000000000150,-2.093921798364036579
0.295000000000000151,-2.154147516790637429
0.296000000000000152,-2.212251405521429071
0.297000000000000153,-2.268294183339171433
0.298000000000000154,-2.322332660464073939
0.299000000000000155,-2.374419939864873985
0.300000000000000155,-2.424605617772886301
0.301000000000000156,-2.472935982626492279
0.302000000000000157,-2.519454211738606730
0.303000000000000158,-2.564200565042745961
0.304000000000000159,-2.607212575335023708
0.305000000000000160,-2.648525234488585678
0.306000000000000161,-2.688171175174381311
0.307000000000000162,-2.726180847677048824
0.308000000000000163,-2.762582691446978878
0.309000000000000163,-2.797403301079745219
0.310000000000000164,-2.830667586461381724
0.311000000000000165,-2.862398926862661064
0.312000000000000166,-2.892619318807901685
0.313000000000000167,-2.921349517583171185
0.314000000000000168,-2.948609172285858726
0.315000000000000169,-2.974416954351958964
0.316000000000000170,-2.998790679529426573
0.317000000000000171,-3.021747423295324531
0.318000000000000171,-3.043303629741663574
0.319000000000000172,-3.063475213979701017
0.320000000000000173,-3.082277658134937148
0.321000000000000174,-3.099726101025511049
0.322000000000000175,-3.115835421635179792
0.323000000000000176,-3.130620316508367029
0.324000000000000177,-3.144095371209414402
0.325000000000000178,-3.156275126000837705
0.326000000000000179,-3.167174135906678956
0.327000000000000179,-3.176807025336323864
0.328000000000000180,-3.185188537452286361
0.329000000000000181,-3.192333578472211553
0.330000000000000182,-3.198257257100263651
0.331000000000000183,-3.202974919287662203
0.332000000000000184,-3.206502178524620383
0.333000000000000185,-3.208854941868124477
0.334000000000000186,-3.210049431910805051
0.335000000000000187,-3.210102204896217337
0.336000000000000187,-3.209030165185132066
0.337000000000000188,-3.206850576275750875
0.338000000000000189,-3.203581068578828628
0.339000000000000190,-3.199239644145737582
0.340000000000000191,-3.193844678544079940
0.341000000000000192,-3.187414920071984792
0.342000000000000193,-3.179969486497538522
0.343000000000000194,-3.171527859505636648
0.344000000000000195,-3.162109877029143146
0.345000000000000195,-3.151735723636528874
0.346000000000000196,-3.140425919142256550
0.347000000000000197,-3.128201305600865290
0.348000000000000198,-3.115083032839794264
0.349000000000000199,-3.101092542680033759
0.350000000000000200,-3.086251551987871267
0.351000000000000201,-3.070582034694752771
0.352000000000000202,-3.054106202916332613
0.353000000000000203,-3.036846487295738584
0.354000000000000203,-3.018825516689918054
0.355000000000000204,-3.000066097311981927
0.356000000000000205,-2.980591191436542164
0.357000000000000206,-2.960423895769190850
0.358000000000000207,-2.939587419575308225
0.359000000000000208,-2.918105062657998516
0.360000000000000209,-2.896000193269228529
0.361000000000000210,-2.873296226032800327
0.362000000000000210,-2.850016599952645890
0.363000000000000211,-2.826184756574672274
0.364000000000000212,-2.801824118365483507
0.365000000000000213,-2.776958067366414262
0.366000000000000214,-2.751609924176714905
0.367000000000000215,-2.725802927315135182
0.368000000000000216,-2.699560213004994047
0.369000000000000217,-2.672904795423414637
0.370000000000000218,-2.645859547451677507
0.371000000000000218,-2.618447181959574266
0.372000000000000219,-2.590690233653217600
0.373000000000000220,-2.562611041512107501
0.374000000000000221,-2.534231731838052504
0.375000000000000222,-2.505574201935262035
0.376000000000000223,-2.476660104438132670
0.377000000000000224,-2.447510832300216155
0.378000000000000225,-2.418147504455295582
0.379000000000000226,-2.388590952158952341
0.380000000000000226,-2.358861706016667892
0.381000000000000227,-2.328979983702145873
0.382000000000000228,-2.298965678367649090
0.383000000000000229,-2.268838347746056971
0.384000000000000230,-2.238617203942500744
0.385000000000000231,-2.208321103911965899
0.386000000000000232,-2.177968540617372994
0.387000000000000233,-2.147577634861481677
0.388000000000000234,-2.117166127784414709
0.389000000000000234,-2.086751374017593808
0.390000000000000235,-2.056350335483507763
0.391000000000000236,-2.025979575829986334
0.392000000000000237,-1.995655255486501245
0.393000000000000238,-1.965393127329380984
0.394000000000000239,-1.935208532941931736
0.395000000000000240,-1.905116399454917175
0.396000000000000241,-1.875131236952237046
0.397000000000000242,-1.845267136426083310
0.398000000000000242,-1.815537768265572227
0.399000000000000243,-1.785956381262332471
0.400000000000000244,-1.756535802116282685
0.401000000000000245,-1.727288435424731317
0.402000000000000246,-1.698226264137488117
0.403000000000000247,-1.669360850460779755
0.404000000000000248,-1.640703337192579214
0.405000000000000249,-1.612264449471956684
0.406000000000000250,-1.584054496925023203
0.407000000000000250,-1.556083376190185330
0.408000000000000251,-1.528360573805382927
0.409000000000000252,-1.500895169440272792
0.410000000000000253,-1.473695839456291123
0.411000000000000254,-1.446770860777878864
0.412000000000000255,-1.420128115058228557
0.413000000000000256,-1.393775093123282405
0.414000000000000257,-1.367718899677782485
0.415000000000000258,-1.341966258257695888
0.416000000000000258,-1.316523516413370842
0.417000000000000259,-1.291396651108315696
0.418000000000000260,-1.266591274318666027
0.419000000000000261,-1.242112638818808845
0.420000000000000262,-1.217965644138988335
0.421000000000000263,-1.194154842681048212
0.422000000000000264,-1.170684445978830590
0.423000000000000265,-1.147558331090130945
0.424000000000000266,-1.124780047107561076
0.425000000000000266,-1.102352821775870684
0.426000000000000267,-1.080279568203877272
0.427000000000000268,-1.058562891659393213
0.428000000000000269,-1.037205096435973584
0.429000000000000270,-1.016208192780745589
0.430000000000000271,-0.995573903872848276
0.431000000000000272,-0.975303672842540159
0.432000000000000273,-0.955398669821289515
0.433000000000000274,-0.935859799013654459
0.434000000000000274,-0.916687705782013751
0.435000000000000275,-0.897882783735713064
0.436000000000000276,-0.879445181816470245
0.437000000000000277,-0.861374811372235483
0.438000000000000278,-0.843671353212165798
0.439000000000000279,-0.826334264635600113
0.440000000000000280,-0.809362786428339143
0.441000000000000281,-0.792755949819835215
0.442000000000000282,-0.776512583395299050
0.443000000000000282,-0.760631319956913687
0.444000000000000283,-0.745110603328849819
0.445000000000000284,-0.729948695100922751
0.446000000000000285,-0.715143681306083856
0.447000000000000286,-0.700693479027346910
0.448000000000000287,-0.686595842929795142
0.449000000000000288,-0.672848371713869353
0.450000000000000289,-0.659448514486168702
0.451000000000000290,-0.646393577044423684
0.452000000000000290,-0.633680728073480193
0.453000000000000291,-0.621307005249365663
0.454000000000000292,-0.609269321248819717
0.455000000000000293,-0.597564469661811981
0.456000000000000294,-0.586189130804872116
0.457000000000000295,-0.575139877433207936
0.458000000000000296,-0.564413180349842336
0.459000000000000297,-0.554005413910163780
0.460000000000000298,-0.543912861420504545
0.461000000000000298,-0.534131720429518175
0.462000000000000299,-0.524658107911341598
0.463000000000000300,-0.515488065339629320
0.464000000000000301,-0.506617563651804770
0.465000000000000302,-0.498042508102955139
0.466000000000000303,-0.489758743008949615
0.467000000000000304,-0.481762056378546077
0.468000000000000305,-0.474048184434363140
0.469000000000000306,-0.466612816022682453
0.470000000000000306,-0.459451596912278770
0.471000000000000307,-0.452560133982424950
0.472000000000000308,-0.445933999300525297
0.473000000000000309,-0.439568734089755442
0.474000000000000310,-0.433459852587307626
0.475000000000000311,-0.427602845793878861
0.476000000000000312,-0.421993185115158820
0.477000000000000313,-0.416626325896104710
0.478000000000000314,-0.411497710848921561
0.479000000000000314,-0.406602773375754178
0.480000000000000315,-0.401936940787052610
0.481000000000000316,-0.397495637416816483
0.482000000000000317,-0.393274287635791253
0.483000000000000318,-0.389268318763908883
0.484000000000000319,-0.385473163883187531
0.485000000000000320,-0.381884264552462604
0.486000000000000321,-0.378497073425274055
0.487000000000000322,-0.375307056772329284
0.488000000000000322,-0.372309696909955579
0.489000000000000323,-0.369500494536069979
0.490000000000000324,-0.366874970975102688
0.491000000000000325,-0.364428670333449833
0.492000000000000326,-0.362157161566967034
0.493000000000000327,-0.360056040462117699
0.494000000000000328,-0.358120931532331710
0.495000000000000329,-0.356347489831199238
0.496000000000000330,-0.354731402684097363
0.497000000000000330,-0.353268391339915444
0.498000000000000331,-0.351954212544454303
0.499000000000000332,-0.350784660037202878
0.500000000000000333,-0.349755565973107474
0.501000000000000334,-0.348862802270968886
0.502000000000000335,-0.348102281890144472
0.503000000000000336,-0.347469960037177006
0.504000000000000337,-0.346961835304006372
0.505000000000000338,-0.346573950739384018
0.506000000000000338,-0.346302394855140805
0.507000000000000339,-0.346143302568910516
0.508000000000000340,-0.346092856084926792
0.509000000000000341,-0.346147285714511310
0.510000000000000342,-0.346302870637811233
0.511000000000000343,-0.346555939608393093
0.512000000000000344,-0.346902871602231655
0.513000000000000345,-0.347340096412651289
0.514000000000000346,-0.347864095192770395
0.515000000000000346,-0.348471400946921583
0.516000000000000347,-0.349158598972569179
0.517000000000000348,-0.349922327254232113
0.518000000000000349,-0.350759276810803988
0.519000000000000350,-0.351666191997770883
0.520000000000000351,-0.352639870765723173
0.521000000000000352,-0.353677164876566308
0.522000000000000353,-0.354774980078802760
0.523000000000000353,-0.355930276243247912
0.524000000000000354,-0.357140067460524679
0.525000000000000355,-0.358401422101639833
0.526000000000000356,-0.359711462842921104
0.527000000000000357,-0.361067366656625810
0.528000000000000358,-0.362466364768419702
0.529000000000000359,-0.363905742582981140
0.530000000000000360,-0.365382839578912377
0.531000000000000361,-0.366895049174151222
0.532000000000000361,-0.368439818563019827
0.533000000000000362,-0.370014648526058643
0.534000000000000363,-0.371617093213733041
0.535000000000000364,-0.373244759905118018
0.536000000000000365,-0.374895308742597522
0.537000000000000366,-0.376566452443646948
0.538000000000000367,-0.378255955990663084
0.539000000000000368,-0.379961636299907868
0.540000000000000369,-0.381681361870442548
0.541000000000000369,-0.383413052414088962
0.542000000000000370,-0.385154678467263312
0.543000000000000371,-0.386904260985630022
0.544000000000000372,-0.388659870922443584
0.545000000000000373,-0.390419628791421780
0.546000000000000374,-0.392181704214998095
0.547000000000000375,-0.393944315458750860
0.548000000000000376,-0.395705728952825575
0.549000000000000377,-0.397464258801088988
0.550000000000000377,-0.399218266278784539
0.551000000000000378,-0.400966159319406601
0.552000000000000379,-0.402706391991511814
0.553000000000000380,-0.404437463966145938
0.554000000000000381,-0.406157919975544235
0.555000000000000382,-0.407866349263795780
0.556000000000000383,-0.409561385030029146
0.557000000000000384,-0.411241703864810404
0.558000000000000385,-0.412906025180272362
0.559000000000000385,-0.414553110634605371
0.560000000000000386,-0.416181763551418560
0.561000000000000387,-0.417790828334545616
0.562000000000000388,-0.419379189878781478
0.563000000000000389,-0.420945772977093735
0.564000000000000390,-0.422489541724738848
0.565000000000000391,-0.424009498920811356
0.566000000000000392,-0.425504685467632426
0.567000000000000393,-0.426974179768449313
0.568000000000000393,-0.428417097123835522
0.569000000000000394,-0.429832589127231379
0.570000000000000395,-0.431219843059992169
0.571000000000000396,-0.432578081286319638
0.572000000000000397,-0.433906560648478934
0.573000000000000398,-0.435204571862582212
0.574000000000000399,-0.436471438915347953
0.575000000000000400,-0.437706518462095073
0.576000000000000401,-0.438909199226319491
0.577000000000000401,-0.440078901401147249
0.578000000000000402,-0.441215076052926480
0.579000000000000403,-0.442317204527240104
0.580000000000000404,-0.443384797857620416
0.581000000000000405,-0.444417396177175739
0.582000000000000406,-0.445414568133400857
0.583000000000000407,-0.446375910306374024
0.584000000000000408,-0.447301046630571186
0.585000000000000409,-0.448189627820492209
0.586000000000000409,-0.449041330800301897
0.587000000000000410,-0.449855858137673370
0.588000000000000411,-0.450632937481988294
0.589000000000000412,-0.451372321007103061
0.590000000000000413,-0.452073784858784244
0.591000000000000414,-0.452737128607005324
0.592000000000000415,-0.453362174703234977
0.593000000000000416,-0.453948767942823239
0.594000000000000417,-0.454496774932643510
0.595000000000000417,-0.455006083564099384
0.596000000000000418,-0.455476602491569404
0.597000000000000419,-0.455908260616454453
0.598000000000000420,-0.456301006576853740
0.599000000000000421,-0.456654808243010746
0.600000000000000422,-0.456969652218578215
0.601000000000000423,-0.457245543347782057
0.602000000000000424,-0.457482504228557629
0.603000000000000425,-0.457680574731728629
0.604000000000000425,-0.457839811526249030
0.605000000000000426,-0.457960287610594985
0.606000000000000427,-0.458042091850355493
0.607000000000000428,-0.458085328521988466
0.608000000000000429,-0.458090116862914676
0.609000000000000430,-0.458056590627798244
0.610000000000000431,-0.457984897651223632
0.611000000000000432,-0.457875199416646450
0.612000000000000433,-0.457727670631691286
0.613000000000000433,-0.457542498809837883
