# Cr2O3-001_GUANINEKETO
# h[nm],U(h)[kJ/mol]
0.149999999999999994,168.224897332516292181
0.150999999999999995,166.762110677198677422
0.151999999999999996,163.717367495405369482
0.152999999999999997,160.384327632805138819
0.153999999999999998,157.227536692063068813
0.154999999999999999,154.327476267187705616
0.156000000000000000,151.618242997852775034
0.157000000000000001,149.004173631834504477
0.158000000000000002,146.408891242739116478
0.159000000000000002,143.789039859345052719
0.160000000000000003,141.131506715355214965
0.161000000000000004,138.444555318861546311
0.162000000000000005,135.748222045611527165
0.163000000000000006,133.066369361099248181
0.164000000000000007,130.421149713750367027
0.165000000000000008,127.829799369401072795
0.166000000000000009,125.303319033811888517
0.167000000000000010,122.846498776500581585
0.168000000000000010,120.458779954963958403
0.169000000000000011,118.135540262988072868
0.170000000000000012,115.869496675333834901
0.171000000000000013,113.652022579701338145
0.172000000000000014,111.474259844542984865
0.173000000000000015,109.327971166427545313
0.174000000000000016,107.206123773073841221
0.175000000000000017,105.103225197048487871
0.176000000000000018,103.015448728366294517
0.177000000000000018,100.940593573736848043
0.178000000000000019,98.877925569603078770
0.179000000000000020,96.827940867700817762
0.180000000000000021,94.792089156609591782
0.181000000000000022,92.772486039242508582
0.182000000000000023,90.771637085162907965
0.183000000000000024,88.792189421679779571
0.184000000000000025,86.836720871741633232
0.185000000000000026,84.907571758559839736
0.186000000000000026,83.006720616681619163
0.187000000000000027,81.135702132052145430
0.188000000000000028,79.295563583262605789
0.189000000000000029,77.486854749898398609
0.190000000000000030,75.709645559783979252
0.191000000000000031,73.963565535742120005
0.192000000000000032,72.247859255052205185
0.193000000000000033,70.561452446074582667
0.194000000000000034,68.903023927438141527
0.195000000000000034,67.271079272839259033
0.196000000000000035,65.664022801258482787
0.197000000000000036,64.080225204486026769
0.198000000000000037,62.518084799531528972
0.199000000000000038,60.976081011231443085
0.200000000000000039,59.452819236936576885
0.201000000000000040,57.947066713959578976
0.202000000000000041,56.457779399978107904
0.203000000000000042,54.984120189074289442
0.204000000000000042,53.525469026437484388
0.205000000000000043,52.081425659599119626
0.206000000000000044,50.651805881014617228
0.207000000000000045,49.236632183910657545
0.208000000000000046,47.836119778600405539
0.209000000000000047,46.450658907655125063
0.210000000000000048,45.080794362576753542
0.211000000000000049,43.727203048455258738
0.212000000000000050,42.390670372267535981
0.213000000000000050,41.072066149980791749
0.214000000000000051,39.772320641680146025
0.215000000000000052,38.492401236056196012
0.216000000000000053,37.233290218588408038
0.217000000000000054,35.995963973859218754
0.218000000000000055,34.781373893307225842
0.219000000000000056,33.590429186573942388
0.220000000000000057,32.423981728208403297
0.221000000000000058,31.282813012330240809
0.222000000000000058,30.167623236075844062
0.223000000000000059,29.079022488227202814
0.224000000000000060,28.017523982111974590
0.225000000000000061,26.983539241312051615
0.226000000000000062,25.977375122468636448
0.227000000000000063,24.999232541005433461
0.228000000000000064,24.049206752349697069
0.229000000000000065,23.127289032635552246
0.230000000000000066,22.233369598356041763
0.231000000000000066,21.367241603422904461
0.232000000000000067,20.528606054065111408
0.233000000000000068,19.717077486441468182
0.234000000000000069,18.932190258293164931
0.235000000000000070,18.173405313992628152
0.236000000000000071,17.440117291570107483
0.237000000000000072,16.731661850375811440
0.238000000000000073,16.047323108663455571
0.239000000000000073,15.386341091299902573
0.240000000000000074,14.747919098788131009
0.241000000000000075,14.131230919655882516
0.242000000000000076,13.535427818848802417
0.243000000000000077,12.959645244953071241
0.244000000000000078,12.403009208758748017
0.245000000000000079,11.864642294787314469
0.246000000000000080,11.343669275892278137
0.247000000000000081,10.839222308863558197
0.248000000000000081,10.350445696108627303
0.249000000000000082,9.876500204938286842
0.250000000000000111,9.416566941758521381
0.251000000000000112,8.969850783578928954
0.252000000000000113,8.535583373712061217
0.253000000000000114,8.113025692390335664
0.254000000000000115,7.701470216294327820
0.255000000000000115,7.300242683711227976
0.256000000000000116,6.908703484258173155
0.257000000000000117,6.526248693854663330
0.258000000000000118,6.152310776951372517
0.259000000000000119,5.786358978957308885
0.260000000000000120,5.427899432394708512
0.261000000000000121,5.076475000589071307
0.262000000000000122,4.731664882705191921
0.263000000000000123,4.393084003706271723
0.264000000000000123,4.060382212372372734
0.265000000000000124,3.733243309899481943
0.266000000000000125,3.411383930837919021
0.267000000000000126,3.094552297246832673
0.268000000000000127,2.782526865961937546
0.269000000000000128,2.475114887820932807
0.270000000000000129,2.172150896582547563
0.271000000000000130,1.873495144129627921
0.272000000000000131,1.579031997380350383
0.273000000000000131,1.288668311156983659
0.274000000000000132,1.002331790091985031
0.275000000000000133,0.719969351496078325
0.276000000000000134,0.441545499981778999
0.277000000000000135,0.167040723536559854
0.278000000000000136,-0.103550080323110222
0.279000000000000137,-0.370219140704782623
0.280000000000000138,-0.632947305161080886
0.281000000000000139,-0.891705481463519689
0.282000000000000139,-1.146456024485119629
0.283000000000000140,-1.397154064166749254
0.284000000000000141,-1.643748771306271284
0.285000000000000142,-1.886184558620478624
0.286000000000000143,-2.124402215186376619
0.287000000000000144,-2.358339972972083309
0.288000000000000145,-2.587934504720288853
0.289000000000000146,-2.813121852947994661
0.290000000000000147,-3.033838290280518102
0.291000000000000147,-3.250021111743181201
0.292000000000000148,-3.461609359996958624
0.293000000000000149,-3.668544484822893192
0.294000000000000150,-3.870770938440132536
0.295000000000000151,-4.068236708483596864
0.296000000000000152,-4.260893790673461190
0.297000000000000153,-4.448698603381652461
0.298000000000000154,-4.631612346442722128
0.299000000000000155,-4.809601306670375109
0.300000000000000155,-4.982637112628369280
0.301000000000000156,-5.150696941267971951
0.302000000000000157,-5.313763679086147995
0.303000000000000158,-5.471826040479861319
0.304000000000000159,-5.624878645976194136
0.305000000000000160,-5.772922063005145432
0.306000000000000161,-5.915962811855754566
0.307000000000000162,-6.054013339416566275
0.308000000000000163,-6.187091963250965776
0.309000000000000163,-6.315222788497776740
0.310000000000000164,-6.438435600018989291
0.311000000000000165,-6.556765732140812375
0.312000000000000166,-6.670253918252934788
0.313000000000000167,-6.778946122444476252
0.314000000000000168,-6.882893355265034430
0.315000000000000169,-6.982151475606277025
0.316000000000000170,-7.076780980604572946
0.317000000000000171,-7.166846785368531592
0.318000000000000171,-7.252417994238404830
0.319000000000000172,-7.333567665187429085
0.320000000000000173,-7.410372568878264232
0.321000000000000174,-7.482912943792364047
0.322000000000000175,-7.551272248755933170
0.323000000000000176,-7.615536914093719467
0.324000000000000177,-7.675796092551648186
0.325000000000000178,-7.732141411041308920
0.326000000000000179,-7.784666724174440056
0.327000000000000179,-7.833467870472587080
0.328000000000000180,-7.878642432057956668
0.329000000000000181,-7.920289498555186825
0.330000000000000182,-7.958509435860065651
0.331000000000000183,-7.993403660362021768
0.332000000000000184,-8.025074419139780701
0.333000000000000185,-8.053624576586759787
0.334000000000000186,-8.079157407862599172
0.335000000000000187,-8.101776399510271176
0.336000000000000187,-8.121585057525296136
0.337000000000000188,-8.138686723112437349
0.338000000000000189,-8.153184396319128169
0.339000000000000190,-8.165180567690237368
0.340000000000000191,-8.174777058047762779
0.341000000000000192,-8.182074866461434226
0.342000000000000193,-8.187174026440356300
0.343000000000000194,-8.190173470343902196
0.344000000000000195,-8.191170901979404562
0.345000000000000195,-8.190262677327851293
0.346000000000000196,-8.187543693312854032
0.347000000000000197,-8.183107284506203172
0.348000000000000198,-8.177045127642738720
0.349000000000000199,-8.169447153798756744
0.350000000000000200,-8.160401468072285169
0.351000000000000201,-8.149994276588731879
0.352000000000000202,-8.138309820642971815
0.353000000000000203,-8.125430317778050693
0.354000000000000203,-8.111435909591213189
0.355000000000000204,-8.096404616049969860
0.356000000000000205,-8.080412296094683811
0.357000000000000206,-8.063532614298855705
0.358000000000000207,-8.045837013354015355
0.359000000000000208,-8.027394692143703381
0.360000000000000209,-8.008272589168921485
0.361000000000000210,-7.988535371086443959
0.362000000000000210,-7.968245426121685959
0.363000000000000211,-7.947462862118288562
0.364000000000000212,-7.926245508988381872
0.365000000000000213,-7.904648925329472497
0.366000000000000214,-7.882726408976902022
0.367000000000000215,-7.860529011263940546
0.368000000000000216,-7.838105554765749439
0.369000000000000217,-7.815502654307316277
0.370000000000000218,-7.792764741020536512
0.371000000000000218,-7.769934089240254416
0.372000000000000219,-7.747050846034636784
0.373000000000000220,-7.724153063170680511
0.374000000000000221,-7.701276731321402558
0.375000000000000222,-7.678455816327106831
0.376000000000000223,-7.655722297329553783
0.377000000000000224,-7.633106206603471833
0.378000000000000225,-7.610635670916670037
0.379000000000000226,-7.588336954255892053
0.380000000000000226,-7.566234501762261644
0.381000000000000227,-7.544350984726148290
0.382000000000000228,-7.522707346498004100
0.383000000000000229,-7.501322849177728180
0.384000000000000230,-7.480215120951463348
0.385000000000000231,-7.459400203951052966
0.386000000000000232,-7.438892602517253927
0.387000000000000233,-7.418705331754007481
0.388000000000000234,-7.398849966266861422
0.389000000000000234,-7.379336688984584391
0.390000000000000235,-7.360174339968422075
0.391000000000000236,-7.341370465119358535
0.392000000000000237,-7.322931364698739287
0.393000000000000238,-7.304862141583292612
0.394000000000000239,-7.287166749180300940
0.395000000000000240,-7.269848038934010326
0.396000000000000241,-7.252907807358887737
0.397000000000000242,-7.236346842540162250
0.398000000000000242,-7.220164970046556441
0.399000000000000243,-7.204361098204371316
0.400000000000000244,-7.188933262686353132
0.401000000000000245,-7.173878670372881849
0.402000000000000246,-7.159193742446566588
0.403000000000000247,-7.144874156685448341
0.404000000000000248,-7.130914888923238770
0.405000000000000249,-7.117310253648658325
0.406000000000000250,-7.104053943718942499
0.407000000000000250,-7.091139069165930842
0.408000000000000251,-7.078558195075906667
0.409000000000000252,-7.066303378527298840
0.410000000000000253,-7.054366204572896315
0.411000000000000254,-7.042737821255904862
0.412000000000000255,-7.031408973651346983
0.413000000000000256,-7.020370036926901314
0.414000000000000257,-7.009611048418977752
0.415000000000000258,-6.999121738722292818
0.416000000000000258,-6.988891561792691220
0.417000000000000259,-6.978909724065057496
0.418000000000000260,-6.969165212589595981
0.419000000000000261,-6.959646822191447590
0.420000000000000262,-6.950343181659951242
0.421000000000000263,-6.941242778975407646
0.422000000000000264,-6.932333985582066482
0.423000000000000265,-6.923605079717650490
0.424000000000000266,-6.915044268810602190
0.425000000000000266,-6.906639710957044542
0.426000000000000267,-6.898379535490660075
0.427000000000000268,-6.890251862659368953
0.428000000000000269,-6.882244822423283281
0.429000000000000270,-6.874346572389404386
0.430000000000000271,-6.866545314898774954
0.431000000000000272,-6.858829313282670981
0.432000000000000273,-6.851186907304551710
0.433000000000000274,-6.843606527805237150
0.434000000000000274,-6.836076710568872450
0.435000000000000275,-6.828586109427638107
0.436000000000000276,-6.821123508623522014
0.437000000000000277,-6.813677834445424075
0.438000000000000278,-6.806238166160317959
0.439000000000000279,-6.798793746257095094
0.440000000000000280,-6.791333990021851896
0.441000000000000281,-6.783848494463467382
0.442000000000000282,-6.776327046608336957
0.443000000000000282,-6.768759631182916792
0.444000000000000283,-6.761136437702980118
0.445000000000000284,-6.753447866988101289
0.446000000000000285,-6.745684537119922553
0.447000000000000286,-6.737837288862719376
0.448000000000000287,-6.729897190564258835
0.449000000000000288,-6.721855542555241314
0.450000000000000289,-6.713703881065003820
0.451000000000000290,-6.705433981671163224
0.452000000000000290,-6.697037862300625477
0.453000000000000291,-6.688507785799006733
0.454000000000000292,-6.679836262085427911
0.455000000000000293,-6.671016049909196610
0.456000000000000294,-6.662040158224742825
0.457000000000000295,-6.652901847200778818
0.458000000000000296,-6.643594628879371911
0.459000000000000297,-6.634112267500374749
0.460000000000000298,-6.624448779506195706
0.461000000000000298,-6.614598433241715369
0.462000000000000299,-6.604555748363745593
0.463000000000000300,-6.594315494974042124
0.464000000000000301,-6.583872692489725509
0.465000000000000302,-6.573222608264407185
0.466000000000000303,-6.562360755973112525
0.467000000000000304,-6.551282893773747062
0.468000000000000305,-6.539985022257428504
0.469000000000000306,-6.528463382199734433
0.470000000000000306,-6.516714452124648282
0.471000000000000307,-6.504734945692346670
0.472000000000000308,-6.492521808922108839
0.473000000000000309,-6.480072217260842038
0.474000000000000310,-6.467383572507628742
0.475000000000000311,-6.454453499604369426
0.476000000000000312,-6.441279843302153196
0.477000000000000313,-6.427860664712793159
0.478000000000000314,-6.414194237754496264
0.479000000000000314,-6.400279045500600894
0.480000000000000315,-6.386113776439553469
0.481000000000000316,-6.371697320654570618
0.482000000000000317,-6.357028765930542669
0.483000000000000318,-6.342107393795958004
0.484000000000000319,-6.326932675506936832
0.485000000000000320,-6.311504267980478033
0.486000000000000321,-6.295822009683559983
0.487000000000000322,-6.279885916484529318
0.488000000000000322,-6.263696177472944271
0.489000000000000323,-6.247253150753826034
0.490000000000000324,-6.230557359221926106
0.491000000000000325,-6.213609486321422182
0.492000000000000326,-6.196410371796208238
0.493000000000000327,-6.178961007435765929
0.494000000000000328,-6.161262532821201177
0.495000000000000329,-6.143316231076080491
0.496000000000000330,-6.125123524626129523
0.497000000000000330,-6.106685970972103306
0.498000000000000331,-6.088005258479349813
0.499000000000000332,-6.069083202188014781
0.500000000000000333,-6.049921739647159846
0.501000000000000334,-6.030522926776058945
0.502000000000000335,-6.010888933755825114
0.503000000000000336,-5.991022040954224970
0.504000000000000337,-5.970924634886399573
0.505000000000000338,-5.950599204214067406
0.506000000000000338,-5.930048335785609304
0.507000000000000339,-5.909274710719290447
0.508000000000000340,-5.888281100531638224
0.509000000000000341,-5.867070363313117376
0.510000000000000342,-5.845645439952625644
0.511000000000000343,-5.824009350412782560
0.512000000000000344,-5.802165190057308131
0.513000000000000345,-5.780116126032042168
0.514000000000000346,-5.757865393700937418
0.515000000000000346,-5.735416293138049681
0.516000000000000347,-5.712772185676710635
0.517000000000000348,-5.689936490516895873
0.518000000000000349,-5.666912681391435669
0.519000000000000350,-5.643704283292092505
0.520000000000000351,-5.620314869255930823
0.521000000000000352,-5.596748057212754368
0.522000000000000353,-5.573007506893913110
0.523000000000000353,-5.549096916803011759
0.524000000000000354,-5.525020021248822744
0.525000000000000355,-5.500780587440574187
0.526000000000000356,-5.476382412645844688
0.527000000000000357,-5.451829321411223006
0.528000000000000358,-5.427125162845614526
0.529000000000000359,-5.402273807966349040
0.530000000000000360,-5.377279147107852708
0.531000000000000361,-5.352145087392871758
0.532000000000000361,-5.326875550265922854
0.533000000000000362,-5.301474469088860886
0.534000000000000363,-5.275945786798131643
0.535000000000000364,-5.250293453623497086
0.536000000000000365,-5.224521424867742958
0.537000000000000366,-5.198633658747032982
0.538000000000000367,-5.172634114291330576
0.539000000000000368,-5.146526749304582538
0.540000000000000369,-5.120315518383875109
0.541000000000000369,-5.094004370997274656
0.542000000000000370,-5.067597249619502087
0.543000000000000371,-5.041098087925020010
0.544000000000000372,-5.014510809037774131
0.545000000000000373,-4.987839323836977812
0.546000000000000374,-4.961087529318183087
0.547000000000000375,-4.934259307008987960
0.548000000000000376,-4.907358521438650811
0.549000000000000377,-4.880389018660804545
0.550000000000000377,-4.853354624828567054
0.551000000000000378,-4.826259144821230862
0.552000000000000379,-4.799106360921795655
0.553000000000000380,-4.771900031544481280
0.554000000000000381,-4.744643890011420950
0.555000000000000382,-4.717341643377823246
0.556000000000000383,-4.689996971304554840
0.557000000000000384,-4.662613524977586188
0.558000000000000385,-4.635194926073202382
0.559000000000000385,-4.607744765768338802
0.560000000000000386,-4.580266603795075220
0.561000000000000387,-4.552763967538506762
0.562000000000000388,-4.525240351177078679
0.563000000000000389,-4.497699214864625539
0.564000000000000390,-4.470143983953174249
0.565000000000000391,-4.442578048255723999
0.566000000000000392,-4.415004761348126472
0.567000000000000393,-4.387427439909265203
0.568000000000000393,-4.359849363098620145
0.569000000000000394,-4.332273771970429621
0.570000000000000395,-4.304703868923672516
0.571000000000000396,-4.277142817186875945
0.572000000000000397,-4.249593740337144432
0.573000000000000398,-4.222059721852393643
0.574000000000000399,-4.194543804696137634
0.575000000000000400,-4.167048990933905017
0.576000000000000401,-4.139578241380553081
0.577000000000000401,-4.112134475277732015
0.578000000000000402,-4.084720570000590634
0.579000000000000403,-4.057339360793048577
0.580000000000000404,-4.029993640530913801
0.581000000000000405,-4.002686159511926967
0.582000000000000406,-3.975419625272186952
0.583000000000000407,-3.948196702428023563
0.584000000000000408,-3.921020012542783206
0.585000000000000409,-3.893892134017659767
0.586000000000000409,-3.866815602005915231
0.587000000000000410,-3.839792908349858092
0.588000000000000411,-3.812826501539747337
0.589000000000000412,-3.785918786694122851
0.590000000000000413,-3.759072125560714905
0.591000000000000414,-3.732288836537429599
0.592000000000000415,-3.705571194712696581
0.593000000000000416,-3.678921431924505381
0.594000000000000417,-3.652341736837572572
0.595000000000000417,-3.625834255038082432
0.596000000000000418,-3.599401089145154664
0.597000000000000419,-3.573044298938806485
0.598000000000000420,-3.546765901503480478
0.599000000000000421,-3.520567871386835357
0.600000000000000422,-3.494452140773062432
0.601000000000000423,-3.468420599670282822
0.602000000000000424,-3.442475096111450306
0.603000000000000425,-3.416617436368233562
0.604000000000000425,-3.390849385177357789
0.605000000000000426,-3.365172665978910516
0.606000000000000427,-3.339588961166172876
0.607000000000000428,-3.314099912346289756
0.608000000000000429,-3.288707120611650048
0.609000000000000430,-3.263412146821112803
0.610000000000000431,-3.238216511890995797
0.611000000000000432,-3.213121697095107088
0.612000000000000433,-3.188129144373525126
0.613000000000000433,-3.163240256649697546
