# Cr2O3-001_BSAI25
# h[nm],U(h)[kJ/mol]
0.149999999999999994,138.423626116680964060
0.150999999999999995,135.926639468862362037
0.151999999999999996,134.276947418052117200
0.152999999999999997,132.787706473440834998
0.153999999999999998,131.209043614026938940
0.154999999999999999,129.498564324686327609
0.156000000000000000,127.696058458417070369
0.157000000000000001,125.860145265550769977
0.158000000000000002,124.040286358475981388
0.159000000000000002,122.267850733423642851
0.160000000000000003,120.556520022540595960
0.161000000000000004,118.906496412761867987
0.162000000000000005,117.309552258455482843
0.163000000000000006,115.753501635013392956
0.164000000000000007,114.225556319325363575
0.165000000000000008,112.714501048379062809
0.166000000000000009,111.211848019022824019
0.167000000000000010,109.712212817481855609
0.168000000000000010,108.213158849217933266
0.169000000000000011,106.714724872229993480
0.170000000000000012,105.218803864183243491
0.171000000000000013,103.728494111409446532
0.172000000000000014,102.247501531488779847
0.173000000000000015,100.779638388831912721
0.174000000000000016,99.328438099749874368
0.175000000000000017,97.896887980083150183
0.176000000000000018,96.487270302638052044
0.177000000000000018,95.101095523043042590
0.178000000000000019,93.739108704202550371
0.179000000000000020,92.401349903144193831
0.180000000000000021,91.087250672363808235
0.181000000000000022,89.795751170302565924
0.182000000000000023,88.525425156660901393
0.183000000000000024,87.274603007322610893
0.184000000000000025,86.041485584397804587
0.185000000000000026,84.824244198444176845
0.186000000000000026,83.621103931900961470
0.187000000000000027,82.430409234572408650
0.188000000000000028,81.250671966329917950
0.189000000000000029,80.080602982411363655
0.190000000000000030,78.919128977345309295
0.191000000000000031,77.765396673666572269
0.192000000000000032,76.618766610139047657
0.193000000000000033,75.478798796989806874
0.194000000000000034,74.345232403678821242
0.195000000000000034,73.217961463308697034
0.196000000000000035,72.097008346345276664
0.197000000000000036,70.982496498614736424
0.198000000000000037,69.874623673066125207
0.199000000000000038,68.773636625398268052
0.200000000000000039,67.679808000238423915
0.201000000000000040,66.593415913679919527
0.202000000000000041,65.514726543518008839
0.203000000000000042,64.443979872214498528
0.204000000000000042,63.381378589608367236
0.205000000000000043,62.327080051619574874
0.206000000000000044,61.281191105790796314
0.207000000000000045,60.243765532068138668
0.208000000000000046,59.214803805038684459
0.209000000000000047,58.194254859099167732
0.210000000000000048,57.182019527939601744
0.211000000000000049,56.177955331615031298
0.212000000000000050,55.181882295869570498
0.213000000000000050,54.193589507025102137
0.214000000000000051,53.212842129656188206
0.215000000000000052,52.239388641719656903
0.216000000000000053,51.272968071318317129
0.217000000000000054,50.313317049631720579
0.218000000000000055,49.360176524749078908
0.219000000000000056,48.413298010406208505
0.220000000000000057,47.472449271356502720
0.221000000000000058,46.537419372865429068
0.222000000000000058,45.608023045303568210
0.223000000000000059,44.684104335853547241
0.224000000000000060,43.765539537855588037
0.225000000000000061,42.852239404294479641
0.226000000000000062,41.944150665439664749
0.227000000000000063,41.041256881797721690
0.228000000000000064,40.143578672470198399
0.229000000000000065,39.251173365894871381
0.230000000000000066,38.364134124976928319
0.231000000000000066,37.482588601974498488
0.232000000000000067,36.606697180391378765
0.233000000000000068,35.736650861737366824
0.234000000000000069,34.872668854530488147
0.235000000000000070,34.014995921510653432
0.236000000000000071,33.163899538875909911
0.237000000000000072,32.319666918590272076
0.238000000000000073,31.482601941584942296
0.239000000000000073,30.653022046107015086
0.240000000000000074,29.831255111666145297
0.241000000000000075,29.017636375093786683
0.242000000000000076,28.212505411237138730
0.243000000000000077,27.416203206835298545
0.244000000000000078,26.629069352227098477
0.245000000000000079,25.851439371765401631
0.246000000000000080,25.083642210203294098
0.247000000000000081,24.325997888899987487
0.248000000000000081,23.578815342494596763
0.249000000000000082,22.842390443728639582
0.250000000000000111,22.117004221371523442
0.251000000000000112,21.402921273725780793
0.252000000000000113,20.700388377956294050
0.253000000000000114,20.009633293502403717
0.254000000000000115,19.330863756081793525
0.255000000000000115,18.664266657276705530
0.256000000000000116,18.010007403392446435
0.257000000000000117,17.368229446185047493
0.258000000000000118,16.739053977156739705
0.259000000000000119,16.122579776399145857
0.260000000000000120,15.518883206411905107
0.261000000000000121,14.928018340925683916
0.262000000000000122,14.350017218496066818
0.263000000000000123,13.784890210498343066
0.264000000000000123,13.232626493126499412
0.265000000000000124,12.693194613071039356
0.266000000000000125,12.166543136707677064
0.267000000000000126,11.652601372859786366
0.268000000000000127,11.151280159490834620
0.269000000000000128,10.662472705030541675
0.270000000000000129,10.186055475427895800
0.271000000000000130,9.721889118448718392
0.272000000000000131,9.269819417187227018
0.273000000000000131,8.829678265231681422
0.274000000000000132,8.401284656408382290
0.275000000000000133,7.984445682519755394
0.276000000000000134,7.578957532985607592
0.277000000000000135,7.184606490788775446
0.278000000000000136,6.801169919610822845
0.279000000000000137,6.428417237519647998
0.280000000000000138,6.066110873034409323
0.281000000000000139,5.714007199841161899
0.282000000000000139,5.371857446865082153
0.283000000000000140,5.039408580818185435
0.284000000000000141,4.716404158735715058
0.285000000000000142,4.402585148387603731
0.286000000000000143,4.097690714803921885
0.287000000000000144,3.801458971484137805
0.288000000000000145,3.513627695168969556
0.289000000000000146,3.233935003341888770
0.290000000000000147,2.962119993892816439
0.291000000000000147,2.697923346622663310
0.292000000000000148,2.441087886491247083
0.293000000000000149,2.191359108716754100
0.294000000000000150,1.948485666019684759
0.295000000000000151,1.712219818471702126
0.296000000000000152,1.482317846558653285
0.297000000000000153,1.258540428199703465
0.298000000000000154,1.040652980580432985
0.299000000000000155,0.828425967759193860
0.300000000000000155,0.621635175092502323
0.301000000000000156,0.420061951599246086
0.302000000000000157,0.223493421443760443
0.303000000000000158,0.031722665767877342
0.304000000000000159,-0.155451123859816132
0.305000000000000160,-0.338222519080317974
0.306000000000000161,-0.516779754149534254
0.307000000000000162,-0.691304649784726499
0.308000000000000163,-0.861972560120447873
0.309000000000000163,-1.028952341445702467
0.310000000000000164,-1.192406341403386749
0.311000000000000165,-1.352490407347994195
0.312000000000000166,-1.509353912577509949
0.313000000000000167,-1.663139799179500500
0.314000000000000168,-1.813984636259439842
0.315000000000000169,-1.962018692350618654
0.316000000000000170,-2.107366020839150256
0.317000000000000171,-2.250144557273853430
0.318000000000000171,-2.390466227469317584
0.319000000000000172,-2.528437065350655821
0.320000000000000173,-2.664157339529384050
0.321000000000000174,-2.797721687642130028
0.322000000000000175,-2.929219257526911147
0.323000000000000176,-3.058733854354390491
0.324000000000000177,-3.186344092875355027
0.325000000000000178,-3.312123553988191471
0.326000000000000179,-3.436140944873732561
0.327000000000000179,-3.558460261986596151
0.328000000000000180,-3.679140956234374649
0.329000000000000181,-3.798238099716977789
0.330000000000000182,-3.915802553438438416
0.331000000000000183,-4.031881135443102337
0.332000000000000184,-4.146516788865808323
0.333000000000000185,-4.259748749423066805
0.334000000000000186,-4.371612711907951088
0.335000000000000187,-4.482140995285975649
0.336000000000000187,-4.591362706022836804
0.337000000000000188,-4.699303899306409349
0.338000000000000189,-4.805987737856773023
0.339000000000000190,-4.911434648046998142
0.340000000000000191,-5.015662473085471973
0.341000000000000192,-5.118686623037564942
0.342000000000000193,-5.220520221489534762
0.343000000000000194,-5.321174248682006613
0.344000000000000195,-5.420657680962571945
0.345000000000000195,-5.518977626429501626
0.346000000000000196,-5.616139456657833762
0.347000000000000197,-5.712146934419122246
0.348000000000000198,-5.807002337323289076
0.349000000000000199,-5.900706577328231006
0.350000000000000200,-5.993259316078367149
0.351000000000000201,-6.084659076047725712
0.352000000000000202,-6.174903347476869087
0.353000000000000203,-6.263988691105387474
0.354000000000000203,-6.351910836713368980
0.355000000000000204,-6.438664777495605840
0.356000000000000205,-6.524244860302364835
0.357000000000000206,-6.608644871789474351
0.358000000000000207,-6.691858120528112686
0.359000000000000208,-6.773877515132641136
0.360000000000000209,-6.854695638471094199
0.361000000000000210,-6.934304818028816264
0.362000000000000210,-7.012697192501252452
0.363000000000000211,-7.089864774696282623
0.364000000000000212,-7.165799510830785479
0.365000000000000213,-7.240493336309469896
0.366000000000000214,-7.313938228077100590
0.367000000000000215,-7.386126253637717909
0.368000000000000216,-7.457049616836656014
0.369000000000000217,-7.526700700502560792
0.370000000000000218,-7.595072106048123217
0.371000000000000218,-7.662156690128955283
0.372000000000000219,-7.727947598460653822
0.373000000000000220,-7.792438296894421690
0.374000000000000221,-7.855622599851328047
0.375000000000000222,-7.917494696215125138
0.376000000000000223,-7.978049172783154397
0.377000000000000224,-8.037281035373593951
0.378000000000000225,-8.095185727686878607
0.379000000000000226,-8.151759148017422518
0.380000000000000226,-8.206997663911000274
0.381000000000000227,-8.260898124860968750
0.382000000000000228,-8.313457873135567056
0.383000000000000229,-8.364674752826344317
0.384000000000000230,-8.414547117205987803
0.385000000000000231,-8.463073834482141677
0.386000000000000232,-8.510254292031351753
0.387000000000000233,-8.556088399195703076
0.388000000000000234,-8.600576588722043780
0.389000000000000234,-8.643719816921974441
0.390000000000000235,-8.685519562628252643
0.391000000000000236,-8.725977825021157486
0.392000000000000237,-8.765097120395964225
0.393000000000000238,-8.802880477940668413
0.394000000000000239,-8.839331434590418368
0.395000000000000240,-8.874454029023178592
0.396000000000000241,-8.908252794858713131
0.397000000000000242,-8.940732753120725462
0.398000000000000242,-8.971899404019751501
0.399000000000000243,-9.001758718112203184
0.400000000000000244,-9.030317126888762758
0.401000000000000245,-9.057581512843166038
0.402000000000000246,-9.083559199070140977
0.403000000000000247,-9.108257938439496826
0.404000000000000248,-9.131685902390891840
0.405000000000000249,-9.153851669392150114
0.406000000000000250,-9.174764213101749277
0.407000000000000250,-9.194432890274349290
0.408000000000000251,-9.212867428446289253
0.409000000000000252,-9.230077913436087300
0.410000000000000253,-9.246074776693269826
0.411000000000000254,-9.260868782527117204
0.412000000000000255,-9.274471015245051575
0.413000000000000256,-9.286892866229084831
0.414000000000000257,-9.298146020976757242
0.415000000000000258,-9.308242446131810510
0.416000000000000258,-9.317194376528025401
0.417000000000000259,-9.325014302268543886
0.418000000000000260,-9.331714955861258431
0.419000000000000261,-9.337309299429861653
0.420000000000000262,-9.341810512018458468
0.421000000000000263,-9.345231977006875468
0.422000000000000264,-9.347587269652034792
0.423000000000000265,-9.348890144770164667
0.424000000000000266,-9.349154524573163982
0.425000000000000266,-9.348394486671411485
0.426000000000000267,-9.346624252254432719
0.427000000000000268,-9.343858174459805710
0.428000000000000269,-9.340110726939601093
0.429000000000000270,-9.335396492633091015
0.430000000000000271,-9.329730152753198169
0.431000000000000272,-9.323126475993799289
0.432000000000000273,-9.315600307963761040
0.433000000000000274,-9.307166560853273651
0.434000000000000274,-9.297840203337052856
0.435000000000000275,-9.287636250718470876
0.436000000000000276,-9.276569755317977339
0.437000000000000277,-9.264655797108627411
0.438000000000000278,-9.251909474600939376
0.439000000000000279,-9.238345895978801181
0.440000000000000280,-9.223980170487562802
0.441000000000000281,-9.208827400075112024
0.442000000000000282,-9.192902671286214300
0.443000000000000282,-9.176221047409843123
0.444000000000000283,-9.158797560879238020
0.445000000000000284,-9.140647205923484009
0.446000000000000285,-9.121784931469584023
0.447000000000000286,-9.102225634293457546
0.448000000000000287,-9.081984152417836853
0.449000000000000288,-9.061075258755161954
0.450000000000000289,-9.039513654992909153
0.451000000000000290,-9.017313965718759761
0.452000000000000290,-8.994490732782876918
0.453000000000000291,-8.971058409894062891
0.454000000000000292,-8.947031357446753930
0.455000000000000293,-8.922423837575262695
0.456000000000000294,-8.897250009431921569
0.457000000000000295,-8.871523924685316587
0.458000000000000296,-8.845259523234789256
0.459000000000000297,-8.818470629137410199
0.460000000000000298,-8.791170946743246617
0.461000000000000298,-8.763374057035015596
0.462000000000000299,-8.735093414167781845
0.463000000000000300,-8.706342342204528961
0.464000000000000301,-8.677134032043369416
0.465000000000000302,-8.647481538531987866
0.466000000000000303,-8.617397777764963962
0.467000000000000304,-8.586895524559672310
0.468000000000000305,-8.555987410106208557
0.469000000000000306,-8.524685919787025057
0.470000000000000306,-8.493003391161948912
0.471000000000000307,-8.460952012113859055
0.472000000000000308,-8.428543819151011363
0.473000000000000309,-8.395790695861354180
0.474000000000000310,-8.362704371514563917
0.475000000000000311,-8.329296419807457497
0.476000000000000312,-8.295578257748516648
0.477000000000000313,-8.261561144677182611
0.478000000000000314,-8.227256181413729053
0.479000000000000314,-8.192674309535600941
0.480000000000000315,-8.157826310775899259
0.481000000000000316,-8.122722806540188856
0.482000000000000317,-8.087374257537330635
0.483000000000000318,-8.051790963520573996
0.484000000000000319,-8.015983063134871855
0.485000000000000320,-7.979960533866602646
0.486000000000000321,-7.943733192091928963
0.487000000000000322,-7.907310693220047426
0.488000000000000322,-7.870702531927572743
0.489000000000000323,-7.833918042480691568
0.490000000000000324,-7.796966399141322945
0.491000000000000325,-7.759856616653967976
0.492000000000000326,-7.722597550809766176
0.493000000000000327,-7.685197899084587725
0.494000000000000328,-7.647666201347712800
0.495000000000000329,-7.610010840638148366
0.496000000000000330,-7.572240044005248194
0.497000000000000330,-7.534361883410900518
0.498000000000000331,-7.496384276689894932
0.499000000000000332,-7.458314988566132619
0.500000000000000333,-7.420161631721384765
0.501000000000000334,-7.381931667914075845
0.502000000000000335,-7.343632409145452122
0.503000000000000336,-7.305271018870425515
0.504000000000000337,-7.266854513250651237
0.505000000000000338,-7.228389762447297251
0.506000000000000338,-7.189883491951206906
0.507000000000000339,-7.151342283948049605
0.508000000000000340,-7.112772578716215044
0.509000000000000341,-7.074180676055395800
0.510000000000000342,-7.035572736743475275
0.511000000000000343,-6.996954784019945528
0.512000000000000344,-6.958332705093620341
0.513000000000000345,-6.919712252672884922
0.514000000000000346,-6.881099046516571782
0.515000000000000346,-6.842498575003558514
0.516000000000000347,-6.803916196719458576
0.517000000000000348,-6.765357142058711304
0.518000000000000349,-6.726826514840309024
0.519000000000000350,-6.688329293935804110
0.520000000000000351,-6.649870334907822311
0.521000000000000352,-6.611454371657894846
0.522000000000000353,-6.573086018081957249
0.523000000000000353,-6.534769769732285738
0.524000000000000354,-6.496510005484587680
0.525000000000000355,-6.458310989208898789
0.526000000000000356,-6.420176871443118216
0.527000000000000357,-6.382111691068095283
0.528000000000000358,-6.344119376983013758
0.529000000000000359,-6.306203749780179280
0.530000000000000360,-6.268368523418006433
0.531000000000000361,-6.230617306891396368
0.532000000000000361,-6.192953605898461333
0.533000000000000362,-6.155380824502738157
0.534000000000000363,-6.117902266790047783
0.535000000000000364,-6.080521138519172197
0.536000000000000365,-6.043240548765556497
0.537000000000000366,-6.006063511557383272
0.538000000000000367,-5.968992947503137358
0.539000000000000368,-5.932031685410244393
0.540000000000000369,-5.895182463893887892
0.541000000000000369,-5.858447932975644257
0.542000000000000370,-5.821830655671146104
0.543000000000000371,-5.785333109566424881
0.544000000000000372,-5.748957688382302145
0.545000000000000373,-5.712706703526427177
0.546000000000000374,-5.676582385632445771
0.547000000000000375,-5.640586886085921847
0.548000000000000376,-5.604722278536629076
0.549000000000000377,-5.568990560396803957
0.550000000000000377,-5.533393654325035271
0.551000000000000378,-5.497933409695445306
0.552000000000000379,-5.462611604051952341
0.553000000000000380,-5.427429944547201401
0.554000000000000381,-5.392390069365996297
0.555000000000000382,-5.357493549133071298
0.556000000000000383,-5.322741888304757474
0.557000000000000384,-5.288136526544664484
0.558000000000000385,-5.253678840082897317
0.559000000000000385,-5.219370143058880807
0.560000000000000386,-5.185211688847553013
0.561000000000000387,-5.151204671368804888
0.562000000000000388,-5.117350226380059652
0.563000000000000389,-5.083649432751968789
0.564000000000000390,-5.050103313727051457
0.565000000000000391,-5.016712838161272003
0.566000000000000392,-4.983478921748506707
0.567000000000000393,-4.950402428227873131
0.568000000000000393,-4.917484170573839464
0.569000000000000394,-4.884724912169160049
0.570000000000000395,-4.852125367960693936
0.571000000000000396,-4.819686205597916384
0.572000000000000397,-4.787408046554424423
0.573000000000000398,-4.755291467232220626
0.574000000000000399,-4.723337000048985601
0.575000000000000400,-4.691545134508297465
0.576000000000000401,-4.659916318252866674
0.577000000000000401,-4.628450958100961188
0.578000000000000402,-4.597149421065914510
0.579000000000000403,-4.566012035358935073
0.580000000000000404,-4.535039091375320908
0.581000000000000405,-4.504230842664044054
0.582000000000000406,-4.473587506880972064
0.583000000000000407,-4.443109266725675077
0.584000000000000408,-4.412796270862094694
0.585000000000000409,-4.382648634823063105
0.586000000000000409,-4.352666441898859873
0.587000000000000410,-4.322849744009959139
0.588000000000000411,-4.293198562564009890
0.589000000000000412,-4.263712889297322839
0.590000000000000413,-4.234392687100860364
0.591000000000000414,-4.205237890830977321
0.592000000000000415,-4.176248408105077026
0.593000000000000416,-4.147424120082198407
0.594000000000000417,-4.118764882228818536
0.595000000000000417,-4.090270525070089036
0.596000000000000418,-4.061940854926353595
0.597000000000000419,-4.033775654635566532
0.598000000000000420,-4.005774684261334428
0.599000000000000421,-3.977937681787087509
0.600000000000000422,-3.950264363796314626
0.601000000000000423,-3.922754426139174022
0.602000000000000424,-3.895407544585594906
0.603000000000000425,-3.868223375465029257
0.604000000000000425,-3.841201556293047936
0.605000000000000426,-3.814341706384957398
0.606000000000000427,-3.787643427456642176
0.607000000000000428,-3.761106304212630924
0.608000000000000429,-3.734729904921915367
0.609000000000000430,-3.708513781981243707
0.610000000000000431,-3.682457472466501791
0.611000000000000432,-3.656560498672017268
0.612000000000000433,-3.630822368638148223
0.613000000000000433,-3.605242576667286869
