# Cr2O3-001_LEU-AC
# h[nm],U(h)[kJ/mol]
0.149999999999999994,201.866654199997725527
0.150999999999999995,199.592732267831706849
0.151999999999999996,196.809334249979031028
0.152999999999999997,193.916795884195664712
0.153999999999999998,191.079282373475223267
0.154999999999999999,188.342068160482369876
0.156000000000000000,185.698006460504046800
0.157000000000000001,183.122923139941292447
0.158000000000000002,180.592643398396887733
0.159000000000000002,178.089668773046895467
0.160000000000000003,175.604430909112863901
0.161000000000000004,173.134044026371952896
0.162000000000000005,170.680203872843833324
0.163000000000000006,168.247091734510860306
0.164000000000000007,165.839669970995799986
0.165000000000000008,163.462486957767907825
0.166000000000000009,161.118968180081083119
0.167000000000000010,158.811106332230394855
0.168000000000000010,156.539444049488849942
0.169000000000000011,154.303247665827313995
0.170000000000000012,152.100786412786447954
0.171000000000000013,149.929651229645344301
0.172000000000000014,147.787066672915983645
0.173000000000000015,145.670166228852025370
0.174000000000000016,143.576214853966718010
0.175000000000000017,141.502772734057231219
0.176000000000000018,139.447801384471972597
0.177000000000000018,137.409717805089059084
0.178000000000000019,135.387404985997733320
0.179000000000000020,133.380188138131131836
0.180000000000000021,131.387786036748309471
0.181000000000000022,129.410246177154363068
0.182000000000000023,127.447871336602631231
0.183000000000000024,125.501143828791924761
0.184000000000000025,123.570652382222164078
0.185000000000000026,121.657025275910839923
0.186000000000000026,119.760872191553630728
0.187000000000000027,117.882736226419297054
0.188000000000000028,116.023056670639789445
0.189000000000000029,114.182142485418694378
0.190000000000000030,112.360155914315484438
0.191000000000000031,110.557105301374505757
0.192000000000000032,108.772845957557748875
0.193000000000000033,107.007087789817745715
0.194000000000000034,105.259408364826143156
0.195000000000000034,103.529270102873667270
0.196000000000000035,101.816040369813961775
0.197000000000000036,100.119013341411260853
0.198000000000000037,98.437432642677677563
0.199000000000000038,96.770513904597379451
0.200000000000000039,95.117466523972780124
0.201000000000000040,93.477514052787697096
0.202000000000000041,91.849912776898889888
0.203000000000000042,90.233968166858289806
0.204000000000000042,88.629048994193055933
0.205000000000000043,87.034599003436369458
0.206000000000000044,85.450146113232122502
0.207000000000000045,83.875309189137993826
0.208000000000000046,82.309802486931559429
0.209000000000000047,80.753437909189841548
0.210000000000000048,79.206125250760692325
0.211000000000000049,77.667870631675441473
0.212000000000000050,76.138773330308922027
0.213000000000000050,74.619021236417879095
0.214000000000000051,73.108885144267304668
0.215000000000000052,71.608712101510292314
0.216000000000000053,70.118918020856227713
0.217000000000000054,68.639979749771242723
0.218000000000000055,67.172426779341364522
0.219000000000000056,65.716832757714641389
0.220000000000000057,64.273806956845561444
0.221000000000000058,62.843985824131394224
0.222000000000000058,61.428024733378741473
0.223000000000000059,60.026590032741331981
0.224000000000000060,58.640351471096870739
0.225000000000000061,57.269975069004843249
0.226000000000000062,55.916116486063984325
0.227000000000000063,54.579414923277361993
0.228000000000000064,53.260487587003396470
0.229000000000000065,51.959924730247813329
0.230000000000000066,50.678285277445141332
0.231000000000000066,49.416093030458270619
0.232000000000000067,48.173833446256836055
0.233000000000000068,46.951950970560957899
0.234000000000000069,45.750846906593267249
0.235000000000000070,44.570877793895029129
0.236000000000000071,43.412354268856326200
0.237000000000000072,42.275540376103158735
0.238000000000000073,41.160653298099944664
0.239000000000000073,40.067863469185013514
0.240000000000000074,38.997295039678661510
0.241000000000000075,37.949026655623292470
0.242000000000000076,36.923092520057380739
0.243000000000000077,35.919483702427790206
0.244000000000000078,34.938149663749690887
0.245000000000000079,33.978999966371716823
0.246000000000000080,33.041906138651654601
0.247000000000000081,32.126703666443006568
0.248000000000000081,31.233194085001059648
0.249000000000000082,30.361147146700762534
0.250000000000000111,29.510303041784588629
0.251000000000000112,28.680374651203361935
0.252000000000000113,27.871049812448990934
0.253000000000000114,27.081993581090831213
0.254000000000000115,26.312850472494055509
0.255000000000000115,25.563246669910672182
0.256000000000000116,24.832792186777982835
0.257000000000000117,24.121082972626627594
0.258000000000000118,23.427702953487042237
0.259000000000000119,22.752225999080625485
0.260000000000000120,22.094217810390397005
0.261000000000000121,21.453237722423182277
0.262000000000000122,20.828840418099296983
0.263000000000000123,20.220577550240609099
0.264000000000000123,19.627999269570636898
0.265000000000000124,19.050655657498484885
0.266000000000000125,18.488098063230161472
0.267000000000000126,17.939880345443306453
0.268000000000000127,17.405560019374920699
0.269000000000000128,16.884699310714175624
0.270000000000000129,16.376866118164144837
0.271000000000000130,15.881634886943780671
0.272000000000000131,15.398587395849531845
0.273000000000000131,14.927313460786546528
0.274000000000000132,14.467411557919632514
0.275000000000000133,14.018489369785623211
0.276000000000000134,13.580164257857552101
0.277000000000000135,13.152063665160358852
0.278000000000000136,12.733825452610656015
0.279000000000000137,12.325098172794167084
0.280000000000000138,11.925541284907442474
0.281000000000000139,11.534825314576439226
0.282000000000000139,11.152631962229616391
0.283000000000000140,10.778654163647370723
0.284000000000000141,10.412596106237742788
0.285000000000000142,10.054173204501182681
0.286000000000000143,9.703112038047837729
0.287000000000000144,9.359150255421976539
0.288000000000000145,9.022036446869263315
0.289000000000000146,8.691529989059636918
0.290000000000000147,8.367400864647549952
0.291000000000000147,8.049429459419567223
0.292000000000000148,7.737406339642605602
0.293000000000000149,7.431132012090555072
0.294000000000000150,7.130416669089155057
0.295000000000000151,6.835079920783106111
0.296000000000000152,6.544950516694616915
0.297000000000000153,6.259866058509556019
0.298000000000000154,5.979672705897523421
0.299000000000000155,5.704224877045219522
0.300000000000000155,5.433384945459076576
0.301000000000000156,5.167022934474116092
0.302000000000000157,4.905016210790269504
0.303000000000000158,4.647249178247387036
0.304000000000000159,4.393612972943373052
0.305000000000000160,4.144005160699061108
0.306000000000000161,3.898329437776388851
0.307000000000000162,3.656495335664729396
0.308000000000000163,3.418417930663389281
0.309000000000000163,3.184017558905896550
0.310000000000000164,2.953219537394171201
0.311000000000000165,2.725953891538021256
0.312000000000000166,2.502155089626902029
0.313000000000000167,2.281761784597184484
0.314000000000000168,2.064716563398606208
0.315000000000000169,1.850965704208260787
0.316000000000000170,1.640458941688995198
0.317000000000000171,1.433149240441945471
0.318000000000000171,1.228992576759155186
0.319000000000000172,1.027947728741762656
0.320000000000000173,0.829976074813040698
0.321000000000000174,0.635041400621770613
0.322000000000000175,0.443109714300948199
0.323000000000000176,0.254149070019622503
0.324000000000000177,0.068129399740572791
0.325000000000000178,-0.114977646925217766
0.326000000000000179,-0.295198854896536911
0.327000000000000179,-0.472559587978482465
0.328000000000000180,-0.647083925559322037
0.329000000000000181,-0.818794791822596735
0.330000000000000182,-0.987714077660557188
0.331000000000000183,-1.153862755485083991
0.332000000000000184,-1.317260987139876605
0.333000000000000185,-1.477928225124378159
0.334000000000000186,-1.635883307345205040
0.335000000000000187,-1.791144545614442807
0.336000000000000187,-1.943729808117390601
0.337000000000000188,-2.093656596073214082
0.338000000000000189,-2.240942114813617714
0.339000000000000190,-2.385603339503845177
0.340000000000000191,-2.527657075729341507
0.341000000000000192,-2.667120015170113767
0.342000000000000193,-2.804008786582138146
0.343000000000000194,-2.938340002302544551
0.344000000000000195,-3.070130300491349828
0.345000000000000195,-3.199396383319591308
0.346000000000000196,-3.326155051308378852
0.347000000000000197,-3.450423234019697638
0.348000000000000198,-3.572218017294294334
0.349000000000000199,-3.691556667227184896
0.350000000000000200,-3.808456651065969645
0.351000000000000201,-3.922935655211479578
0.352000000000000202,-4.035011600494799566
0.353000000000000203,-4.144702654898980043
0.354000000000000203,-4.252027243888052865
0.355000000000000204,-4.357004058499790666
0.356000000000000205,-4.459652061353282626
0.357000000000000206,-4.559990490716435474
0.358000000000000207,-4.658038862772297506
0.359000000000000208,-4.753816972217961734
0.360000000000000209,-4.847344891323823290
0.361000000000000210,-4.938642967575120224
0.362000000000000210,-5.027731820012665942
0.363000000000000211,-5.114632334383740542
0.364000000000000212,-5.199365657209185088
0.365000000000000213,-5.281953188867269944
0.366000000000000214,-5.362416575789919371
0.367000000000000215,-5.440777701861972737
0.368000000000000216,-5.517058679109325681
0.369000000000000217,-5.591281837756982398
0.370000000000000218,-5.663469715733795873
0.371000000000000218,-5.733645047695928199
0.372000000000000219,-5.801830753637142735
0.373000000000000220,-5.868049927149831646
0.374000000000000221,-5.932325823396633169
0.375000000000000222,-5.994681846848656903
0.376000000000000223,-6.055141538843184179
0.377000000000000224,-6.113728565009378002
0.378000000000000225,-6.170466702607880549
0.379000000000000226,-6.225379827826499124
0.380000000000000226,-6.278491903071537372
0.381000000000000227,-6.329826964290729663
0.382000000000000228,-6.379409108361715930
0.383000000000000229,-6.427262480576628079
0.384000000000000230,-6.473411262251159037
0.385000000000000231,-6.517879658484099892
0.386000000000000232,-6.560691886090694425
0.387000000000000233,-6.601872161731404454
0.388000000000000234,-6.641444690255168481
0.389000000000000234,-6.679433653274702287
0.390000000000000235,-6.715863197989120792
0.391000000000000236,-6.750757426267774974
0.392000000000000237,-6.784140384007241842
0.393000000000000238,-6.816036050772107835
0.394000000000000239,-6.846468329728496727
0.395000000000000240,-6.875461037878103809
0.396000000000000241,-6.903037896599106382
0.397000000000000242,-6.929222522499115300
0.398000000000000242,-6.954038418584346459
0.399000000000000243,-6.977508965747844627
0.400000000000000244,-6.999657414578973835
0.401000000000000245,-7.020506877495295228
0.402000000000000246,-7.040080321196941604
0.403000000000000247,-7.058400559443265720
0.404000000000000248,-7.075490246150342166
0.405000000000000249,-7.091371868807586409
0.406000000000000250,-7.106067742210926852
0.407000000000000250,-7.119600002509535841
0.408000000000000251,-7.131990601562607779
0.409000000000000252,-7.143261301602085389
0.410000000000000253,-7.153433670197022920
0.411000000000000254,-7.162529075514704857
0.412000000000000255,-7.170568681873359829
0.413000000000000256,-7.177573445581214351
0.414000000000000257,-7.183564111055839696
0.415000000000000258,-7.188561207218254090
0.416000000000000258,-7.192585044155281437
0.417000000000000259,-7.195655710044064790
0.418000000000000260,-7.197793068332186017
0.419000000000000261,-7.199016755166832482
0.420000000000000262,-7.199346177066230368
0.421000000000000263,-7.198800508826782796
0.422000000000000264,-7.197398691658806413
0.423000000000000265,-7.195159431544217554
0.424000000000000266,-7.192101197809283697
0.425000000000000266,-7.188242221905373874
0.426000000000000267,-7.183600496391045809
0.427000000000000268,-7.178193774108480696
0.428000000000000269,-7.172039567547505712
0.429000000000000270,-7.165155148390505602
0.430000000000000271,-7.157557547231320427
0.431000000000000272,-7.149263553461798537
0.432000000000000273,-7.140289715319161346
0.433000000000000274,-7.130652340087939578
0.434000000000000274,-7.120367494449981294
0.435000000000000275,-7.109451004976290456
0.436000000000000276,-7.097918458754627125
0.437000000000000277,-7.085785204146665350
0.438000000000000278,-7.073066351668901852
0.439000000000000279,-7.059776774991478376
0.440000000000000280,-7.045931112049205858
0.441000000000000281,-7.031543766259214401
0.442000000000000282,-7.016628907839917773
0.443000000000000282,-7.001200475225803466
0.444000000000000283,-6.985272176573094960
0.445000000000000284,-6.968857491351078792
0.446000000000000285,-6.951969672014253199
0.447000000000000286,-6.934621745750680688
0.448000000000000287,-6.916826516301627592
0.449000000000000288,-6.898596565848308160
0.450000000000000289,-6.879944256961161742
0.451000000000000290,-6.860881734607505500
0.452000000000000290,-6.841420928213580055
0.453000000000000291,-6.821573553776798526
0.454000000000000292,-6.801351116024648036
0.455000000000000293,-6.780764910616305485
0.456000000000000294,-6.759826026383557007
0.457000000000000295,-6.738545347607543867
0.458000000000000296,-6.716933556327916222
0.459000000000000297,-6.695001134681389132
0.460000000000000298,-6.672758367266411028
0.461000000000000298,-6.650215343531168166
0.462000000000000299,-6.627381960181975451
0.463000000000000300,-6.604267923609303814
0.464000000000000301,-6.580882752328965246
0.465000000000000302,-6.557235779435782952
0.466000000000000303,-6.533336155067415163
0.467000000000000304,-6.509192848876073079
0.468000000000000305,-6.484814652505832555
0.469000000000000306,-6.460210182073494067
0.470000000000000306,-6.435387880651077808
0.471000000000000307,-6.410356020747792982
0.472000000000000308,-6.385122706789937652
0.473000000000000309,-6.359695877596834634
0.474000000000000310,-6.334083308851179872
0.475000000000000311,-6.308292615562258732
0.476000000000000312,-6.282331254520579833
0.477000000000000313,-6.256206526742449370
0.478000000000000314,-6.229925579903193622
0.479000000000000314,-6.203495410757823514
0.480000000000000315,-6.176922867547822271
0.481000000000000316,-6.150214652393161785
0.482000000000000317,-6.123377323668230510
0.483000000000000318,-6.096417298360925940
0.484000000000000319,-6.069340854413846742
0.485000000000000320,-6.042154133046778952
0.486000000000000321,-6.014863141059673346
0.487000000000000322,-5.987473753115382991
0.488000000000000322,-5.959991714001307450
0.489000000000000323,-5.932422640869621233
0.490000000000000324,-5.904772025455183204
0.491000000000000325,-5.877045236270737938
0.492000000000000326,-5.849247520778840581
0.493000000000000327,-5.821384007540165939
0.494000000000000328,-5.793459708337598713
0.495000000000000329,-5.765479520275943237
0.496000000000000330,-5.737448227856706495
0.497000000000000330,-5.709370505027913545
0.498000000000000331,-5.681250917208335416
0.499000000000000332,-5.653093923286323097
0.500000000000000333,-5.624903877592729806
0.501000000000000334,-5.596685031847851377
0.502000000000000335,-5.568441537082327919
0.503000000000000336,-5.540177445531798028
0.504000000000000337,-5.511896712505289564
0.505000000000000338,-5.483603198227231523
0.506000000000000338,-5.455300669653139423
0.507000000000000339,-5.426992802258891579
0.508000000000000340,-5.398683181803599851
0.509000000000000341,-5.370375306066276444
0.510000000000000342,-5.342072586556045444
0.511000000000000343,-5.313778350196337819
0.512000000000000344,-5.285495840982807003
0.513000000000000345,-5.257228221615329211
0.514000000000000346,-5.228978575104134663
0.515000000000000346,-5.200749906350124796
0.516000000000000347,-5.172545143699615267
0.517000000000000348,-5.144367140473724120
0.518000000000000349,-5.116218676472355398
0.519000000000000350,-5.088102459453280879
0.520000000000000351,-5.060021126586184970
0.521000000000000352,-5.031977245882205629
0.522000000000000353,-5.003973317598907400
0.523000000000000353,-4.976011775621069333
0.524000000000000354,-4.948094988817527629
0.525000000000000355,-4.920225262374203545
0.526000000000000356,-4.892404839103648762
0.527000000000000357,-4.864635900731383522
0.528000000000000358,-4.836920569159151917
0.529000000000000359,-4.809260907705569466
0.530000000000000360,-4.781658922324171002
0.531000000000000361,-4.754116562799393542
0.532000000000000361,-4.726635723920553644
0.533000000000000362,-4.699218246634233154
0.534000000000000363,-4.671865919175296256
0.535000000000000364,-4.644580478176838056
0.536000000000000365,-4.617363609759314258
0.537000000000000366,-4.590216950599240064
0.538000000000000367,-4.563142088977557798
0.539000000000000368,-4.536140565808224778
0.540000000000000369,-4.509213875647017922
0.541000000000000369,-4.482363467681127922
0.542000000000000370,-4.455590746699587434
0.543000000000000371,-4.428897074044989779
0.544000000000000372,-4.402283768546711329
0.545000000000000373,-4.375752107435976868
0.546000000000000374,-4.349303327242967754
0.547000000000000375,-4.322938624676344155
0.548000000000000376,-4.296659157485469116
0.549000000000000377,-4.270466045305528091
0.550000000000000377,-4.244360370485937395
0.551000000000000378,-4.218343178902220103
0.552000000000000379,-4.192415480751742862
0.553000000000000380,-4.166578251333477034
0.554000000000000381,-4.140832431812076386
0.555000000000000382,-4.115178929966708310
0.556000000000000383,-4.089618620924587056
0.557000000000000384,-4.064152347879847582
0.558000000000000385,-4.038780922797690742
0.559000000000000385,-4.013505127104300740
0.560000000000000386,-3.988325712362689845
0.561000000000000387,-3.963243400934726601
0.562000000000000388,-3.938258886629601996
0.563000000000000389,-3.913372835339056444
0.564000000000000390,-3.888585885659491481
0.565000000000000391,-3.863898649501320115
0.566000000000000392,-3.839311712685713474
0.567000000000000393,-3.814825635529098147
0.568000000000000393,-3.790440953415458836
0.569000000000000394,-3.766158177356847769
0.570000000000000395,-3.741977794542280744
0.571000000000000396,-3.717900268875148129
0.572000000000000397,-3.693926041499537405
0.573000000000000398,-3.670055531315506325
0.574000000000000399,-3.646289135483700594
0.575000000000000400,-3.622627229919331171
0.576000000000000401,-3.599070169775872241
0.577000000000000401,-3.575618289918696124
0.578000000000000402,-3.552271905388683315
0.579000000000000403,-3.529031311856144271
0.580000000000000404,-3.505896786065297199
0.581000000000000405,-3.482868586269281419
0.582000000000000406,-3.459946952656150820
0.583000000000000407,-3.437132107765801692
0.584000000000000408,-3.414424256898221266
0.585000000000000409,-3.391823588513091181
0.586000000000000409,-3.369330274620953247
0.587000000000000410,-3.346944471166217738
0.588000000000000411,-3.324666318401974685
0.589000000000000412,-3.302495941257037604
0.590000000000000413,-3.280433449695110859
0.591000000000000414,-3.258478939066472346
0.592000000000000415,-3.236632490452211464
0.593000000000000416,-3.214894171001156931
0.594000000000000417,-3.193264034259723605
0.595000000000000417,-3.171742120494858597
0.596000000000000418,-3.150328457009993421
0.597000000000000419,-3.129023058454548867
0.598000000000000420,-3.107825927126694143
0.599000000000000421,-3.086737053269868802
0.600000000000000422,-3.065756415362963505
0.601000000000000423,-3.044883980404376356
0.602000000000000424,-3.024119704190117108
0.603000000000000425,-3.003463531586015645
0.604000000000000425,-2.982915396794166174
0.605000000000000426,-2.962475223613775022
0.606000000000000427,-2.942142925696569655
0.607000000000000428,-2.921918406796636170
0.608000000000000429,-2.901801561015259434
0.609000000000000430,-2.881792273040330699
0.610000000000000431,-2.861890418380944823
0.611000000000000432,-2.842095863596921568
0.612000000000000433,-2.822408466523512960
