# Cr2O3-001_PYRIMIDINE-AC
# h[nm],U(h)[kJ/mol]
0.149999999999999994,161.011523511004440934
0.150999999999999995,159.647977786051114890
0.151999999999999996,157.246681007444180977
0.152999999999999997,154.666742725280670356
0.153999999999999998,152.214084958263953240
0.154999999999999999,149.938725558213633349
0.156000000000000000,147.793620170685642279
0.157000000000000001,145.712600985246751861
0.158000000000000002,143.643102940423943892
0.159000000000000002,141.555242169841847044
0.160000000000000003,139.439828713009745798
0.161000000000000004,137.302300732949106532
0.162000000000000005,135.156175065897798504
0.163000000000000006,133.017625072638082884
0.164000000000000007,130.901695569459718627
0.165000000000000008,128.820102072024610607
0.166000000000000009,126.780316119457253876
0.167000000000000010,124.785570117048607131
0.168000000000000010,122.835437771714083510
0.169000000000000011,120.926708529840468032
0.170000000000000012,119.054347449591290342
0.171000000000000013,117.212400490269445186
0.172000000000000014,115.394762476194117085
0.173000000000000015,113.595769002033264883
0.174000000000000016,111.810604883276965893
0.175000000000000017,110.035542227460155118
0.176000000000000018,108.268033027795041789
0.177000000000000018,106.506686545991328785
0.178000000000000019,104.751162584780985298
0.179000000000000020,103.002009640293834991
0.180000000000000021,101.260473104951785217
0.181000000000000022,99.528294075999184543
0.182000000000000023,97.807514552617831782
0.183000000000000024,96.100300294714386951
0.184000000000000025,94.408788617912577479
0.185000000000000026,92.734965035571775616
0.186000000000000026,91.080569964891850532
0.187000000000000027,89.447034666584869456
0.188000000000000028,87.835444126265244336
0.189000000000000029,86.246523631381577957
0.190000000000000030,84.680645263593248728
0.191000000000000031,83.137850327208113299
0.192000000000000032,81.617883789844000830
0.193000000000000033,80.120237051017070939
0.194000000000000034,78.644195717375140475
0.195000000000000034,77.188889499859328680
0.196000000000000035,75.753341818407449182
0.197000000000000036,74.336517173359851540
0.198000000000000037,72.937364797052012477
0.199000000000000038,71.554857518625865964
0.200000000000000039,70.188025149997841368
0.201000000000000040,68.835982025860033673
0.202000000000000041,67.497948603781708243
0.203000000000000042,66.173267252775758607
0.204000000000000042,64.861412532845491796
0.205000000000000043,63.561996398047767798
0.206000000000000044,62.274768846275620149
0.207000000000000045,60.999614595425157404
0.208000000000000046,59.736546393087756712
0.209000000000000047,58.485695570458560155
0.210000000000000048,57.247300435540651620
0.211000000000000049,56.021693070297239103
0.212000000000000050,54.809285055044867363
0.213000000000000050,53.610552594488126488
0.214000000000000051,52.426021466261509829
0.215000000000000052,51.256252157103247669
0.216000000000000053,50.101825495814146905
0.217000000000000054,48.963329037531579502
0.218000000000000055,47.841344401785548257
0.219000000000000056,46.736435718195856737
0.220000000000000057,45.649139289127155905
0.221000000000000058,44.579954538539126929
0.222000000000000058,43.529336280826179006
0.223000000000000059,42.497688312683983725
0.224000000000000060,41.485358304865272316
0.225000000000000061,40.492633948912825304
0.226000000000000062,39.519740296321721473
0.227000000000000063,38.566838213777550948
0.228000000000000064,37.634023867801431606
0.229000000000000065,36.721329144947482348
0.230000000000000066,35.828722909283797549
0.231000000000000066,34.956112996882538368
0.232000000000000067,34.103348847106886410
0.233000000000000068,33.270224672280555467
0.234000000000000069,32.456483070556672033
0.235000000000000070,31.661818991181803540
0.236000000000000071,30.885883966626145991
0.237000000000000072,30.128290531986333889
0.238000000000000073,29.388616758466554302
0.239000000000000073,28.666410834424159049
0.240000000000000074,27.961195634274190525
0.241000000000000075,27.272473222356428124
0.242000000000000076,26.599729245565946201
0.243000000000000077,25.942437175045267139
0.244000000000000078,25.300062363463560189
0.245000000000000079,24.672065890306246416
0.246000000000000080,24.057908173130940099
0.247000000000000081,23.457052327877399023
0.248000000000000081,22.868967266038218611
0.249000000000000082,22.293130520790857219
0.250000000000000111,21.729030798059817187
0.251000000000000112,21.176170251927612043
0.252000000000000113,20.634066486852429279
0.253000000000000114,20.102254291799745545
0.254000000000000115,19.580287113665654886
0.255000000000000115,19.067738279290345815
0.256000000000000116,18.564201976947856565
0.257000000000000117,18.069294009480120877
0.258000000000000118,17.582652332243995374
0.259000000000000119,17.103937389782483791
0.260000000000000120,16.632832265641631864
0.261000000000000121,16.169042660057325378
0.262000000000000122,15.712296710352386953
0.263000000000000123,15.262344668838967010
0.264000000000000123,14.818958452832792005
0.265000000000000124,14.381931081076682943
0.266000000000000125,13.951076010457327925
0.267000000000000126,13.526226386400557189
0.268000000000000127,13.107234219760460547
0.269000000000000128,12.693969502393153803
0.270000000000000129,12.286319272938060365
0.271000000000000130,11.884186643630679114
0.272000000000000131,11.487489798252806139
0.273000000000000131,11.096160970596061546
0.274000000000000132,10.710145412083022620
0.275000000000000133,10.329400356462610233
0.276000000000000134,9.953893988779842772
0.277000000000000135,9.583604425120322290
0.278000000000000136,9.218518708949314799
0.279000000000000137,8.858631829210146691
0.280000000000000138,8.503945764718746858
0.281000000000000139,8.154468558791592159
0.282000000000000139,7.810213427477616044
0.283000000000000140,7.471197904229013531
0.284000000000000141,7.137443023344561155
0.285000000000000142,6.808972544050570619
0.286000000000000143,6.485812216650211681
0.287000000000000144,6.167989091771038268
0.288000000000000145,5.855530873371428413
0.289000000000000146,5.548465315831577982
0.290000000000000147,5.246819665148132472
0.291000000000000147,4.950620143977579879
0.292000000000000148,4.659891480026152166
0.293000000000000149,4.374656477065956395
0.294000000000000150,4.094935627663678801
0.295000000000000151,3.820746766540517037
0.296000000000000152,3.552104763336993987
0.297000000000000153,3.289021253433566105
0.298000000000000154,3.031504405374893185
0.299000000000000155,2.779558723362203665
0.300000000000000155,2.533184883211572203
0.301000000000000156,2.292379600126055905
0.302000000000000157,2.057135526593516062
0.303000000000000158,1.827441178700499602
0.304000000000000159,1.603280889142101318
0.305000000000000160,1.384634785209153840
0.306000000000000161,1.171478790044720331
0.307000000000000162,0.963784645481580604
0.308000000000000163,0.761519954799905530
0.309000000000000163,0.564648243778386183
0.310000000000000164,0.373129038452074790
0.311000000000000165,0.186917958035528770
0.312000000000000166,0.005966821518971521
0.313000000000000167,-0.169776233501705509
0.314000000000000168,-0.340366621144495785
0.315000000000000169,-0.505863168035719513
0.316000000000000170,-0.666327965844953352
0.317000000000000171,-0.821826216764874218
0.318000000000000171,-0.972426073078742070
0.319000000000000172,-1.118198471896406421
0.320000000000000173,-1.259216966077314925
0.321000000000000174,-1.395557552297618020
0.322000000000000175,-1.527298497157479229
0.323000000000000176,-1.654520162164574426
0.324000000000000177,-1.777304828371109036
0.325000000000000178,-1.895736521383868389
0.326000000000000179,-2.009900837411403351
0.327000000000000179,-2.119884770957591869
0.328000000000000180,-2.225776544718795158
0.329000000000000181,-2.327665442191153566
0.330000000000000182,-2.425641643445721307
0.331000000000000183,-2.519796064483065479
0.332000000000000184,-2.610220200533895696
0.333000000000000185,-2.697005973630262510
0.334000000000000186,-2.780245584731464881
0.335000000000000187,-2.860031370650421678
0.336000000000000187,-2.936455665990567176
0.337000000000000188,-3.009610670268632937
0.338000000000000189,-3.079588320367401266
0.339000000000000190,-3.146480168432031377
0.340000000000000191,-3.210377265295544902
0.341000000000000192,-3.271370049493187881
0.342000000000000193,-3.329548241900825989
0.343000000000000194,-3.385000746010285777
0.344000000000000195,-3.437815553833403648
0.345000000000000195,-3.488079657408138523
0.346000000000000196,-3.535878965861854795
0.347000000000000197,-3.581298227971589476
0.348000000000000198,-3.624420960146328863
0.349000000000000199,-3.665329379743296645
0.350000000000000200,-3.704104343618767725
0.351000000000000201,-3.740825291803162145
0.352000000000000202,-3.775570196181173177
0.353000000000000203,-3.808415514049541262
0.354000000000000203,-3.839436146418044871
0.355000000000000204,-3.868705400913142967
0.356000000000000205,-3.896294959138882241
0.357000000000000206,-3.922274848345435494
0.358000000000000207,-3.946713417252008860
0.359000000000000208,-3.969677315868701761
0.360000000000000209,-3.991231479159840667
0.361000000000000210,-4.011439114389984795
0.362000000000000210,-4.030361691993521234
0.363000000000000211,-4.048058939808476531
0.364000000000000212,-4.064588840515876988
0.365000000000000213,-4.080007632126828376
0.366000000000000214,-4.094369811361005418
0.367000000000000215,-4.107728139761915642
0.368000000000000216,-4.120133652396702928
0.369000000000000217,-4.131635668990363719
0.370000000000000218,-4.142281807347447220
0.371000000000000218,-4.152117998916864394
0.372000000000000219,-4.161188506359065009
0.373000000000000220,-4.169535942978063403
0.374000000000000221,-4.177201293884377442
0.375000000000000222,-4.184223938758661276
0.376000000000000223,-4.190641676089922996
0.377000000000000224,-4.196490748765724810
0.378000000000000225,-4.201805870896182071
0.379000000000000226,-4.206620255757338001
0.380000000000000226,-4.210965644743980718
0.381000000000000227,-4.214872337225583188
0.382000000000000228,-4.218369221203786879
0.383000000000000229,-4.221483804673505702
0.384000000000000230,-4.224242247594072630
0.385000000000000231,-4.226669394381034728
0.386000000000000232,-4.228788806832963765
0.387000000000000233,-4.230622797412000757
0.388000000000000234,-4.232192462800476562
0.389000000000000234,-4.233517717660173041
0.390000000000000235,-4.234617328524254987
0.391000000000000236,-4.235508947755976195
0.392000000000000237,-4.236209147511631024
0.393000000000000238,-4.236733453649065062
0.394000000000000239,-4.237096379526259504
0.395000000000000240,-4.237311459638170241
0.396000000000000241,-4.237391283043112189
0.397000000000000242,-4.237347526533190134
0.398000000000000242,-4.237190987506547657
0.399000000000000243,-4.236931616501918185
0.400000000000000244,-4.236578549359107271
0.401000000000000245,-4.236140138971792979
0.402000000000000246,-4.235623986601476432
0.403000000000000247,-4.235036972724423698
0.404000000000000248,-4.234385287385542540
0.405000000000000249,-4.233674460035809162
0.406000000000000250,-4.232909388831908259
0.407000000000000250,-4.232094369379189480
0.408000000000000251,-4.231233122900954768
0.409000000000000252,-4.230328823819138329
0.410000000000000253,-4.229384126733452653
0.411000000000000254,-4.228401192787684337
0.412000000000000255,-4.227381715413752516
0.413000000000000256,-4.226326945445707750
0.414000000000000257,-4.225237715597289778
0.415000000000000258,-4.224114464298401650
0.416000000000000258,-4.222957258886883558
0.417000000000000259,-4.221765818153678573
0.418000000000000260,-4.220539534240344892
0.419000000000000261,-4.219277493889319608
0.420000000000000262,-4.217978499048234298
0.421000000000000263,-4.216641086830758667
0.422000000000000264,-4.215263548837180352
0.423000000000000265,-4.213843949839100489
0.424000000000000266,-4.212380145833252598
0.425000000000000266,-4.210869801470211726
0.426000000000000267,-4.209310406864609888
0.427000000000000268,-4.207699293794033402
0.428000000000000269,-4.206033651294314168
0.429000000000000270,-4.204310540659681905
0.430000000000000271,-4.202526909856478810
0.431000000000000272,-4.200679607359866452
0.432000000000000273,-4.198765395423097679
0.433000000000000274,-4.196780962789562253
0.434000000000000274,-4.194722936857889550
0.435000000000000275,-4.192587895310891710
0.436000000000000276,-4.190372377219257594
0.437000000000000277,-4.188072893631155758
0.438000000000000278,-4.185685937659117783
0.439000000000000279,-4.183207994075753611
0.440000000000000280,-4.180635548429848747
0.441000000000000281,-4.177965095694629483
0.442000000000000282,-4.175193148460085268
0.443000000000000282,-4.172316244681026909
0.444000000000000283,-4.169330954992976679
0.445000000000000284,-4.166233889607621421
0.446000000000000285,-4.163021704799753309
0.447000000000000286,-4.159691108997636277
0.448000000000000287,-4.156238868488399518
0.449000000000000288,-4.152661812750367609
0.450000000000000289,-4.148956839423846965
0.451000000000000290,-4.145120918931909593
0.452000000000000290,-4.141151098762724914
0.453000000000000291,-4.137044507424573858
0.454000000000000292,-4.132798358084841084
0.455000000000000293,-4.128409951903977415
0.456000000000000294,-4.123876681075272721
0.457000000000000295,-4.119196031581243922
0.458000000000000296,-4.114365585677054682
0.459000000000000297,-4.109383024111452620
0.460000000000000298,-4.104246128095358159
0.461000000000000298,-4.098952781028080139
0.462000000000000299,-4.093500969991051619
0.463000000000000300,-4.087888787018565395
0.464000000000000301,-4.082114430155073137
0.465000000000000302,-4.076176204308142204
0.466000000000000303,-4.070072521906117125
0.467000000000000304,-4.063801903369300028
0.468000000000000305,-4.057362977403210280
0.469000000000000306,-4.050754481122299744
0.470000000000000306,-4.043975260012377504
0.471000000000000307,-4.037024267739534267
0.472000000000000308,-4.029900565813517410
0.473000000000000309,-4.022603323112952545
0.474000000000000310,-4.015131815279799454
0.475000000000000311,-4.007485423990170936
0.476000000000000312,-3.999663636108414799
0.477000000000000313,-3.991666042731210062
0.478000000000000314,-3.983492338128095778
0.479000000000000314,-3.975142318584894863
0.480000000000000315,-3.966615881155971746
0.481000000000000316,-3.957913022331403852
0.482000000000000317,-3.949033836624638472
0.483000000000000318,-3.939978515086280275
0.484000000000000319,-3.930747343749299461
0.485000000000000320,-3.921340702010818635
0.486000000000000321,-3.911759060955458889
0.487000000000000322,-3.902002981625089628
0.488000000000000322,-3.892073113239455928
0.489000000000000323,-3.881970191372352108
0.490000000000000324,-3.871695036087423603
0.491000000000000325,-3.861248550037831961
0.492000000000000326,-3.850631716533643445
0.493000000000000327,-3.839845597580844760
0.494000000000000328,-3.828891331895511563
0.495000000000000329,-3.817770132896714408
0.496000000000000330,-3.806483286681386691
0.497000000000000330,-3.795032149984527425
0.498000000000000331,-3.783418148127537961
0.499000000000000332,-3.771642772957886969
0.500000000000000333,-3.759707580782699843
0.501000000000000334,-3.747614190298951709
0.502000000000000335,-3.735364280522877500
0.503000000000000336,-3.722959588720905266
0.504000000000000337,-3.710401908344469035
0.505000000000000338,-3.697693086970806231
0.506000000000000338,-3.684835024251855717
0.507000000000000339,-3.671829669873178492
0.508000000000000340,-3.658679021524678721
0.509000000000000341,-3.645385122885040463
0.510000000000000342,-3.631950061621277204
0.511000000000000343,-3.618375967405162097
0.512000000000000344,-3.604665009947815690
0.513000000000000345,-3.590819397053907291
0.514000000000000346,-3.576841372696766719
0.515000000000000346,-3.562733215115462038
0.516000000000000347,-3.548497234935079181
0.517000000000000348,-3.534135773311231077
0.518000000000000349,-3.519651200099604971
0.519000000000000350,-3.505045912051647061
0.520000000000000351,-3.490322331036972425
0.521000000000000352,-3.475482902293468790
0.522000000000000353,-3.460530092705553784
0.523000000000000353,-3.445466389111355276
0.524000000000000354,-3.430294296639345042
0.525000000000000355,-3.415016337074860964
0.526000000000000356,-3.399635047257013376
0.527000000000000357,-3.384152977506412530
0.528000000000000358,-3.368572690083917021
0.529000000000000359,-3.352896757680893902
0.530000000000000360,-3.337127761941027337
0.531000000000000361,-3.321268292014062151
0.532000000000000361,-3.305320943141514700
0.533000000000000362,-3.289288315274546903
0.534000000000000363,-3.273173011724036741
0.535000000000000364,-3.256977637842934481
0.536000000000000365,-3.240704799740875330
0.537000000000000366,-3.224357103031063154
0.538000000000000367,-3.207937151609295601
0.539000000000000368,-3.191447546465206564
0.540000000000000369,-3.174890884525392032
0.541000000000000369,-3.158269757528500588
0.542000000000000370,-3.141586750931941729
0.543000000000000371,-3.124844442850156501
0.544000000000000372,-3.108045403024160880
0.545000000000000373,-3.091192191822183410
0.546000000000000374,-3.074287359271084874
0.547000000000000375,-3.057333444118333965
0.548000000000000376,-3.040332972924269850
0.549000000000000377,-3.023288459184278132
0.550000000000000377,-3.006202402480629310
0.551000000000000378,-2.989077287663586269
0.552000000000000379,-2.971915584061506799
0.553000000000000380,-2.954719744719513930
0.554000000000000381,-2.937492205666361933
0.555000000000000382,-2.920235385209236423
0.556000000000000383,-2.902951683255880599
0.557000000000000384,-2.885643480663902416
0.558000000000000385,-2.868313138616624514
0.559000000000000385,-2.850962998025237116
0.560000000000000386,-2.833595378956732525
0.561000000000000387,-2.816212580087243733
0.562000000000000388,-2.798816878180318213
0.563000000000000389,-2.781410527589744497
0.564000000000000390,-2.763995759786448847
0.565000000000000391,-2.746574782909028123
0.566000000000000392,-2.729149781337484093
0.567000000000000393,-2.711722915289751956
0.568000000000000393,-2.694296320440468406
0.569000000000000394,-2.676872107561635072
0.570000000000000395,-2.659452362184721252
0.571000000000000396,-2.642039144283646834
0.572000000000000397,-2.624634487978378949
0.573000000000000398,-2.607240401258505536
0.574000000000000399,-2.589858865726498927
0.575000000000000400,-2.572491836360099704
0.576000000000000401,-2.555141241293452659
0.577000000000000401,-2.537808981616572090
0.578000000000000402,-2.520496931192594214
0.579000000000000403,-2.503206936492479162
0.580000000000000404,-2.485940816446732704
0.581000000000000405,-2.468700362313611230
0.582000000000000406,-2.451487337563540425
0.583000000000000407,-2.434303477779164560
0.584000000000000408,-2.417150490570754151
0.585000000000000409,-2.400030055506460869
0.586000000000000409,-2.382943824057022209
0.587000000000000410,-2.365893419554597976
0.588000000000000411,-2.348880437165178581
0.589000000000000412,-2.331906443874359081
0.590000000000000413,-2.314972978485918542
0.591000000000000414,-2.298081551632917829
0.592000000000000415,-2.281233645800947230
0.593000000000000416,-2.264430715363046520
0.594000000000000417,-2.247674186626024806
0.595000000000000417,-2.230965457887848835
0.596000000000000418,-2.214305899505532249
0.597000000000000419,-2.197696853973492015
0.598000000000000420,-2.181139636011699245
0.599000000000000421,-2.164635532663548023
0.600000000000000422,-2.148185803402924421
0.601000000000000423,-2.131791680250239018
0.602000000000000424,-2.115454367897078747
0.603000000000000425,-2.099175043839148991
0.604000000000000425,-2.082954858517185759
0.605000000000000426,-2.066794935465552818
0.606000000000000427,-2.050696371468254675
0.607000000000000428,-2.034660236721904436
0.608000000000000429,-2.018687575005666091
0.609000000000000430,-2.002779403857500640
0.610000000000000431,-1.986936714756807110
0.611000000000000432,-1.971160473312918882
0.612000000000000433,-1.955451619459303014
0.613000000000000433,-1.939811067653216536
