# Cr2O3-001_2HTRIAZOLE-AC
# h[nm],U(h)[kJ/mol]
0.149999999999999994,146.400619475730337626
0.150999999999999995,144.302978019893259898
0.151999999999999996,142.119496269356943685
0.152999999999999997,139.933897991151667384
0.153999999999999998,137.778610968215531329
0.154999999999999999,135.660480324916818518
0.156000000000000000,133.575576465395613468
0.157000000000000001,131.517126806531820193
0.158000000000000002,129.479272417154163577
0.159000000000000002,127.458419953066595554
0.160000000000000003,125.453316837673952477
0.161000000000000004,123.464541963473806163
0.162000000000000005,121.493814959851277990
0.163000000000000006,119.543340107828271357
0.164000000000000007,117.615284273510198432
0.165000000000000008,115.711418857588157039
0.166000000000000009,113.832917516719547280
0.167000000000000010,111.980283020461257593
0.168000000000000010,110.153370342073884558
0.169000000000000011,108.351473768086407290
0.170000000000000012,106.573450073948293948
0.171000000000000013,104.817855525998353983
0.172000000000000014,103.083080361791573409
0.173000000000000015,101.367469769921541456
0.174000000000000016,99.669424904739429394
0.175000000000000017,97.987481028933331118
0.176000000000000018,96.320362511186587540
0.177000000000000018,94.667016222454932972
0.178000000000000019,93.026626009297757491
0.179000000000000020,91.398611518478162452
0.180000000000000021,89.782614837206367042
0.181000000000000022,88.178478314989646947
0.182000000000000023,86.586216643694726258
0.183000000000000024,85.005985870111345548
0.184000000000000025,83.438051559814027769
0.185000000000000026,81.882757866299243688
0.186000000000000026,80.340498815690935430
0.187000000000000027,78.811692714423116968
0.188000000000000028,77.296760236426862889
0.189000000000000029,75.796106452321780012
0.190000000000000030,74.310106826185020168
0.191000000000000031,72.839097022720778796
0.192000000000000032,71.383366234157449526
0.193000000000000033,69.943153645885601577
0.194000000000000034,68.518647606190640431
0.195000000000000034,67.109987041891855597
0.196000000000000035,65.717264662076928516
0.197000000000000036,64.340531510745080368
0.198000000000000037,62.979802461032093674
0.199000000000000038,61.635062284469448457
0.200000000000000039,60.306271974820504056
0.201000000000000040,58.993375054498116583
0.202000000000000041,57.696303640079769082
0.203000000000000042,56.414984090231257596
0.204000000000000042,55.149342103137897197
0.205000000000000043,53.899307170448665261
0.206000000000000044,52.664816330223551688
0.207000000000000045,51.445817192176924948
0.208000000000000046,50.242270234589064160
0.209000000000000047,49.054150393733792157
0.210000000000000048,47.881447983792860157
0.211000000000000049,46.724168998328465818
0.212000000000000050,45.582334853848280432
0.213000000000000050,44.455981642244431384
0.214000000000000051,43.345158962337777098
0.215000000000000052,42.249928401835980196
0.216000000000000053,41.170361740119844285
0.217000000000000054,40.106538939780627118
0.218000000000000055,39.058545991091634164
0.219000000000000056,38.026472668919261366
0.220000000000000057,37.010410256235175552
0.221000000000000058,36.010449282630311529
0.222000000000000058,35.026677320245809710
0.223000000000000059,34.059176873511987083
0.224000000000000060,33.108023393153096947
0.225000000000000061,32.173283439195053290
0.226000000000000062,31.255013012288792140
0.227000000000000063,30.353256067601144252
0.228000000000000064,29.468043220874449162
0.229000000000000065,28.599390652041989824
0.230000000000000066,27.747299208028550765
0.231000000000000066,26.911753703060973919
0.232000000000000067,26.092722411961471352
0.233000000000000068,25.290156749476835785
0.234000000000000069,24.503991126693506430
0.235000000000000070,23.734142973972591761
0.236000000000000071,22.980512918585979776
0.237000000000000072,22.242985104309767053
0.238000000000000073,21.521427639606919513
0.239000000000000073,20.815693160675031947
0.240000000000000074,20.125619495511010371
0.241000000000000075,19.451030415230746939
0.242000000000000076,18.791736459140928162
0.243000000000000077,18.147535820468817747
0.244000000000000078,17.518215280187835248
0.245000000000000079,16.903551177006654882
0.246000000000000080,16.303310402298244242
0.247000000000000081,15.717251409509069404
0.248000000000000081,15.145125228394331174
0.249000000000000082,14.586676475253749885
0.250000000000000111,14.041644351181295391
0.251000000000000112,13.509763621179846638
0.252000000000000113,12.990765567816456638
0.253000000000000114,12.484378913900224362
0.254000000000000115,11.990330709440451429
0.255000000000000115,11.508347178887989415
0.256000000000000116,11.038154525367964709
0.257000000000000117,10.579479689276530152
0.258000000000000118,10.132051059236058421
0.259000000000000119,9.695599133977911066
0.260000000000000120,9.269857134251392239
0.261000000000000121,8.854561564341079105
0.262000000000000122,8.449452723211171801
0.263000000000000123,8.054275165688562055
0.264000000000000123,7.668778114443941085
0.265000000000000124,7.292715823837450095
0.266000000000000125,6.925847896960915406
0.267000000000000126,6.567939557437310505
0.268000000000000127,6.218761877729304111
0.269000000000000128,5.878091965867871416
0.270000000000000129,5.545713112638526177
0.271000000000000130,5.221414901360623695
0.272000000000000131,4.904993282467063231
0.273000000000000131,4.596250615138593787
0.274000000000000132,4.294995678272426787
0.275000000000000133,4.001043653070221140
0.276000000000000134,3.714216079518327884
0.277000000000000135,3.434340789006040673
0.278000000000000136,3.161251815285543110
0.279000000000000137,2.894789285924541211
0.280000000000000138,2.634799296339414010
0.281000000000000139,2.381133768424438468
0.282000000000000139,2.133650295714365264
0.283000000000000140,1.892211976932574258
0.284000000000000141,1.656687239688543034
0.285000000000000142,1.426949655995677579
0.286000000000000143,1.202877751186224975
0.287000000000000144,0.984354807704308832
0.288000000000000145,0.771268665161105260
0.289000000000000146,0.563511517941019946
0.290000000000000147,0.360979711551506544
0.291000000000000147,0.163573538816247671
0.292000000000000148,-0.028802963081099243
0.293000000000000149,-0.216242213784159032
0.294000000000000150,-0.398833288350770254
0.295000000000000151,-0.576662112491679091
0.296000000000000152,-0.749811653793471589
0.297000000000000153,-0.918362108335000649
0.298000000000000154,-1.082391082179918307
0.299000000000000155,-1.241973767297293918
0.300000000000000155,-1.397183111528197408
0.301000000000000156,-1.548089982277688570
0.302000000000000157,-1.694763323670267940
0.303000000000000158,-1.837270306960518074
0.304000000000000159,-1.975676474041738739
0.305000000000000160,-2.110045873941786443
0.306000000000000161,-2.240441192238895596
0.307000000000000162,-2.366923873369913167
0.308000000000000163,-2.489554235839633201
0.309000000000000163,-2.608391580373160767
0.310000000000000164,-2.723494291083188745
0.311000000000000165,-2.834919929750856049
0.312000000000000166,-2.942725323343205801
0.313000000000000167,-3.046966644911397903
0.314000000000000168,-3.147699488032713599
0.315000000000000169,-3.244978934975697449
0.316000000000000170,-3.338859618781973460
0.317000000000000171,-3.429395779469941452
0.318000000000000171,-3.516641314575580601
0.319000000000000172,-3.600649824253721931
0.320000000000000173,-3.681474651169215573
0.321000000000000174,-3.759168915412160139
0.322000000000000175,-3.833785544674692236
0.323000000000000176,-3.905377299928453283
0.324000000000000177,-3.973996796842622636
0.325000000000000178,-4.039696523181603993
0.326000000000000179,-4.102528852420279648
0.327000000000000179,-4.162546053811799318
0.328000000000000180,-4.219800299139793154
0.329000000000000181,-4.274343666382931062
0.330000000000000182,-4.326228140514611908
0.331000000000000183,-4.375505611655869487
0.332000000000000184,-4.422227870793241422
0.333000000000000185,-4.466446603267490545
0.334000000000000186,-4.508213380232402478
0.335000000000000187,-4.547579648275947406
0.336000000000000187,-4.584596717389222142
0.337000000000000188,-4.619315747460901456
0.338000000000000189,-4.651787733467983799
0.339000000000000190,-4.682063489525787325
0.340000000000000191,-4.710193631952572346
0.341000000000000192,-4.736228561496828249
0.342000000000000193,-4.760218444867398091
0.343000000000000194,-4.782213195699432262
0.344000000000000195,-4.802262455081230286
0.345000000000000195,-4.820415571760362283
0.346000000000000196,-4.836721582139562159
0.347000000000000197,-4.851229190166280958
0.348000000000000198,-4.863986747212706518
0.349000000000000199,-4.875042232036190804
0.350000000000000200,-4.884443230903771749
0.351000000000000201,-4.892236917957780484
0.352000000000000202,-4.898470035893545571
0.353000000000000203,-4.903188877014253322
0.354000000000000203,-4.906439264722274096
0.355000000000000204,-4.908266535500604100
0.356000000000000205,-4.908715521433041573
0.357000000000000206,-4.907830533306544396
0.358000000000000207,-4.905655344334152623
0.359000000000000208,-4.902233174532663718
0.360000000000000209,-4.897606675784542674
0.361000000000000210,-4.891817917609435185
0.362000000000000210,-4.884908373666816850
0.363000000000000211,-4.876918909007429193
0.364000000000000212,-4.867889768087772850
0.365000000000000213,-4.857860563558436873
0.366000000000000214,-4.846870265834143154
0.367000000000000215,-4.834957193450208024
0.368000000000000216,-4.822159004207715149
0.369000000000000217,-4.808512687106803796
0.370000000000000218,-4.794054555065433654
0.371000000000000218,-4.778820238418528099
0.372000000000000219,-4.762844679190604502
0.373000000000000220,-4.746162126133013359
0.374000000000000221,-4.728806130515250672
0.375000000000000222,-4.710809542658132898
0.376000000000000223,-4.692204509195520679
0.377000000000000224,-4.673022471049608662
0.378000000000000225,-4.653294162103964737
0.379000000000000226,-4.633049608557234578
0.380000000000000226,-4.612318128939831396
0.381000000000000227,-4.591128334774737141
0.382000000000000228,-4.569508131863207367
0.383000000000000229,-4.547484722175438421
0.384000000000000230,-4.525084606325610714
0.385000000000000231,-4.502333586610716587
0.386000000000000232,-4.479256770591778292
0.387000000000000233,-4.455878575196221547
0.388000000000000234,-4.432222731319663822
0.389000000000000234,-4.408312288905628762
0.390000000000000235,-4.384169622481278950
0.391000000000000236,-4.359816437127621569
0.392000000000000237,-4.335273774862421270
0.393000000000000238,-4.310562021414485301
0.394000000000000239,-4.285700913367805676
0.395000000000000240,-4.260709545654617791
0.396000000000000241,-4.235606379376422481
0.397000000000000242,-4.210409249932398623
0.398000000000000242,-4.185135375435061533
0.399000000000000243,-4.159801365393142270
0.400000000000000244,-4.134423229642263387
0.401000000000000245,-4.109016387504324186
0.402000000000000246,-4.083595677156814041
0.403000000000000247,-4.058175365193873674
0.404000000000000248,-4.032769156361338148
0.405000000000000249,-4.007390203448400356
0.406000000000000250,-3.982051117319062250
0.407000000000000250,-3.956763977067082383
0.408000000000000251,-3.931540340278525836
0.409000000000000252,-3.906391253386618079
0.410000000000000253,-3.881327262104053322
0.411000000000000254,-3.856358421918486989
0.412000000000000255,-3.831494308637335422
0.413000000000000256,-3.806744028968734206
0.414000000000000257,-3.782116231125693950
0.415000000000000258,-3.757619115441429791
0.416000000000000258,-3.733260444983863557
0.417000000000000259,-3.709047556158271419
0.418000000000000260,-3.684987369287159087
0.419000000000000261,-3.661086399157206017
0.420000000000000262,-3.637350765523440721
0.421000000000000263,-3.613786203561420329
0.422000000000000264,-3.590398074258485561
0.423000000000000265,-3.567191374735773302
0.424000000000000266,-3.544170748493164158
0.425000000000000266,-3.521340495569459161
0.426000000000000267,-3.498704582610999037
0.427000000000000268,-3.476266652841926152
0.428000000000000269,-3.454030035929946507
0.429000000000000270,-3.431997757741819477
0.430000000000000271,-3.410172549983060630
0.431000000000000272,-3.388556859716943759
0.432000000000000273,-3.367152858758012623
0.433000000000000274,-3.345962452935899112
0.434000000000000274,-3.324987291225395047
0.435000000000000275,-3.304228774739212504
0.436000000000000276,-3.283688065580104620
0.437000000000000277,-3.263366095549335544
0.438000000000000278,-3.243263574708834085
0.439000000000000279,-3.223380999794652979
0.440000000000000280,-3.203718662479551060
0.441000000000000281,-3.184276657482892681
0.442000000000000282,-3.165054890526319831
0.443000000000000282,-3.146053086133705712
0.444000000000000283,-3.127270795274486925
0.445000000000000284,-3.108707402849338219
0.446000000000000285,-3.090362135017548528
0.447000000000000286,-3.072234066365797212
0.448000000000000287,-3.054322126917840219
0.449000000000000288,-3.036625108985267385
0.450000000000000289,-3.019141673859286890
0.451000000000000290,-3.001870358343899703
0.452000000000000290,-2.984809581130931644
0.453000000000000291,-2.967957649017430199
0.454000000000000292,-2.951312762966307623
0.455000000000000293,-2.934873024010987042
0.456000000000000294,-2.918636439005145355
0.457000000000000295,-2.902600926218688038
0.458000000000000296,-2.886764320781138871
0.459000000000000297,-2.871124379973895024
0.460000000000000298,-2.855678788372721488
0.461000000000000298,-2.840425162842098672
0.462000000000000299,-2.825361057383033447
0.463000000000000300,-2.810483967836016284
0.464000000000000301,-2.795791336441008301
0.465000000000000302,-2.781280556256237713
0.466000000000000303,-2.766948975437759195
0.467000000000000304,-2.752793901381764385
0.468000000000000305,-2.738812604731676537
0.469000000000000306,-2.725002323252085912
0.470000000000000306,-2.711360265571735262
0.471000000000000307,-2.697883614797569329
0.472000000000000308,-2.684569532002208714
0.473000000000000309,-2.671415159586966848
0.474000000000000310,-2.658417624522703360
0.475000000000000311,-2.645574041470760474
0.476000000000000312,-2.632881515786335225
0.477000000000000313,-2.620337146406519047
0.478000000000000314,-2.607938028625342852
0.479000000000000314,-2.595681256758215483
0.480000000000000315,-2.583563926697972413
0.481000000000000316,-2.571583138364978538
0.482000000000000317,-2.559735998053526806
0.483000000000000318,-2.548019620676927666
0.484000000000000319,-2.536431131913554626
0.485000000000000320,-2.524967670256213381
0.486000000000000321,-2.513626388967097558
0.487000000000000322,-2.502404457940652804
0.488000000000000322,-2.491299065476558994
0.489000000000000323,-2.480307419965216642
0.490000000000000324,-2.469426751487856286
0.491000000000000325,-2.458654313333570762
0.492000000000000326,-2.447987383435411779
0.493000000000000327,-2.437423265727823640
0.494000000000000328,-2.426959291427464471
0.495000000000000329,-2.416592820239649164
0.496000000000000330,-2.406321241492410667
0.497000000000000330,-2.396141975200416496
0.498000000000000331,-2.386052473060579437
0.499000000000000332,-2.376050219381625972
0.500000000000000333,-2.366132731949436963
0.501000000000000334,-2.356297562830193204
0.502000000000000335,-2.346542299113282048
0.503000000000000336,-2.336864563595832500
0.504000000000000337,-2.327262015410774154
0.505000000000000338,-2.317732350600251401
0.506000000000000338,-2.308273302636204782
0.507000000000000339,-2.298882642889904293
0.508000000000000340,-2.289558181052140817
0.509000000000000341,-2.280297765505876484
0.510000000000000342,-2.271099283652906475
0.511000000000000343,-2.261960662196299765
0.512000000000000344,-2.252879867380122469
0.513000000000000345,-2.243854905188096716
0.514000000000000346,-2.234883821502745782
0.515000000000000346,-2.225964702226447933
0.516000000000000347,-2.217095673365959030
0.517000000000000348,-2.208274901081872077
0.518000000000000349,-2.199500591704297570
0.519000000000000350,-2.190770991716301630
0.520000000000000351,-2.182084387706321404
0.521000000000000352,-2.173439106290973033
0.522000000000000353,-2.164833514009447235
0.523000000000000353,-2.156266017190799467
0.524000000000000354,-2.147735061795361222
0.525000000000000355,-2.139239133231403578
0.526000000000000356,-2.130776756148262230
0.527000000000000357,-2.122346494207052903
0.528000000000000358,-2.113946949830018518
0.529000000000000359,-2.105576763929662309
0.530000000000000360,-2.097234615618606579
0.531000000000000361,-2.088919221901280654
0.532000000000000361,-2.080629337348342212
0.533000000000000362,-2.072363753754843607
0.534000000000000363,-2.064121299783017616
0.535000000000000364,-2.055900840590628498
0.536000000000000365,-2.047701277445709067
0.537000000000000366,-2.039521547328591922
0.538000000000000367,-2.031360622521952486
0.539000000000000368,-2.023217510189812440
0.540000000000000369,-2.015091251946079076
0.541000000000000369,-2.006980923413558049
0.542000000000000370,-1.998885633773996862
0.543000000000000371,-1.990804525309957995
0.544000000000000372,-1.982736772939154957
0.545000000000000373,-1.974681583741913160
0.546000000000000374,-1.966638196482368928
0.547000000000000375,-1.958605881124014347
0.548000000000000376,-1.950583938340209711
0.549000000000000377,-1.942571699020172904
0.550000000000000377,-1.934568523771030613
0.551000000000000378,-1.926573802416414960
0.552000000000000379,-1.918586953492176450
0.553000000000000380,-1.910607423739627775
0.554000000000000381,-1.902634687596798768
0.555000000000000382,-1.894668246688231417
0.556000000000000383,-1.886707629313594481
0.557000000000000384,-1.878752389935701927
0.558000000000000385,-1.870802108668183195
0.559000000000000385,-1.862856390763294456
0.560000000000000386,-1.854914866100171311
0.561000000000000387,-1.846977188673904369
0.562000000000000388,-1.839043036085735494
0.563000000000000389,-1.831112109034764401
0.564000000000000390,-1.823184130811377202
0.565000000000000391,-1.815258846792756842
0.566000000000000392,-1.807336023940722125
0.567000000000000393,-1.799415450302191744
0.568000000000000393,-1.791496934512454287
0.569000000000000394,-1.783580305301562863
0.570000000000000395,-1.775665411004045069
0.571000000000000396,-1.767752119072110606
0.572000000000000397,-1.759840315592644089
0.573000000000000398,-1.751929904808074756
0.574000000000000399,-1.744020808641391085
0.575000000000000400,-1.736112966225406451
0.576000000000000401,-1.728206333436465680
0.577000000000000401,-1.720300882432778566
0.578000000000000402,-1.712396601197437418
0.579000000000000403,-1.704493493086304934
0.580000000000000404,-1.696591576380939159
0.581000000000000405,-1.688690883846548418
0.582000000000000406,-1.680791462295221139
0.583000000000000407,-1.672893372154409919
0.584000000000000408,-1.664996687040855461
0.585000000000000409,-1.657101493339968812
0.586000000000000409,-1.649207889790775372
0.587000000000000410,-1.641315987076503502
0.588000000000000411,-1.633425907420827938
0.589000000000000412,-1.625537784189913015
0.590000000000000413,-1.617651761500190633
0.591000000000000414,-1.609767993832023070
0.592000000000000415,-1.601886645649233332
0.593000000000000416,-1.594007891024534773
0.594000000000000417,-1.586131913270889093
0.595000000000000417,-1.578258904578887512
0.596000000000000418,-1.570389065660000361
0.597000000000000419,-1.562522605395933128
0.598000000000000420,-1.554659740493878228
0.599000000000000421,-1.546800695147844795
0.600000000000000422,-1.538945700705935948
0.601000000000000423,-1.531094995343643017
0.602000000000000424,-1.523248823743123648
0.603000000000000425,-1.515407436778463346
0.604000000000000425,-1.507571091206869385
0.605000000000000426,-1.499740049365817729
0.606000000000000427,-1.491914578876156749
0.607000000000000428,-1.484094952350993202
0.608000000000000429,-1.476281447110600054
0.609000000000000430,-1.468474344902987117
0.610000000000000431,-1.460673931630418476
0.611000000000000432,-1.452880497081600497
0.612000000000000433,-1.445094334669612568
0.613000000000000433,-1.437315741175559269
