# Cr2O3-001_SULFONICACID
# h[nm],U(h)[kJ/mol]
0.149999999999999994,121.805817767939998930
0.150999999999999995,119.321068706882357446
0.151999999999999996,117.293342384876467577
0.152999999999999997,115.319076142917623429
0.153999999999999998,113.270944582417399715
0.154999999999999999,111.143984633433049680
0.156000000000000000,108.975356213914281511
0.157000000000000001,106.806400358665428030
0.158000000000000002,104.667817399086203523
0.159000000000000002,102.576562497394775164
0.160000000000000003,100.537937257662932211
0.161000000000000004,98.549351740586828896
0.162000000000000005,96.604015403113038474
0.163000000000000006,94.693835333993092718
0.164000000000000007,92.811348608315768161
0.165000000000000008,90.950781917567908863
0.166000000000000009,89.108436036838540417
0.167000000000000010,87.282609815884271143
0.168000000000000010,85.473253252220388276
0.169000000000000011,83.681497895963985911
0.170000000000000012,81.909169547042182558
0.171000000000000013,80.158349897580990273
0.172000000000000014,78.431023162701478668
0.173000000000000015,76.728821196769715129
0.174000000000000016,75.052865291069835507
0.175000000000000017,73.403693487089270775
0.176000000000000018,71.781257417821862532
0.177000000000000018,70.184971120177877424
0.178000000000000019,68.613794859790999681
0.179000000000000020,67.066338917309820999
0.180000000000000021,65.540974860398762303
0.181000000000000022,64.035944613007387716
0.182000000000000023,62.549460330585915813
0.183000000000000024,61.079790513030012278
0.184000000000000025,59.625329840491374966
0.185000000000000026,58.184651867392837232
0.186000000000000026,56.756544965342015985
0.187000000000000027,55.340032800256928169
0.188000000000000028,53.934381211025083758
0.189000000000000029,52.539093680180712909
0.190000000000000030,51.153897705117415740
0.191000000000000031,49.778724341325322200
0.192000000000000032,48.413683041426502029
0.193000000000000033,47.059033693097148898
0.194000000000000034,45.715157496205918619
0.195000000000000034,44.382528039033410039
0.196000000000000035,43.061683653728906052
0.197000000000000036,41.753201865523529079
0.198000000000000037,40.457676507627581941
0.199000000000000038,39.175697859642305332
0.200000000000000039,37.907835984366236914
0.201000000000000040,36.654627286595079738
0.202000000000000041,35.416564196872478476
0.203000000000000042,34.194087791033915380
0.204000000000000042,32.987583089997670527
0.205000000000000043,31.797376740420027375
0.206000000000000044,30.623736752223898350
0.207000000000000045,29.466873960356345208
0.208000000000000046,28.326944882307024898
0.209000000000000047,27.204055657059637241
0.210000000000000048,26.098266772675806635
0.211000000000000049,25.009598316377800842
0.212000000000000050,23.938035510874460243
0.213000000000000050,22.883534332166288294
0.214000000000000051,21.846027035857655818
0.215000000000000052,20.825427450071128277
0.216000000000000053,19.821635922611733349
0.217000000000000054,18.834543837497232488
0.218000000000000055,17.864037640965587883
0.219000000000000056,16.910002339362677048
0.220000000000000057,15.972324450789638917
0.221000000000000058,15.050894409058212631
0.222000000000000058,14.145608432425396117
0.223000000000000059,13.256369880907271863
0.224000000000000060,12.383090134874681354
0.225000000000000061,11.525689034325267812
0.226000000000000062,10.684094922931276272
0.227000000000000063,9.858244343913085572
0.228000000000000064,9.048081436219726825
0.229000000000000065,8.253557079631317350
0.230000000000000066,7.474627836456339658
0.231000000000000066,6.711254735672648408
0.232000000000000067,5.963401942846685344
0.233000000000000068,5.231035356122199609
0.234000000000000069,4.514121165150513981
0.235000000000000070,3.812624406167911761
0.236000000000000071,3.126507542626925762
0.237000000000000072,2.455729096950570955
0.238000000000000073,1.800242355186245646
0.239000000000000073,1.159994162653318339
0.240000000000000074,0.534923825155070198
0.241000000000000075,-0.075037872991253710
0.242000000000000076,-0.669969525939158261
0.243000000000000077,-1.249959832978182472
0.244000000000000078,-1.815108192111550167
0.245000000000000079,-2.365525160073734146
0.246000000000000080,-2.901332780337759765
0.247000000000000081,-3.422664782420113738
0.248000000000000081,-3.929666657288811482
0.249000000000000082,-4.422495614932857144
0.250000000000000111,-4.901320431171829917
0.251000000000000112,-5.366321191587535289
0.252000000000000113,-5.817688941065222608
0.253000000000000114,-6.255625247852000470
0.254000000000000115,-6.680341691299906515
0.255000000000000115,-7.092059282570694734
0.256000000000000116,-7.491007827561833032
0.257000000000000117,-7.877425241182281823
0.258000000000000118,-8.251556821877935377
0.259000000000000119,-8.613654494997824429
0.260000000000000120,-8.963976033214882122
0.261000000000000121,-9.302784261782759856
0.262000000000000122,-9.630346255936448330
0.263000000000000123,-9.946932537237623606
0.264000000000000123,-10.252816275138215474
0.265000000000000124,-10.548272499494068200
0.266000000000000125,-10.833577329214476137
0.267000000000000126,-11.109007221687766886
0.268000000000000127,-11.374838247086215048
0.269000000000000128,-11.631345391127364763
0.270000000000000129,-11.878801889360424582
0.271000000000000130,-12.117478595557763299
0.272000000000000131,-12.347643386325263037
0.273000000000000131,-12.569560603604669424
0.274000000000000132,-12.783490536326548082
0.275000000000000133,-12.989688942086274892
0.276000000000000134,-13.188406609357468113
0.277000000000000135,-13.379888960427596345
0.278000000000000136,-13.564375694940755679
0.279000000000000137,-13.742100473660016746
0.280000000000000138,-13.913290641817644300
0.281000000000000139,-14.078166991204492220
0.282000000000000139,-14.236943559958595173
0.283000000000000140,-14.389827468847116165
0.284000000000000141,-14.537018792693425340
0.285000000000000142,-14.678710465481492164
0.286000000000000143,-14.815088217571172891
0.287000000000000144,-14.946330543379101385
0.288000000000000145,-15.072608697820090384
0.289000000000000146,-15.194086719759784643
0.290000000000000147,-15.310921480702598174
0.291000000000000147,-15.423262756924589922
0.292000000000000148,-15.531253323261443811
0.293000000000000149,-15.635029066771874540
0.294000000000000150,-15.734719118519171488
0.295000000000000151,-15.830446001743931461
0.296000000000000152,-15.922325794740086025
0.297000000000000153,-16.010468306792223103
0.298000000000000154,-16.094977265584216042
0.299000000000000155,-16.175950514546162395
0.300000000000000155,-16.253480218667871071
0.301000000000000156,-16.327653077371884649
0.302000000000000157,-16.398550543106278354
0.303000000000000158,-16.466249044386660927
0.304000000000000159,-16.530820212087597554
0.305000000000000160,-16.592331107854768391
0.306000000000000161,-16.650844453581040483
0.307000000000000162,-16.706418860960688733
0.308000000000000163,-16.759109060207119768
0.309000000000000163,-16.808966127088730502
0.310000000000000164,-16.856037707506434487
0.311000000000000165,-16.900368238902654383
0.312000000000000166,-16.941999167857154873
0.313000000000000167,-16.980969163287390700
0.314000000000000168,-17.017314324732314645
0.315000000000000169,-17.051068385256396454
0.316000000000000170,-17.082262908567141579
0.317000000000000171,-17.110927479992135147
0.318000000000000171,-17.137089891012713849
0.319000000000000172,-17.160776317099596611
0.320000000000000173,-17.182011488640931418
0.321000000000000174,-17.200818854796217749
0.322000000000000175,-17.217220740149812741
0.323000000000000176,-17.231238494075082457
0.324000000000000177,-17.242892632755360438
0.325000000000000178,-17.252202973840176981
0.326000000000000179,-17.259188763745719086
0.327000000000000179,-17.263868797635247176
0.328000000000000180,-17.266261532141264468
0.329000000000000181,-17.266385190914068204
0.330000000000000182,-17.264257863101828860
0.331000000000000183,-17.259897594886933092
0.332000000000000184,-17.253322474219416449
0.333000000000000185,-17.244550708903915393
0.334000000000000186,-17.233600698209489366
0.335000000000000187,-17.220491098183096312
0.336000000000000187,-17.205240880857864738
0.337000000000000188,-17.187869387554812306
0.338000000000000189,-17.168396376484896138
0.339000000000000190,-17.146842064862727995
0.340000000000000191,-17.123227165748424738
0.341000000000000192,-17.097572919837116245
0.342000000000000193,-17.069901122417682870
0.343000000000000194,-17.040234145723843540
0.344000000000000195,-17.008594956900434880
0.345000000000000195,-16.975007131807760885
0.346000000000000196,-16.939494864885041636
0.347000000000000197,-16.902082975292358924
0.348000000000000198,-16.862796909547519419
0.349000000000000199,-16.821662740871182962
0.350000000000000200,-16.778707165449858962
0.351000000000000201,-16.733957495822018302
0.352000000000000202,-16.687441651588180491
0.353000000000000203,-16.639188147640624038
0.354000000000000203,-16.589226080103401273
0.355000000000000204,-16.537585110167459135
0.356000000000000205,-16.484295446000150065
0.357000000000000206,-16.429387822902700833
0.358000000000000207,-16.372893481882442757
0.359000000000000208,-16.314844146801227964
0.360000000000000209,-16.255272000254798570
0.361000000000000210,-16.194209658331466528
0.362000000000000210,-16.131690144392436537
0.363000000000000211,-16.067746862009528286
0.364000000000000212,-16.002413567189964994
0.365000000000000213,-15.935724340011352851
0.366000000000000214,-15.867713555784074941
0.367000000000000215,-15.798415855851910550
0.368000000000000216,-15.727866118135940710
0.369000000000000217,-15.656099427520633327
0.370000000000000218,-15.583151046175350629
0.371000000000000218,-15.509056383898666809
0.372000000000000219,-15.433850968567563555
0.373000000000000220,-15.357570416767979182
0.374000000000000221,-15.280250404678056952
0.375000000000000222,-15.201926639270126884
0.376000000000000223,-15.122634829892870556
0.377000000000000224,-15.042410660290039814
0.378000000000000225,-14.961289761107554597
0.379000000000000226,-14.879307682936490309
0.380000000000000226,-14.796499869935113125
0.381000000000000227,-14.712901634068824563
0.382000000000000228,-14.628548130003462546
0.383000000000000229,-14.543474330683034523
0.384000000000000230,-14.457715003619664884
0.385000000000000231,-14.371304687920323673
0.386000000000000232,-14.284277672071052478
0.387000000000000233,-14.196667972496944898
0.388000000000000234,-14.108509312912625333
0.389000000000000234,-14.019835104475678378
0.390000000000000235,-13.930678426752390209
0.391000000000000236,-13.841072009503083251
0.392000000000000237,-13.751048215291557852
0.393000000000000238,-13.660639022921397867
0.394000000000000239,-13.569876011699378182
0.395000000000000240,-13.478790346524684551
0.396000000000000241,-13.387412763800554671
0.397000000000000242,-13.295773558163361372
0.398000000000000242,-13.203902570022680862
0.399000000000000243,-13.111829173904322232
0.400000000000000244,-13.019582267586915947
0.401000000000000245,-12.927190262021738931
0.402000000000000246,-12.834681072023855108
0.403000000000000247,-12.742082107722001894
0.404000000000000248,-12.649420266753548248
0.405000000000000249,-12.556721927190121590
0.406000000000000250,-12.464012941178520322
0.407000000000000250,-12.371318629281130796
0.408000000000000251,-12.278663775499239819
0.409000000000000252,-12.186072622962317524
0.410000000000000253,-12.093568870265642090
0.411000000000000254,-12.001175668438536448
0.412000000000000255,-11.908915618524853031
0.413000000000000256,-11.816810769757472244
0.414000000000000257,-11.724882618307814752
0.415000000000000258,-11.633152106591918340
0.416000000000000258,-11.541639623113789881
0.417000000000000259,-11.450365002827329164
0.418000000000000260,-11.359347527997581295
0.419000000000000261,-11.268605929542509614
0.420000000000000262,-11.178158388836234138
0.421000000000000263,-11.088022539955048273
0.422000000000000264,-10.998215472347354194
0.423000000000000265,-10.908753733909092531
0.424000000000000266,-10.819653334446364568
0.425000000000000266,-10.730929749506939785
0.426000000000000267,-10.642597924562977596
0.427000000000000268,-10.554672279527121503
0.428000000000000269,-10.467166713584763471
0.429000000000000270,-10.380094610325372173
0.430000000000000271,-10.293468843156080794
0.431000000000000272,-10.207301780981204331
0.432000000000000273,-10.121605294131535757
0.433000000000000274,-10.036390760527764243
0.434000000000000274,-9.951669072062518495
0.435000000000000275,-9.867450641186156446
0.436000000000000276,-9.783745407681657014
0.437000000000000277,-9.700562845614209451
0.438000000000000278,-9.617911970441848979
0.439000000000000279,-9.535801346273567347
0.440000000000000280,-9.454239093261710636
0.441000000000000281,-9.373232895116139218
0.442000000000000282,-9.292790006727793539
0.443000000000000282,-9.212917261889639775
0.444000000000000283,-9.133621081103676431
0.445000000000000284,-9.054907479462716680
0.446000000000000285,-8.976782074596229677
0.447000000000000286,-8.899250094670048128
0.448000000000000287,-8.822316386429653434
0.449000000000000288,-8.745985423277847559
0.450000000000000289,-8.670261313377192636
0.451000000000000290,-8.595147807768665160
0.452000000000000290,-8.520648308497886347
0.453000000000000291,-8.446765876740846224
0.454000000000000292,-8.373503240921335689
0.455000000000000293,-8.300862804812641826
0.456000000000000294,-8.228846655616436578
0.457000000000000295,-8.157456572012106832
0.458000000000000296,-8.086694032170035129
0.459000000000000297,-8.016560221722794921
0.460000000000000298,-7.947056041688384198
0.461000000000000298,-7.878182116340065377
0.462000000000000299,-7.809938801017582755
0.463000000000000300,-7.742326189874788156
0.464000000000000301,-7.675344123559137977
0.465000000000000302,-7.608992196818718412
0.466000000000000303,-7.543269766032548951
0.467000000000000304,-7.478175956660528811
0.468000000000000305,-7.413709670609359925
0.469000000000000306,-7.349869593511067833
0.470000000000000306,-7.286654201911181516
0.471000000000000307,-7.224061770363476853
0.472000000000000308,-7.162090378428885629
0.473000000000000309,-7.100737917575943747
0.474000000000000310,-7.040002097980658569
0.475000000000000311,-6.979880455223711699
0.476000000000000312,-6.920370356883310592
0.477000000000000313,-6.861469009021787357
0.478000000000000314,-6.803173462564721774
0.479000000000000314,-6.745480619571209147
0.480000000000000315,-6.688387239394058881
0.481000000000000316,-6.631889944729140396
0.482000000000000317,-6.575985227552858525
0.483000000000000318,-6.520669454947260135
0.484000000000000319,-6.465938874812097836
0.485000000000000320,-6.411789621463599431
0.486000000000000321,-6.358217721119538979
0.487000000000000322,-6.305219097270569506
0.488000000000000322,-6.252789575937677036
0.489000000000000323,-6.200924890815999291
0.490000000000000324,-6.149620688305029503
0.491000000000000325,-6.098872532425625437
0.492000000000000326,-6.048675909624068758
0.493000000000000327,-5.999026233463832014
0.494000000000000328,-5.949918849205436899
0.495000000000000329,-5.901349038275175651
0.496000000000000330,-5.853312022623301303
0.497000000000000330,-5.805802968972633593
0.498000000000000331,-5.758816992958197822
0.499000000000000332,-5.712349163159133880
0.500000000000000333,-5.666394505023562900
0.501000000000000334,-5.620948004687619459
0.502000000000000335,-5.576004612689689388
0.503000000000000336,-5.531559247581030014
0.504000000000000337,-5.487606799433875970
0.505000000000000338,-5.444142133248337956
0.506000000000000338,-5.401160092259343237
0.507000000000000339,-5.358655501144864886
0.508000000000000340,-5.316623169136828864
0.509000000000000341,-5.275057893036087187
0.510000000000000342,-5.233954460132732578
0.511000000000000343,-5.193307651033314265
0.512000000000000344,-5.153112242396248099
0.513000000000000345,-5.113363009576993079
0.514000000000000346,-5.074054729184418910
0.515000000000000346,-5.035182181549826552
0.516000000000000347,-4.996740153110124538
0.517000000000000348,-4.958723438706789111
0.518000000000000349,-4.921126843801876483
0.519000000000000350,-4.883945186612892897
0.520000000000000351,-4.847173300167838761
0.521000000000000352,-4.810806034282087751
0.522000000000000353,-4.774838257458560165
0.523000000000000353,-4.739264858712728845
0.524000000000000354,-4.704080749324077715
0.525000000000000355,-4.669280864515406471
0.526000000000000356,-4.634860165061584603
0.527000000000000357,-4.600813638829325036
0.528000000000000358,-4.567136302249311441
0.529000000000000359,-4.533823201722424479
0.530000000000000360,-4.500869414961335302
0.531000000000000361,-4.468270052269119219
0.532000000000000361,-4.436020257756256413
0.533000000000000362,-4.404115210497555388
0.534000000000000363,-4.372550125630402462
0.535000000000000364,-4.341320255395791250
0.536000000000000365,-4.310420890123554116
0.537000000000000366,-4.279847359163239773
0.538000000000000367,-4.249595031761917774
0.539000000000000368,-4.219659317890470440
0.540000000000000369,-4.190035669019536613
0.541000000000000369,-4.160719578846608258
0.542000000000000370,-4.131706583975521596
0.543000000000000371,-4.102992264549651047
0.544000000000000372,-4.074572244840171997
0.545000000000000373,-4.046442193790587893
0.546000000000000374,-4.018597825518791744
0.547000000000000375,-3.991034899777918810
0.548000000000000376,-3.963749222377224157
0.549000000000000377,-3.936736645564135273
0.550000000000000377,-3.909993068368662339
0.551000000000000378,-3.883514436911372769
0.552000000000000379,-3.857296744676015798
0.553000000000000380,-3.831336032747960640
0.554000000000000381,-3.805628390019479834
0.555000000000000382,-3.780169953363059054
0.556000000000000383,-3.754956907773665531
0.557000000000000384,-3.729985486481150581
0.558000000000000385,-3.705251971033667324
0.559000000000000385,-3.680752691353231576
0.560000000000000386,-3.656484025764297652
0.561000000000000387,-3.632442400996375831
0.562000000000000388,-3.608624292161604963
0.563000000000000389,-3.585026222708203925
0.564000000000000390,-3.561644764350698100
0.565000000000000391,-3.538476536977807285
0.566000000000000392,-3.515518208538845446
0.567000000000000393,-3.492766494909513852
0.568000000000000393,-3.470218159737834984
0.569000000000000394,-3.447870014271097183
0.570000000000000395,-3.425718917164599642
0.571000000000000396,-3.403761774272877627
0.572000000000000397,-3.381995538424300118
0.573000000000000398,-3.360417209179612286
0.574000000000000399,-3.339023832575274131
0.575000000000000400,-3.317812500852190372
0.576000000000000401,-3.296780352170551875
0.577000000000000401,-3.275924570311492090
0.578000000000000402,-3.255242384366093145
0.579000000000000403,-3.234731068412456612
0.580000000000000404,-3.214387941181453101
0.581000000000000405,-3.194210365711672939
0.582000000000000406,-3.174195748994226296
0.583000000000000407,-3.154341541607915023
0.584000000000000408,-3.134645237345347724
0.585000000000000409,-3.115104372830507451
0.586000000000000409,-3.095716527128302253
0.587000000000000410,-3.076479321346608398
0.588000000000000411,-3.057390418231257012
0.589000000000000412,-3.038447521754500613
0.590000000000000413,-3.019648376697329883
0.591000000000000414,-3.000990768226183381
0.592000000000000415,-2.982472521464413884
0.593000000000000416,-2.964091501058941258
0.594000000000000417,-2.945845610742505727
0.595000000000000417,-2.927732792891965641
0.596000000000000418,-2.909751028082866231
0.597000000000000419,-2.891898334640869095
0.598000000000000420,-2.874172768190173421
0.599000000000000421,-2.856572421199454315
0.600000000000000422,-2.839095422525523382
0.601000000000000423,-2.821739936955115713
0.602000000000000424,-2.804504164745066142
0.603000000000000425,-2.787386341161194547
0.604000000000000425,-2.770384736016181737
0.605000000000000426,-2.753497653206705031
0.606000000000000427,-2.736723430250175504
0.607000000000000428,-2.720060437821135046
0.608000000000000429,-2.703507079287895465
0.609000000000000430,-2.687061790249262838
