# SiO2-Quartz_LEU
# h[nm],U(h)[kJ/mol]
0.200000000000000011,146.163095091096067790
0.201000000000000012,144.417643779596460263
0.202000000000000013,142.545059410945611944
0.203000000000000014,140.652177144453389701
0.204000000000000015,138.789429909694575827
0.205000000000000016,136.974431086652543854
0.206000000000000016,135.207201128765376552
0.207000000000000017,133.479653578215277321
0.208000000000000018,131.781211615881545640
0.209000000000000019,130.101878739090892623
0.210000000000000020,128.433687248735765252
0.211000000000000021,126.771158565224482118
0.212000000000000022,125.111201615104462803
0.213000000000000023,123.452728196408159533
0.214000000000000024,121.796161200328853624
0.215000000000000024,120.142940744919542340
0.216000000000000025,118.495085646794905188
0.217000000000000026,116.854836537517982720
0.218000000000000027,115.224387404143726599
0.219000000000000028,113.605700806382927226
0.220000000000000029,112.000395896909523685
0.221000000000000030,110.409695786272934015
0.222000000000000031,108.834420436016444000
0.223000000000000032,107.275012220460553181
0.224000000000000032,105.731582948703447755
0.225000000000000033,104.203973073553584072
0.226000000000000034,102.691815772797966133
0.227000000000000035,101.194600414684543921
0.228000000000000036,99.711731529979530819
0.229000000000000037,98.242580771847045185
0.230000000000000038,96.786530447553545287
0.231000000000000039,95.343008067089158430
0.232000000000000040,93.911511998290990277
0.233000000000000040,92.491628775926102435
0.234000000000000041,91.083042914564302350
0.235000000000000042,89.685540251877881701
0.236000000000000043,88.299005927583166908
0.237000000000000044,86.923418107663479759
0.238000000000000045,85.558838514319759838
0.239000000000000046,84.205400736356807556
0.240000000000000047,82.863297186232756530
0.241000000000000048,81.532765449680141501
0.242000000000000048,80.214074649976652154
0.243000000000000049,78.907512327768500882
0.244000000000000050,77.613372223189998067
0.245000000000000051,76.331943242750369905
0.246000000000000052,75.063499800795710826
0.247000000000000053,73.808293645083310253
0.248000000000000054,72.566547208242155875
0.249000000000000055,71.338448471235622605
0.250000000000000056,70.124147280642247893
0.251000000000000056,68.923753027646782243
0.252000000000000057,67.737333571980258284
0.253000000000000058,66.564915277495472878
0.254000000000000059,65.406484016444309759
0.255000000000000060,64.261986995712021553
0.256000000000000061,63.131335259199545362
0.257000000000000062,62.014406725258979236
0.258000000000000063,60.911049625706255028
0.259000000000000064,59.821086222686439271
0.260000000000000064,58.744316690885533205
0.261000000000000065,57.680523064695854885
0.262000000000000066,56.629473162474290859
0.263000000000000067,55.590924412595974502
0.264000000000000068,54.564627518284439134
0.265000000000000069,53.550329909951713603
0.266000000000000070,52.547778944829531156
0.267000000000000071,51.556724823879264363
0.268000000000000071,50.576923205258296434
0.269000000000000072,49.608137501940362313
0.270000000000000073,48.650140858426432544
0.271000000000000074,47.702717807847967890
0.272000000000000075,46.765665616186318232
0.273000000000000076,45.838795324855354352
0.274000000000000077,44.921932506573767796
0.275000000000000078,44.014917752353440505
0.276000000000000079,43.117606909618125144
0.277000000000000079,42.229871093011972505
0.278000000000000080,41.351596490434609166
0.279000000000000081,40.482683987313173191
0.280000000000000082,39.623048632163886396
0.281000000000000083,38.772618966168110433
0.282000000000000084,37.931336238851550036
0.283000000000000085,37.099153531066804135
0.284000000000000086,36.276034805387084248
0.285000000000000087,35.461953902774730807
0.286000000000000087,34.656893503027063730
0.287000000000000088,33.860844065066800113
0.288000000000000089,33.073802761662982164
0.289000000000000090,32.295772421672062080
0.290000000000000091,31.526760491400455777
0.291000000000000092,30.766778025227587534
0.292000000000000093,30.015838714213494143
0.293000000000000094,29.273957960056407046
0.294000000000000095,28.541152000477147510
0.295000000000000095,27.817437090893907481
0.296000000000000096,27.102828746122632708
0.297000000000000097,26.397341044794284670
0.298000000000000098,25.700985998226268947
0.299000000000000099,25.013772984619045303
0.300000000000000100,24.335708248672982990
0.301000000000000101,23.666794466028015620
0.302000000000000102,23.007030371324095341
0.303000000000000103,22.356410448151677883
0.304000000000000103,21.714924678713849460
0.305000000000000104,21.082558350642869982
0.306000000000000105,20.459291918104643315
0.307000000000000106,19.845100914077519860
0.308000000000000107,19.239955910502697378
0.309000000000000108,18.643822522867765201
0.310000000000000109,18.056661455696051632
0.311000000000000110,17.478428585371709403
0.312000000000000111,16.909075076722096753
0.313000000000000111,16.348547529809636103
0.314000000000000112,15.796788153442189895
0.315000000000000113,15.253734961995878194
0.316000000000000114,14.719321992250218756
0.317000000000000115,14.193479537060884610
0.318000000000000116,13.676134392835013642
0.319000000000000117,13.167210117927117707
0.320000000000000118,12.666627299235241111
0.321000000000000119,12.174303824445852129
0.322000000000000119,11.690155157549771303
0.323000000000000120,11.214094615427887547
0.324000000000000121,10.746033643481515796
0.325000000000000122,10.285882088459301187
0.326000000000000123,9.833548466806085742
0.327000000000000124,9.388940227029534569
0.328000000000000125,8.951964004746244541
0.329000000000000126,8.522525869229898632
0.330000000000000127,8.100531560437683964
0.331000000000000127,7.685886715639702160
0.332000000000000128,7.278497084915922066
0.333000000000000129,6.878268734918242089
0.334000000000000130,6.485108240420719206
0.335000000000000131,6.098922863297317143
0.336000000000000132,5.719620718676834414
0.337000000000000133,5.347110928124777729
0.338000000000000134,4.981303759795158825
0.339000000000000135,4.622110755581585018
0.340000000000000135,4.269444845372865061
0.341000000000000136,3.923220448590094556
0.342000000000000137,3.583353563244133788
0.343000000000000138,3.249761842809081092
0.344000000000000139,2.922364661255781648
0.345000000000000140,2.601083166633423094
0.346000000000000141,2.285840323623347992
0.347000000000000142,1.976560945521072199
0.348000000000000143,1.673171716128021513
0.349000000000000143,1.375601202055599659
0.350000000000000144,1.083779855960238958
0.351000000000000145,0.797640011240296265
0.352000000000000146,0.517115868732984874
0.353000000000000147,0.242143475954266496
0.354000000000000148,-0.027339300574978732
0.355000000000000149,-0.291392809375332795
0.356000000000000150,-0.550075653891523131
0.357000000000000151,-0.803444737682901589
0.358000000000000151,-1.051555314402826902
0.359000000000000152,-1.294461042059821265
0.360000000000000153,-1.532214041067166743
0.361000000000000154,-1.764864955601743279
0.362000000000000155,-1.992463017810230497
0.363000000000000156,-2.215056114417301991
0.364000000000000157,-2.432690855308875744
0.365000000000000158,-2.645412643682882869
0.366000000000000159,-2.853265747378521233
0.367000000000000159,-3.056293371016067351
0.368000000000000160,-3.254537728598321245
0.369000000000000161,-3.448040116245877584
0.370000000000000162,-3.636840984758433759
0.371000000000000163,-3.820980011714363744
0.372000000000000164,-4.000496172841325304
0.373000000000000165,-4.175427812409912676
0.374000000000000166,-4.345812712422559621
0.375000000000000167,-4.511688160387899771
0.376000000000000167,-4.673091015490524747
0.377000000000000168,-4.830057772983472830
0.378000000000000169,-4.982624626648407329
0.379000000000000170,-5.130827529185512326
0.380000000000000171,-5.274702250411624327
0.381000000000000172,-5.414284433160252874
0.382000000000000173,-5.549609646792756479
0.383000000000000174,-5.680713438243980562
0.384000000000000175,-5.807631380539341137
0.385000000000000175,-5.930399118733195252
0.386000000000000176,-6.049052413231150283
0.387000000000000177,-6.163627180469521960
0.388000000000000178,-6.274159530937280849
0.389000000000000179,-6.380685804534905969
0.390000000000000180,-6.483242603274883109
0.391000000000000181,-6.581866821337198914
0.392000000000000182,-6.676595672501217216
0.393000000000000183,-6.767466714983401133
0.394000000000000183,-6.854517873716941878
0.395000000000000184,-6.937787460115984572
0.396000000000000185,-7.017314189372976685
0.397000000000000186,-7.093137195342765544
0.398000000000000187,-7.165296043072180154
0.399000000000000188,-7.233830739037861335
0.400000000000000189,-7.298781739158640036
0.401000000000000190,-7.360189954652796018
0.402000000000000191,-7.418096755812517706
0.403000000000000191,-7.472543973770899406
0.404000000000000192,-7.523573900338732301
0.405000000000000193,-7.571229285989744540
0.406000000000000194,-7.615553336074715851
0.407000000000000195,-7.656589705345385077
0.408000000000000196,-7.694382490870012248
0.409000000000000197,-7.728976223422749925
0.410000000000000198,-7.760415857429093123
0.411000000000000199,-7.788746759549239229
0.412000000000000199,-7.814014695981325254
0.413000000000000200,-7.836265818565232522
0.414000000000000201,-7.855546649767399359
0.415000000000000202,-7.871904066625610596
0.416000000000000203,-7.885385283731819683
0.417000000000000204,-7.896037835329662968
0.418000000000000205,-7.903909556601763420
0.419000000000000206,-7.909048564220443112
0.420000000000000207,-7.911503236233571101
0.421000000000000207,-7.911322191355822042
0.422000000000000208,-7.908554267733076237
0.423000000000000209,-7.903248501246599389
0.424000000000000210,-7.895454103420739500
0.425000000000000211,-7.885220438996317860
0.426000000000000212,-7.872597003229754087
0.427000000000000213,-7.857633398975373495
0.428000000000000214,-7.840379313606692158
0.429000000000000214,-7.820884495829882432
0.430000000000000215,-7.799198732440561166
0.431000000000000216,-7.775371825072825871
0.432000000000000217,-7.749453566987144271
0.433000000000000218,-7.721493719941567413
0.434000000000000219,-7.691541991188541871
0.435000000000000220,-7.659648010637409854
0.436000000000000221,-7.625861308220517110
0.437000000000000222,-7.590231291498618305
0.438000000000000222,-7.552807223539488746
0.439000000000000223,-7.513638201101199066
0.440000000000000224,-7.472773133149848590
0.441000000000000225,-7.430260719739179009
0.442000000000000226,-7.386149431278090205
0.443000000000000227,-7.340487488209570088
0.444000000000000228,-7.293322841123308642
0.445000000000000229,-7.244703151322040569
0.446000000000000230,-7.194675771859995628
0.447000000000000230,-7.143287729070541658
0.448000000000000231,-7.090585704597870631
0.449000000000000232,-7.036616017946316859
0.450000000000000233,-6.981424609559627292
0.451000000000000234,-6.925057024440322451
0.452000000000000235,-6.867558396318719005
0.453000000000000236,-6.808973432379050728
0.454000000000000237,-6.749346398549479709
0.455000000000000238,-6.688721105360961872
0.456000000000000238,-6.627140894379202507
0.457000000000000239,-6.564648625212457844
0.458000000000000240,-6.501286663097120666
0.459000000000000241,-6.437096867061578465
0.460000000000000242,-6.372120578668510227
0.461000000000000243,-6.306398611334006254
0.462000000000000244,-6.239971240221914073
0.463000000000000245,-6.172878192709960743
0.464000000000000246,-6.105158639424538514
0.465000000000000246,-6.036851185839275935
0.466000000000000247,-5.967993864432431295
0.467000000000000248,-5.898624127397281924
0.468000000000000249,-5.828778839899120712
0.469000000000000250,-5.758494273871789915
0.470000000000000251,-5.687806102346337767
0.471000000000000252,-5.616749394303613307
0.472000000000000253,-5.545358610042617542
0.473000000000000254,-5.473667597055353440
0.474000000000000254,-5.401709586399249474
0.475000000000000255,-5.329517189557263279
0.476000000000000256,-5.257122395775914114
0.477000000000000257,-5.184556569870951037
0.478000000000000258,-5.111850450490122100
0.479000000000000259,-5.039034148822496562
0.480000000000000260,-4.966137147743330260
0.481000000000000261,-4.893188301383378125
0.482000000000000262,-4.820215835111568481
0.483000000000000262,-4.747247345919674011
0.484000000000000263,-4.674309803197419733
0.485000000000000264,-4.601429549886788095
0.486000000000000265,-4.528632304003725295
0.487000000000000266,-4.455943160515803747
0.488000000000000267,-4.383386593564219780
0.489000000000000268,-4.310986459018559813
0.490000000000000269,-4.238765997352674120
0.491000000000000270,-4.166747836830316132
0.492000000000000270,-4.094953996988837552
0.493000000000000271,-4.023405892409732232
0.494000000000000272,-3.952124336764664569
0.495000000000000273,-3.881129547125582668
0.496000000000000274,-3.810441148528091126
0.497000000000000275,-3.740078178776799156
0.498000000000000276,-3.670059093481920165
0.499000000000000277,-3.600401771316378952
0.500000000000000222,-3.531123519482674222
0.501000000000000334,-3.462241079379273945
0.502000000000000224,-3.393770632456120317
0.503000000000000336,-3.325727806249064056
0.504000000000000226,-3.258127680583554842
0.505000000000000338,-3.190984793937387654
0.506000000000000227,-3.124313149953453550
0.507000000000000339,-3.058126224092558854
0.508000000000000229,-2.992436970417600595
0.509000000000000341,-2.927257828499609360
0.510000000000000231,-2.862600730437413254
0.511000000000000343,-2.798477107981693912
0.512000000000000233,-2.734897899755589723
0.513000000000000345,-2.671873558563176765
0.514000000000000234,-2.609414058778328549
0.515000000000000346,-2.547528903805555522
0.516000000000000236,-2.486227133605895201
0.517000000000000348,-2.425517332279912175
0.518000000000000238,-2.365407635701124001
0.519000000000000350,-2.305905739192437132
0.520000000000000240,-2.247018905239234421
0.521000000000000352,-2.188753971232334283
0.522000000000000242,-2.131117357234582066
0.523000000000000353,-2.074115073764834172
0.524000000000000243,-2.017752729593530692
0.525000000000000355,-1.962035539544003004
0.526000000000000245,-1.906968332294094237
0.527000000000000357,-1.852555558172546579
0.528000000000000247,-1.798801296945304440
0.529000000000000359,-1.745709265586433023
0.530000000000000249,-1.693282826029195665
0.531000000000000361,-1.641524992892437584
0.532000000000000250,-1.590438441178114726
0.533000000000000362,-1.540025513935493251
0.534000000000000252,-1.490288229888224070
0.535000000000000364,-1.441228291020172581
0.536000000000000254,-1.392847090116601239
0.537000000000000366,-1.345145718256760103
0.538000000000000256,-1.298124972255012555
0.539000000000000368,-1.251785362046776484
0.540000000000000258,-1.206127118016727895
0.541000000000000369,-1.161150198265860523
0.542000000000000259,-1.116854295815173259
0.543000000000000371,-1.073238845742925163
0.544000000000000261,-1.030303032253321538
0.545000000000000373,-0.988045795674159288
0.546000000000000263,-0.946465839381365526
0.547000000000000375,-0.905561636648140600
0.548000000000000265,-0.865331437417252602
0.549000000000000377,-0.825773274994117346
0.550000000000000266,-0.786884972659537163
0.551000000000000378,-0.748664150200165968
0.552000000000000268,-0.711108230355484539
0.553000000000000380,-0.674214445179892152
0.554000000000000270,-0.637979842318785240
0.555000000000000382,-0.602401291197339317
0.556000000000000272,-0.567475489121320509
0.557000000000000384,-0.533198967288634584
0.558000000000000274,-0.499568096711221987
0.559000000000000385,-0.466579094046232157
0.560000000000000275,-0.434228027336153566
0.561000000000000387,-0.402510821657174500
0.562000000000000277,-0.371423264675437959
0.563000000000000389,-0.340961012110794215
0.564000000000000279,-0.311119593107800796
0.565000000000000391,-0.281894415513689045
0.566000000000000281,-0.253280771063281951
0.567000000000000393,-0.225273840470664399
0.568000000000000282,-0.197868698427770717
0.569000000000000394,-0.171060318509756060
0.570000000000000284,-0.144843577987518429
0.571000000000000396,-0.119213262547317456
0.572000000000000286,-0.094164070918006978
0.573000000000000398,-0.069690619405873289
0.574000000000000288,-0.045787446337724046
0.575000000000000400,-0.022449016412459645
0.576000000000000290,0.000330275038370953
0.577000000000000401,0.022556097880539472
0.578000000000000291,0.044234183097073346
0.579000000000000403,0.065370318797608712
0.580000000000000293,0.085970346316492474
0.581000000000000405,0.106040156399059990
0.582000000000000295,0.125585685475255115
0.583000000000000407,0.144612912020047529
0.584000000000000297,0.163127852999740142
0.585000000000000409,0.181136560403447611
0.586000000000000298,0.198645117858940928
0.587000000000000410,0.215659637331974963
0.588000000000000300,0.232186255908260308
0.589000000000000412,0.248231132657242781
0.590000000000000302,0.263800445576686249
0.591000000000000414,0.278900388617161432
0.592000000000000304,0.293537168785578007
0.593000000000000416,0.307717003326702543
0.594000000000000306,0.321446116981677910
0.595000000000000417,0.334730739322662896
0.596000000000000307,0.347577102162470841
0.597000000000000419,0.359991437038246709
0.598000000000000309,0.371979972768131106
0.599000000000000421,0.383548933079945864
0.600000000000000311,0.394704534310730604
0.601000000000000423,0.405452983176222748
0.602000000000000313,0.415800474609082926
0.603000000000000425,0.425753189664981158
0.604000000000000314,0.435317293495233570
0.605000000000000426,0.444498933385205519
0.606000000000000316,0.453304236857167642
0.607000000000000428,0.461739309836678213
0.608000000000000318,0.469810234881347433
0.609000000000000430,0.477523069470973227
0.610000000000000320,0.484883844357885951
0.611000000000000432,0.491898561976535809
0.612000000000000322,0.498573194911186957
0.613000000000000433,0.504913684420652542
0.614000000000000323,0.510925939019067354
0.615000000000000435,0.516615833111557565
0.616000000000000325,0.521989205683834667
0.617000000000000437,0.527051859044623816
0.618000000000000327,0.531809557619857820
0.619000000000000439,0.536268026797692365
0.620000000000000329,0.540432951823224483
0.621000000000000441,0.544309976741902624
0.622000000000000330,0.547904703390697856
0.623000000000000442,0.551222690435902107
0.624000000000000332,0.554269452456686240
0.625000000000000444,0.557050459073302862
0.626000000000000334,0.559571134119064895
0.627000000000000446,0.561836854855054524
0.628000000000000336,0.563852951226638366
0.629000000000000448,0.565624705160810093
0.630000000000000338,0.567157349903455898
0.631000000000000449,0.568456069395549823
0.632000000000000339,0.569525997687461483
0.633000000000000451,0.570372218390329366
0.634000000000000341,0.570999764163735213
0.635000000000000453,0.571413616238661826
0.636000000000000343,0.571618703975005027
0.637000000000000455,0.571619904452621674
0.638000000000000345,0.571422042095156457
0.639000000000000457,0.571029888325792379
0.640000000000000346,0.570448161254043740
0.641000000000000458,0.569681525392846444
0.642000000000000348,0.568734591405065215
0.643000000000000460,0.567611915878662221
0.644000000000000350,0.566318001129760051
0.645000000000000462,0.564857295032750839
0.646000000000000352,0.563234190876795493
0.647000000000000464,0.561453027247879044
0.648000000000000353,0.559518087935714448
0.649000000000000465,0.557433601864788519
0.650000000000000355,0.555203743048815479
0.651000000000000467,0.552832630567906325
0.652000000000000357,0.550324328567749932
0.653000000000000469,0.547682846280155844
0.654000000000000359,0.544912138064267526
0.655000000000000471,0.542016103467828581
0.656000000000000361,0.538998587307795263
0.657000000000000473,0.535863379769754844
0.658000000000000362,0.532614216525434836
0.659000000000000474,0.529254778867795372
0.660000000000000364,0.525788693863015633
0.661000000000000476,0.522219534518859163
0.662000000000000366,0.518550819968830679
0.663000000000000478,0.514786015671510944
0.664000000000000368,0.510928533624625092
0.665000000000000480,0.506981732593182133
