# hydroxyapatite-001-ph10_BGLC-AC
# h[nm],U(h)[kJ/mol]
0.149999999999999994,157.479889667370883899
0.150999999999999995,155.417421824352771864
0.151999999999999996,153.059218092923600807
0.152999999999999997,150.656839329873918132
0.153999999999999998,148.306504991021370188
0.154999999999999999,146.030922181707467189
0.156000000000000000,143.823390015300049072
0.157000000000000001,141.669752281684822037
0.158000000000000002,139.557892149950475869
0.159000000000000002,137.480650441896671055
0.160000000000000003,135.435616876088801064
0.161000000000000004,133.423723061046899829
0.162000000000000005,131.447639731866161128
0.163000000000000006,129.510435902123305141
0.164000000000000007,127.614652821043620179
0.165000000000000008,125.761788077196428048
0.166000000000000009,123.952114876463767246
0.167000000000000010,122.184740378743455835
0.168000000000000010,120.457811435310873094
0.169000000000000011,118.768792004641881022
0.170000000000000012,117.114755866930863704
0.171000000000000013,115.492656723630915394
0.172000000000000014,113.899553377586514102
0.173000000000000015,112.332779801752138837
0.174000000000000016,110.790058610890554291
0.175000000000000017,109.269562196175840540
0.176000000000000018,107.769929143045445130
0.177000000000000018,106.290245108495767568
0.178000000000000019,104.829997606310897140
0.179000000000000020,103.389013571904030186
0.180000000000000021,101.967387495104986783
0.181000000000000022,100.565406576285653273
0.182000000000000023,99.183477961792519295
0.183000000000000024,97.822061771512181849
0.184000000000000025,96.481612420159848398
0.185000000000000026,95.162529694803566827
0.186000000000000026,93.865120199089318476
0.187000000000000027,92.589569107130529346
0.188000000000000028,91.335921673531203169
0.189000000000000029,90.104073600652867526
0.190000000000000030,88.893769147238259620
0.191000000000000031,87.704605750585528767
0.192000000000000032,86.536043905412796562
0.193000000000000033,85.387421076164514488
0.194000000000000034,84.257968498131219803
0.195000000000000034,83.146829831430096647
0.196000000000000035,82.053080758358930780
0.197000000000000036,80.975748749132520743
0.198000000000000037,79.913832356032429516
0.199000000000000038,78.866319526006662954
0.200000000000000039,77.832204542865611074
0.201000000000000040,76.810503319919533283
0.202000000000000041,75.800266860775678879
0.203000000000000042,74.800592789508996816
0.204000000000000042,73.810634921620149385
0.205000000000000043,72.829610904673259597
0.206000000000000044,71.856808003138596064
0.207000000000000045,70.891587136850958473
0.208000000000000046,69.933385307832139688
0.209000000000000047,68.981716567256881945
0.210000000000000048,68.036171684289200812
0.211000000000000049,67.096416682556380806
0.212000000000000050,66.162190409238888833
0.213000000000000050,65.233301297142205044
0.214000000000000051,64.309623472551805889
0.215000000000000052,63.391092351943349570
0.216000000000000053,62.477699859386177650
0.217000000000000054,61.569489384313918379
0.218000000000000055,60.666550586705206172
0.219000000000000056,59.769014144010633061
0.220000000000000057,58.877046521678437330
0.221000000000000058,57.990844837114423171
0.222000000000000058,57.110631875530899038
0.223000000000000059,56.236651305527139755
0.224000000000000060,55.369163132475591738
0.225000000000000061,54.508439418915898500
0.226000000000000062,53.654760293193668019
0.227000000000000063,52.808410260520915358
0.228000000000000064,51.969674824452567918
0.229000000000000065,51.138837421429649055
0.230000000000000066,50.316176666487777425
0.231000000000000066,49.501963904411553585
0.232000000000000067,48.696461057473655387
0.233000000000000068,47.899918758368691840
0.234000000000000069,47.112574754974829716
0.235000000000000070,46.334652572090774925
0.236000000000000071,45.566360414241970034
0.237000000000000072,44.807890292972743396
0.238000000000000073,44.059417361687884807
0.239000000000000073,43.321099441032039579
0.240000000000000074,42.593076717947283782
0.241000000000000075,41.875471601897132246
0.242000000000000076,41.168388722244579014
0.243000000000000077,40.471915051394390161
0.244000000000000078,39.786120139027048026
0.245000000000000079,39.111056443535943572
0.246000000000000080,38.446759747612858860
0.247000000000000081,37.793249645785692792
0.248000000000000081,37.150530092586322439
0.249000000000000082,36.518590000898051073
0.250000000000000111,35.897403880892731820
0.251000000000000112,35.286932510806650498
0.252000000000000113,34.687123631616032071
0.253000000000000114,34.097912658452081303
0.254000000000000115,33.519223402335278195
0.255000000000000115,32.950968796510245795
0.256000000000000116,32.393051622320406580
0.257000000000000117,31.845365230176344795
0.258000000000000118,31.307794251744745395
0.259000000000000119,30.780215300012105928
0.260000000000000120,30.262497654364079125
0.261000000000000121,29.754503928266764490
0.262000000000000122,29.256090717541166413
0.263000000000000123,28.767109227590644593
0.264000000000000123,28.287405878272231519
0.265000000000000124,27.816822885401450094
0.266000000000000125,27.355198818146142514
0.267000000000000126,26.902369131801993518
0.268000000000000127,26.458166675651018096
0.269000000000000128,26.022422175788914700
0.270000000000000129,25.594964692967248965
0.271000000000000130,25.175622055635511032
0.272000000000000131,24.764221268487919048
0.273000000000000131,24.360588896921694158
0.274000000000000132,23.964551427899358771
0.275000000000000133,23.575935607779058500
0.276000000000000134,23.194568757735343212
0.277000000000000135,22.820279067440285559
0.278000000000000136,22.452895867710719102
0.279000000000000137,22.092249882855590215
0.280000000000000138,21.738173463476808678
0.281000000000000139,21.390500800489540723
0.282000000000000139,21.049068121134375531
0.283000000000000140,20.713713867754961484
0.284000000000000141,20.384278860111407994
0.285000000000000142,20.060606441992462123
0.286000000000000143,19.742542612878871466
0.287000000000000144,19.429936145397267211
0.288000000000000145,19.122638689288027791
0.289000000000000146,18.820504862593757878
0.290000000000000147,18.523392330755463320
0.291000000000000147,18.231161874284129709
0.292000000000000148,17.943677445654110159
0.293000000000000149,17.660806216043543060
0.294000000000000150,17.382418612525118107
0.295000000000000151,17.108388346288215587
0.296000000000000152,16.838592432451655156
0.297000000000000153,16.572911202004217301
0.298000000000000154,16.311228306387942411
0.299000000000000155,16.053430715218240721
0.300000000000000155,15.799408707613173064
0.301000000000000156,15.549055857584042073
0.302000000000000157,15.302269013918703422
0.303000000000000158,15.058948274969793601
0.304000000000000159,14.818996958740580538
0.305000000000000160,14.582321568642788279
0.306000000000000161,14.348831755282679623
0.307000000000000162,14.118440274614334484
0.308000000000000163,13.891062942782236078
0.309000000000000163,13.666618587959272091
0.310000000000000164,13.445028999470471476
0.311000000000000165,13.226218874477918774
0.312000000000000166,13.010115762487851399
0.313000000000000167,12.796650007927061310
0.314000000000000168,12.585754691022554397
0.315000000000000169,12.377365567205382391
0.316000000000000170,12.171421005247555769
0.317000000000000171,11.967861924329113776
0.318000000000000171,11.766631730221183361
0.319000000000000172,11.567676250759923562
0.320000000000000173,11.370943670776160417
0.321000000000000174,11.176384466635454373
0.322000000000000175,10.983951340533847585
0.323000000000000176,10.793599154685562524
0.324000000000000177,10.605284865530126837
0.325000000000000178,10.418967458078256527
0.326000000000000179,10.234607880507631705
0.327000000000000179,10.052168979112327207
0.328000000000000180,9.871615433702308096
0.329000000000000181,9.692913693542426046
0.330000000000000182,9.516031913913799656
0.331000000000000183,9.340939893373983338
0.332000000000000184,9.167609011786471029
0.333000000000000185,8.996012169184167462
0.334000000000000186,8.826123725526018760
0.335000000000000187,8.657919441400697025
0.336000000000000187,8.491376419726197611
0.337000000000000188,8.326473048489706485
0.338000000000000189,8.163188944567107086
0.339000000000000190,8.001504898657513465
0.340000000000000191,7.841402821364122921
0.341000000000000192,7.682865690448544171
0.342000000000000193,7.525877499282286109
0.343000000000000194,7.370423206515392955
0.344000000000000195,7.216488686979211309
0.345000000000000195,7.064060683836601129
0.346000000000000196,6.913126761990513458
0.347000000000000197,6.763675262758584772
0.348000000000000198,6.615695259819015739
0.349000000000000199,6.469176516430413137
0.350000000000000200,6.324109443925896024
0.351000000000000201,6.180485061479618736
0.352000000000000202,6.038294957141780550
0.353000000000000203,5.897531250136215597
0.354000000000000203,5.758186554412868752
0.355000000000000204,5.620253943445839617
0.356000000000000205,5.483726916266008722
0.357000000000000206,5.348599364715755478
0.358000000000000207,5.214865541912190317
0.359000000000000208,5.082520031903800195
0.360000000000000209,4.951557720504281335
0.361000000000000210,4.821973767286588775
0.362000000000000210,4.693763578718810336
0.363000000000000211,4.566922782423029403
0.364000000000000212,4.441447202537278649
0.365000000000000213,4.317332836160091780
0.366000000000000214,4.194575830856527077
0.367000000000000215,4.073172463204032923
0.368000000000000216,3.953119118355765238
0.369000000000000217,3.834412270599070638
0.370000000000000218,3.717048464885890358
0.371000000000000218,3.601024299312053589
0.372000000000000219,3.486336408521837793
0.373000000000000220,3.372981448014130912
0.374000000000000221,3.260956079326426504
0.375000000000000222,3.150256956072840175
0.376000000000000223,3.040880710811924903
0.377000000000000224,2.932823942720660604
0.378000000000000225,2.826083206050514551
0.379000000000000226,2.720654999341873825
0.380000000000000226,2.616535755373004868
0.381000000000000227,2.513721831820135755
0.382000000000000228,2.412209502605144884
0.383000000000000229,2.311994949907750563
0.384000000000000230,2.213074256819253627
0.385000000000000231,2.115443400615052205
0.386000000000000232,2.019098246623687309
0.387000000000000233,1.924034542670091996
0.388000000000000234,1.830247914071449600
0.389000000000000234,1.737733859164074079
0.390000000000000235,1.646487745340244668
0.391000000000000236,1.556504805574279615
0.392000000000000237,1.467780135417448450
0.393000000000000238,1.380308690441756969
0.394000000000000239,1.294085284113065892
0.395000000000000240,1.209104586074329024
0.396000000000000241,1.125361120820239424
0.397000000000000242,1.042849266744938275
0.398000000000000242,0.961563255544864548
0.399000000000000243,0.881497171959383152
0.400000000000000244,0.802644953831976871
0.401000000000000245,0.725000392475530275
0.402000000000000246,0.648557133325606605
0.403000000000000247,0.573308676865774802
0.404000000000000248,0.499248379809940357
0.405000000000000249,0.426369456526660084
0.406000000000000250,0.354664980691182463
0.407000000000000250,0.284127887151095382
0.408000000000000251,0.214750973992117788
0.409000000000000252,0.146526904790929530
0.410000000000000253,0.079448211042268152
0.411000000000000254,0.013507294748101039
0.412000000000000255,-0.051303568843003557
0.413000000000000256,-0.114992228357844686
0.414000000000000257,-0.177566653292771770
0.415000000000000258,-0.239034930890947184
0.416000000000000258,-0.299405262912710246
0.417000000000000259,-0.358685962309145068
0.418000000000000260,-0.416885449808141018
0.419000000000000261,-0.474012250422244097
0.420000000000000262,-0.530074989886885506
0.421000000000000263,-0.585082391037581862
0.422000000000000264,-0.639043270133921704
0.423000000000000265,-0.691966533138269280
0.424000000000000266,-0.743861171956425871
0.425000000000000266,-0.794736260647306514
0.426000000000000267,-0.844600951608404982
0.427000000000000268,-0.893464471743423472
0.428000000000000269,-0.941336118618169571
0.429000000000000270,-0.988225256610579805
0.430000000000000271,-1.034141313060319867
0.431000000000000272,-1.079093774423300456
0.432000000000000273,-1.123092182435997621
0.433000000000000274,-1.166146130294323680
0.434000000000000274,-1.208265258851524804
0.435000000000000275,-1.249459252839233425
0.436000000000000276,-1.289737837115721986
0.437000000000000277,-1.329110772945023111
0.438000000000000278,-1.367587854310434725
0.439000000000000279,-1.405178904265708795
0.440000000000000280,-1.441893771326963947
0.441000000000000281,-1.477742325908177889
0.442000000000000282,-1.512734456803011662
0.443000000000000282,-1.546880067715285412
0.444000000000000283,-1.580189073840573943
0.445000000000000284,-1.612671398500883813
0.446000000000000285,-1.644336969834439444
0.447000000000000286,-1.675195717542389051
0.448000000000000287,-1.705257569693913622
0.449000000000000288,-1.734532449591390080
0.450000000000000289,-1.763030272696779033
0.451000000000000290,-1.790760943620492096
0.452000000000000290,-1.817734353173844131
0.453000000000000291,-1.843960375485863779
0.454000000000000292,-1.869448865185423303
0.455000000000000293,-1.894209654649267494
0.456000000000000294,-1.918252551316546928
0.457000000000000295,-1.941587335070347420
0.458000000000000296,-1.964223755686501871
0.459000000000000297,-1.986171530350053782
0.460000000000000298,-2.007440341239441928
0.461000000000000298,-2.028039833178581386
0.462000000000000299,-2.047979611356789409
0.463000000000000300,-2.067269239116465762
0.464000000000000301,-2.085918235808454035
0.465000000000000302,-2.103936074714771287
0.466000000000000303,-2.121332181038454667
0.467000000000000304,-2.138115929960227479
0.468000000000000305,-2.154296644761438895
0.469000000000000306,-2.169883595012934485
0.470000000000000306,-2.184885994829319777
0.471000000000000307,-2.199313001187939598
0.472000000000000308,-2.213173712312102914
0.473000000000000309,-2.226477166117814654
0.474000000000000310,-2.239232338723296412
0.475000000000000311,-2.251448143020638337
0.476000000000000312,-2.263133427308711809
0.477000000000000313,-2.274296973986664305
0.478000000000000314,-2.284947498307007496
0.479000000000000314,-2.295093647187605779
0.480000000000000315,-2.304743998081540290
0.481000000000000316,-2.313907057904057929
0.482000000000000317,-2.322591262015573754
0.483000000000000318,-2.330804973259878121
0.484000000000000319,-2.338556481056533354
0.485000000000000320,-2.345854000546474083
0.486000000000000321,-2.352705671789891095
0.487000000000000322,-2.359119559015351086
0.488000000000000322,-2.365103649919094053
0.489000000000000323,-2.370665855013653012
0.490000000000000324,-2.375814007024608987
0.491000000000000325,-2.380555860334548690
0.492000000000000326,-2.384899090473157290
0.493000000000000327,-2.388851293652470176
0.494000000000000328,-2.392419986346172145
0.495000000000000329,-2.395612604912000343
0.496000000000000330,-2.398436505256122064
0.497000000000000330,-2.400898962538620562
0.498000000000000331,-2.403007170918824542
0.499000000000000332,-2.404768243339728162
0.500000000000000333,-2.406189211350326485
0.501000000000000334,-2.407277024964842305
0.502000000000000335,-2.408038552557981049
0.503000000000000336,-2.408480580795080872
0.504000000000000337,-2.408609814596272880
0.505000000000000338,-2.408432877133607874
0.506000000000000338,-2.407956309860213473
0.507000000000000339,-2.407186572570561012
0.508000000000000340,-2.406130043490778636
0.509000000000000341,-2.404793019398273834
0.510000000000000342,-2.403181715769509896
0.511000000000000343,-2.401302266955235076
0.512000000000000344,-2.399160726382105757
0.513000000000000345,-2.396763066779904694
0.514000000000000346,-2.394115180433497247
0.515000000000000346,-2.391222879458566375
0.516000000000000347,-2.388091896100366540
0.517000000000000348,-2.384727883054661657
0.518000000000000349,-2.381136413809949115
0.519000000000000350,-2.377322983010276225
0.520000000000000351,-2.373293006837726704
0.521000000000000352,-2.369051823413951041
0.522000000000000353,-2.364604693219820142
0.523000000000000353,-2.359956799532571647
0.524000000000000354,-2.355113248879669552
0.525000000000000355,-2.350079071508637707
0.526000000000000356,-2.344859221872183319
0.527000000000000357,-2.339458579127938087
0.528000000000000358,-2.333881947652083788
0.529000000000000359,-2.328134057566284554
0.530000000000000360,-2.322219565277150899
0.531000000000000361,-2.316143054027748782
0.532000000000000361,-2.309909034460422728
0.533000000000000362,-2.303521945190378784
0.534000000000000363,-2.296986153389407814
0.535000000000000364,-2.290305955379225544
0.536000000000000365,-2.283485577233768105
0.537000000000000366,-2.276529175390027859
0.538000000000000367,-2.269440837266721633
0.539000000000000368,-2.262224581890477815
0.540000000000000369,-2.254884360528816689
0.541000000000000369,-2.247424057329628688
0.542000000000000370,-2.239847489966473759
0.543000000000000371,-2.232158410289419415
0.544000000000000372,-2.224360504980807285
0.545000000000000373,-2.216457396215615994
0.546000000000000374,-2.208452642325913651
0.547000000000000375,-2.200349738469005167
0.548000000000000376,-2.192152117298897362
0.549000000000000377,-2.183863149640630663
0.550000000000000377,-2.175486145167169205
0.551000000000000378,-2.167024353078347954
0.552000000000000379,-2.158480962781715196
0.553000000000000380,-2.149859104574711743
0.554000000000000381,-2.141161850327972793
0.555000000000000382,-2.132392214169447797
0.556000000000000383,-2.123553153168874719
0.557000000000000384,-2.114647568022506086
0.558000000000000385,-2.105678303737593904
0.559000000000000385,-2.096648150316486436
0.560000000000000386,-2.087559843440023766
0.561000000000000387,-2.078416065149923941
0.562000000000000388,-2.069219444529933227
0.563000000000000389,-2.059972558385549490
0.564000000000000390,-2.050677931921957686
0.565000000000000391,-2.041338039420069972
0.566000000000000392,-2.031955304910356919
0.567000000000000393,-2.022532102844359692
0.568000000000000393,-2.013070758763548351
0.569000000000000394,-2.003573549965441458
0.570000000000000395,-1.994042706166786916
0.571000000000000396,-1.984480410163524500
0.572000000000000397,-1.974888798487519637
0.573000000000000398,-1.965269962059752684
0.574000000000000399,-1.955625946839914864
0.575000000000000400,-1.945958754472192798
0.576000000000000401,-1.936270342927117083
0.577000000000000401,-1.926562627139402739
0.578000000000000402,-1.916837479641529729
0.579000000000000403,-1.907096731193019368
0.580000000000000404,-1.897342171405340894
0.581000000000000405,-1.887575549362169980
0.582000000000000406,-1.877798574235104212
0.583000000000000407,-1.868012915894541548
0.584000000000000408,-1.858220205515781931
0.585000000000000409,-1.848422036180177752
0.586000000000000409,-1.838619963471245011
0.587000000000000410,-1.828815506065760932
0.588000000000000411,-1.819010146319598231
0.589000000000000412,-1.809205330848441040
0.590000000000000413,-1.799402471103118017
0.591000000000000414,-1.789602943939637480
0.592000000000000415,-1.779808092183825297
0.593000000000000416,-1.770019225190468504
0.594000000000000417,-1.760237619396980424
0.595000000000000417,-1.750464518871591268
0.596000000000000418,-1.740701135855829751
0.597000000000000419,-1.730948651301546848
0.598000000000000420,-1.721208215402170172
0.599000000000000421,-1.711480948118400347
0.600000000000000422,-1.701767939698153542
0.601000000000000423,-1.692070251190811447
0.602000000000000424,-1.682388914955771808
0.603000000000000425,-1.672724935165259552
0.604000000000000425,-1.663079288301357650
0.605000000000000426,-1.653452923647324768
0.606000000000000427,-1.643846763773177511
0.607000000000000428,-1.634261705015414234
0.608000000000000429,-1.624698617951136681
0.609000000000000430,-1.615158347866263000
0.610000000000000431,-1.605641715218116605
0.611000000000000432,-1.596149516092211451
0.612000000000000433,-1.586682522653314109
0.613000000000000433,-1.577241483590827942
0.614000000000000434,-1.567827124558447638
