# hydroxyapatite-001-ph10_EST-JS
# h[nm],U(h)[kJ/mol]
0.149999999999999994,92.527500343839420793
0.150999999999999995,91.992789184856775364
0.151999999999999996,90.853298422322225747
0.152999999999999997,89.553444570015102499
0.153999999999999998,88.272038615491652536
0.154999999999999999,87.057685574838203024
0.156000000000000000,85.903738373611048473
0.157000000000000001,84.787030010029823757
0.158000000000000002,83.685702479157683342
0.159000000000000002,82.585603286099882325
0.160000000000000003,81.480935486476056440
0.161000000000000004,80.372440505477356965
0.162000000000000005,79.264896659974482418
0.163000000000000006,78.164813054742211307
0.164000000000000007,77.078675097647476377
0.165000000000000008,76.011812490455739066
0.166000000000000009,74.967820142429317798
0.167000000000000010,73.948406918053805725
0.168000000000000010,72.953538428343762234
0.169000000000000011,71.981754765887600911
0.170000000000000012,71.030568242608438823
0.171000000000000013,70.096871981652469685
0.172000000000000014,69.177313610403516009
0.173000000000000015,68.268607569139049929
0.174000000000000016,67.367774283133059043
0.175000000000000017,66.472304946677454041
0.176000000000000018,65.580257564774882439
0.177000000000000018,64.690293924260203084
0.178000000000000019,63.801669030936103866
0.179000000000000020,62.914184878775827769
0.180000000000000021,62.028119728662673538
0.181000000000000022,61.144142773924230028
0.182000000000000023,60.263222462966872683
0.183000000000000024,59.386535053556997354
0.184000000000000025,58.515378335817828770
0.185000000000000026,57.651093973496358558
0.186000000000000026,56.795000625506851577
0.187000000000000027,55.948338942057908696
0.188000000000000028,55.112228680961699467
0.189000000000000029,54.287637545718098409
0.190000000000000030,53.475360885506987074
0.191000000000000031,52.676011092323427931
0.192000000000000032,51.890015355208063852
0.193000000000000033,51.117620359845091116
0.194000000000000034,50.358902529848577956
0.195000000000000034,49.613782472736986051
0.196000000000000035,48.882042400872876442
0.197000000000000036,48.163345430554592497
0.198000000000000037,47.457255808931662955
0.199000000000000038,46.763259269060597489
0.200000000000000039,46.080782861134750306
0.201000000000000040,45.409213747605008393
0.202000000000000041,44.747916578113596131
0.203000000000000042,44.096249174788397340
0.204000000000000042,43.453576358455293871
0.205000000000000043,42.819281831504781621
0.206000000000000044,42.192778103887931707
0.207000000000000045,41.573514505838751631
0.208000000000000046,40.960983375535541029
0.209000000000000047,40.354724543302793904
0.210000000000000048,39.754328257476856834
0.211000000000000049,39.159436712086019838
0.212000000000000050,38.569744344355882504
0.213000000000000050,37.984997072001569052
0.214000000000000051,37.404990637462660175
0.215000000000000052,36.829568219715781652
0.216000000000000053,36.258617464986969026
0.217000000000000054,35.692067076381093216
0.218000000000000055,35.129883089834621046
0.219000000000000056,34.572064950454560517
0.220000000000000057,34.018641489703121294
0.221000000000000058,33.469666890406692517
0.222000000000000058,32.925216713503438370
0.223000000000000059,32.385384048027070492
0.224000000000000060,31.850275834215079129
0.225000000000000061,31.320009398940534595
0.226000000000000062,30.794709232963960233
0.227000000000000063,30.274504030815062805
0.228000000000000064,29.759524006445058575
0.229000000000000065,29.249898491114400656
0.230000000000000066,28.745753814260751824
0.231000000000000066,28.247211463270151199
0.232000000000000067,27.754386514093177141
0.233000000000000068,27.267386321433935592
0.234000000000000069,26.786309454725454771
0.235000000000000070,26.311244864215417749
0.236000000000000071,25.842271260151910894
0.237000000000000072,25.379456687207927246
0.238000000000000073,24.922858275852519228
0.239000000000000073,24.472522152302570220
0.240000000000000074,24.028483488912982580
0.241000000000000075,23.590766677335150092
0.242000000000000076,23.159385607443290667
0.243000000000000077,22.734344035853091270
0.244000000000000078,22.315636028800316382
0.245000000000000079,21.903246465172465207
0.246000000000000080,21.497151586568204351
0.247000000000000081,21.097319582368090352
0.248000000000000081,20.703711198918480108
0.249000000000000082,20.316280363038142553
0.250000000000000111,19.934974811139998252
0.251000000000000112,19.559736716307000393
0.252000000000000113,19.190503306661423011
0.253000000000000114,18.827207469314700461
0.254000000000000115,18.469778335074074960
0.255000000000000115,18.118141839910073543
0.256000000000000116,17.772221259953273176
0.257000000000000117,17.431937717488104056
0.258000000000000118,17.097210656048233091
0.259000000000000119,16.767958283290290922
0.260000000000000120,16.444097980834960993
0.261000000000000121,16.125546680717956605
0.262000000000000122,15.812221208490603530
0.263000000000000123,15.504038593354849240
0.264000000000000123,15.200916346012551372
0.265000000000000124,14.902772705158639610
0.266000000000000125,14.609526853754633891
0.267000000000000126,14.321099106387094935
0.268000000000000127,14.037411069148301834
0.269000000000000128,13.758385773577193945
0.270000000000000129,13.483947786270528368
0.271000000000000130,13.214023295820339854
0.272000000000000131,12.948540178757735220
0.273000000000000131,12.687428046186736807
0.274000000000000132,12.430618272778579225
0.275000000000000133,12.178044009768827394
0.276000000000000134,11.929640183558881006
0.277000000000000135,11.685343481472896698
0.278000000000000136,11.445092326161043772
0.279000000000000137,11.208826840074014086
0.280000000000000138,10.976488801362190628
0.281000000000000139,10.748021592477044805
0.282000000000000139,10.523370142674654204
0.283000000000000140,10.302480865541244981
0.284000000000000141,10.085301592580687924
0.285000000000000142,9.871781503823703119
0.286000000000000143,9.661871056339553121
0.287000000000000144,9.455521911453690365
0.288000000000000145,9.252686861399064711
0.289000000000000146,9.053319756056405154
0.290000000000000147,8.857375430368218616
0.291000000000000147,8.664809632944793449
0.292000000000000148,8.475578956316352830
0.293000000000000149,8.289640769225838923
0.294000000000000150,8.106953151299764571
0.295000000000000151,7.927474830381813220
0.296000000000000152,7.751165122764281712
0.297000000000000153,7.577983876506823258
0.298000000000000154,7.407891417989485028
0.299000000000000155,7.240848501808377691
0.300000000000000155,7.076816264086770225
0.301000000000000156,6.915756179242341872
0.302000000000000157,6.757630020222125999
0.303000000000000158,6.602399822190720968
0.304000000000000159,6.450027849634165200
0.305000000000000160,6.300476566821303415
0.306000000000000161,6.153708611546582219
0.307000000000000162,6.009686772062582172
0.308000000000000163,5.868373967097388899
0.309000000000000163,5.729733228840618864
0.310000000000000164,5.593727688772604623
0.311000000000000165,5.460320566203780146
0.312000000000000166,5.329475159385451910
0.313000000000000167,5.201154839048755640
0.314000000000000168,5.075323044225656943
0.315000000000000169,4.951943280204089248
0.316000000000000170,4.830979118468716749
0.317000000000000171,4.712394198479158192
0.318000000000000171,4.596152231138932898
0.319000000000000172,4.482217003810234246
0.320000000000000173,4.370552386732604155
0.321000000000000174,4.261122340706920752
0.322000000000000175,4.153890925909878185
0.323000000000000176,4.048822311708685895
0.324000000000000177,3.945880787350182661
0.325000000000000178,3.845030773403816049
0.326000000000000179,3.746236833842923719
0.327000000000000179,3.649463688654416949
0.328000000000000180,3.554676226872382383
0.329000000000000181,3.461839519936793064
0.330000000000000182,3.370918835284290260
0.331000000000000183,3.281879650083550537
0.332000000000000184,3.194687665033571822
0.333000000000000185,3.109308818148769582
0.334000000000000186,3.025709298460256047
0.335000000000000187,2.943855559568199887
0.336000000000000187,2.863714332985341393
0.337000000000000188,2.785252641217103253
0.338000000000000189,2.708437810528478984
0.339000000000000190,2.633237483352853125
0.340000000000000191,2.559619630302658155
0.341000000000000192,2.487552561746003921
0.342000000000000193,2.417004938917910906
0.343000000000000194,2.347945784538660430
0.344000000000000195,2.280344492915932442
0.345000000000000195,2.214170839510687383
0.346000000000000196,2.149394989950645929
0.347000000000000197,2.085987508478172270
0.348000000000000198,2.023919365822642646
0.349000000000000199,1.963161946490179943
0.350000000000000200,1.903687055466351863
0.351000000000000201,1.845466924329943081
0.352000000000000202,1.788474216778255466
0.353000000000000203,1.732682033566493418
0.354000000000000203,1.678063916865786043
0.355000000000000204,1.624593854046276986
0.356000000000000205,1.572246280893288883
0.357000000000000206,1.520996084266000414
0.358000000000000207,1.470818604209673808
0.359000000000000208,1.421689635533429863
0.360000000000000209,1.373585428866716640
0.361000000000000210,1.326482691208720199
0.362000000000000210,1.280358585985531761
0.363000000000000211,1.235190732630888188
0.364000000000000212,1.190957205706656419
0.365000000000000213,1.147636533579955209
0.366000000000000214,1.105207696674070927
0.367000000000000215,1.063650125310775962
0.368000000000000216,1.022943697161736720
0.369000000000000217,0.983068734327092963
0.370000000000000218,0.944006000059131489
0.371000000000000218,0.905736695149268356
0.372000000000000219,0.868242453996266983
0.373000000000000220,0.831505340373708157
0.374000000000000221,0.795507842914514929
0.375000000000000222,0.760232870330237231
0.376000000000000223,0.725663746382343988
0.377000000000000224,0.691784204622799437
0.378000000000000225,0.658578382920703587
0.379000000000000226,0.626030817791491723
0.380000000000000226,0.594126438544807511
0.381000000000000227,0.562850561266869165
0.382000000000000228,0.532188882652596118
0.383000000000000229,0.502127473702458693
0.384000000000000230,0.472652773298550155
0.385000000000000231,0.443751581673834106
0.386000000000000232,0.415411053788241891
0.387000000000000233,0.387618692624590699
0.388000000000000234,0.360362342417065995
0.389000000000000234,0.333630181824304373
0.390000000000000235,0.307410717058790528
0.391000000000000236,0.281692774983706928
0.392000000000000237,0.256465496187956332
0.393000000000000238,0.231718328049515643
0.394000000000000239,0.207441017796917204
0.395000000000000240,0.183623605578046523
0.396000000000000241,0.160256417545099700
0.397000000000000242,0.137330058964014456
0.398000000000000242,0.114835407356235611
0.399000000000000243,0.092763605680300426
0.400000000000000244,0.071106055560197709
0.401000000000000245,0.049854410567067783
0.402000000000000246,0.029000569560500632
0.403000000000000247,0.008536670095041554
0.404000000000000248,-0.011544918102605006
0.405000000000000249,-0.031251599580776238
0.406000000000000250,-0.050590559529790503
0.407000000000000250,-0.069568770064422442
0.408000000000000251,-0.088192996417985864
0.409000000000000252,-0.106469803044458550
0.410000000000000253,-0.124405559625433648
0.411000000000000254,-0.142006446978934220
0.412000000000000255,-0.159278462867470993
0.413000000000000256,-0.176227427703040285
0.414000000000000257,-0.192858990146916265
0.415000000000000258,-0.209178632602547460
0.416000000000000258,-0.225191676599894530
0.417000000000000259,-0.240903288070003579
0.418000000000000260,-0.256318482508668066
0.419000000000000261,-0.271442130028386464
0.420000000000000262,-0.286278960297902896
0.421000000000000263,-0.300833567368969879
0.422000000000000264,-0.315110414389967508
0.423000000000000265,-0.329113838206387677
0.424000000000000266,-0.342848053848251122
0.425000000000000266,-0.356317158904635445
0.426000000000000267,-0.369525137785809199
0.427000000000000268,-0.382475865873438292
0.428000000000000269,-0.395173113559529221
0.429000000000000270,-0.407620550174950247
0.430000000000000271,-0.419821747808356016
0.431000000000000272,-0.431780185016607532
0.432000000000000273,-0.443499250427709213
0.433000000000000274,-0.454982246237536025
0.434000000000000274,-0.466232391601593132
0.435000000000000275,-0.477252825923165980
0.436000000000000276,-0.488046612039327588
0.437000000000000277,-0.498616739306255052
0.438000000000000278,-0.508966126585438716
0.439000000000000279,-0.519097625132395102
0.440000000000000280,-0.529014021389516365
0.441000000000000281,-0.538718039684753736
0.442000000000000282,-0.548212344837924470
0.443000000000000282,-0.557499544676309688
0.444000000000000283,-0.566582192461439482
0.445000000000000284,-0.575462789228816218
0.446000000000000285,-0.584143786042416790
0.447000000000000286,-0.592627586165891729
0.448000000000000287,-0.600916547152221647
0.449000000000000288,-0.609012982853800566
0.450000000000000289,-0.616919165354757548
0.451000000000000290,-0.624637326827414574
0.452000000000000290,-0.632169661314798570
0.453000000000000291,-0.639518326441000595
0.454000000000000292,-0.646685445051327634
0.455000000000000293,-0.653673106784066205
0.456000000000000294,-0.660483369575699641
0.457000000000000295,-0.667118261101463328
0.458000000000000296,-0.673579780152980923
0.459000000000000297,-0.679869897954860192
0.460000000000000298,-0.685990559421980839
0.461000000000000298,-0.691943684359268785
0.462000000000000299,-0.697731168605693286
0.463000000000000300,-0.703354885124181317
0.464000000000000301,-0.708816685039202588
0.465000000000000302,-0.714118398623642570
0.466000000000000303,-0.719261836236625207
0.467000000000000304,-0.724248789213939981
0.468000000000000305,-0.729081030712598777
0.469000000000000306,-0.733760316511142818
0.470000000000000306,-0.738288385767227440
0.471000000000000307,-0.742666961733943642
0.472000000000000308,-0.746897752436411766
0.473000000000000309,-0.750982451310066468
0.474000000000000310,-0.754922737802035226
0.475000000000000311,-0.758720277937019905
0.476000000000000312,-0.762376724849023080
0.477000000000000313,-0.765893719280249519
0.478000000000000314,-0.769272890048448010
0.479000000000000314,-0.772515854484009168
0.480000000000000315,-0.775624218837978274
0.481000000000000316,-0.778599578662257041
0.482000000000000317,-0.781443519163095623
0.483000000000000318,-0.784157615529059271
0.484000000000000319,-0.786743433234561751
0.485000000000000320,-0.789202528320023911
0.486000000000000321,-0.791536447649747954
0.487000000000000322,-0.793746729148495644
0.488000000000000322,-0.795834902017725776
0.489000000000000323,-0.797802486932549515
0.490000000000000324,-0.799650996220227506
0.491000000000000325,-0.801381934021176301
0.492000000000000326,-0.802996796433326332
0.493000000000000327,-0.804497071640711270
0.494000000000000328,-0.805884240027069376
0.495000000000000329,-0.807159774275293507
0.496000000000000330,-0.808325139453442754
0.497000000000000330,-0.809381793088146173
0.498000000000000331,-0.810331185225982353
0.499000000000000332,-0.811174758483675595
0.500000000000000333,-0.811913948087684134
0.501000000000000334,-0.812550181903812785
0.502000000000000335,-0.813084880457558890
0.503000000000000336,-0.813519456945694608
0.504000000000000337,-0.813855317239733589
0.505000000000000338,-0.814093859881780291
0.506000000000000338,-0.814236476073343818
0.507000000000000339,-0.814284549657597778
0.508000000000000340,-0.814239457095571995
0.509000000000000341,-0.814102567436806424
0.510000000000000342,-0.813875242284829548
0.511000000000000343,-0.813558835757989485
0.512000000000000344,-0.813154694445975879
0.513000000000000345,-0.812664157362480433
0.514000000000000346,-0.812088555894383113
0.515000000000000346,-0.811429213747773326
0.516000000000000347,-0.810687446891212971
0.517000000000000348,-0.809864563496556444
0.518000000000000349,-0.808961863877622589
0.519000000000000350,-0.807980640427064634
0.520000000000000351,-0.806922177551663955
0.521000000000000352,-0.805787751606409031
0.522000000000000353,-0.804578630827519681
0.523000000000000353,-0.803296075264747111
0.524000000000000354,-0.801941336713142716
0.525000000000000355,-0.800515658644524231
0.526000000000000356,-0.799020276138839969
0.527000000000000357,-0.797456415815675723
0.528000000000000358,-0.795825295766013241
0.529000000000000359,-0.794128125484508618
0.530000000000000360,-0.792366105802365106
0.531000000000000361,-0.790540428821035812
0.532000000000000361,-0.788652277846851879
0.533000000000000362,-0.786702827326742238
0.534000000000000363,-0.784693242785141631
0.535000000000000364,-0.782624680762261438
0.536000000000000365,-0.780498288753760150
0.537000000000000366,-0.778315205152000034
0.538000000000000367,-0.776076559188889292
0.539000000000000368,-0.773783470880517799
0.540000000000000369,-0.771437050973538652
0.541000000000000369,-0.769038400893489849
0.542000000000000370,-0.766588612695015215
0.543000000000000371,-0.764088769014135916
0.544000000000000372,-0.761539943022575549
0.545000000000000373,-0.758943198384211759
0.546000000000000374,-0.756299589213679235
0.547000000000000375,-0.753610160037183618
0.548000000000000376,-0.750875945755555607
0.549000000000000377,-0.748097971609560708
0.550000000000000377,-0.745277253147514140
0.551000000000000378,-0.742414796195185023
0.552000000000000379,-0.739511596828055451
0.553000000000000380,-0.736568641345902053
0.554000000000000381,-0.733586906249715676
0.555000000000000382,-0.730567358221017926
0.556000000000000383,-0.727510954103468443
0.557000000000000384,-0.724418640886895338
0.558000000000000385,-0.721291355693612579
0.559000000000000385,-0.718130025767117597
0.560000000000000386,-0.714935568463115567
0.561000000000000387,-0.711708891242844421
0.562000000000000388,-0.708450891668713112
0.563000000000000389,-0.705162457402235709
0.564000000000000390,-0.701844466204216366
0.565000000000000391,-0.698497785937184035
0.566000000000000392,-0.695123274570044192
0.567000000000000393,-0.691721780184942681
0.568000000000000393,-0.688294140986276282
0.569000000000000394,-0.684841185311849676
0.570000000000000395,-0.681363731646161042
0.571000000000000396,-0.677862588635732344
0.572000000000000397,-0.674338555106527182
0.573000000000000398,-0.670792420083342833
0.574000000000000399,-0.667224962811219013
0.575000000000000400,-0.663636952778757783
0.576000000000000401,-0.660029149743358579
0.577000000000000401,-0.656402303758354178
0.578000000000000402,-0.652757155201934891
0.579000000000000403,-0.649094434807883869
0.580000000000000404,-0.645414863698093866
0.581000000000000405,-0.641719153416752564
0.582000000000000406,-0.638008005966250513
0.583000000000000407,-0.634282113844692352
0.584000000000000408,-0.630542160085022729
0.585000000000000409,-0.626788818295706207
0.586000000000000409,-0.623022752702907079
0.587000000000000410,-0.619244618194176866
0.588000000000000411,-0.615455060363527040
0.589000000000000412,-0.611654715557951034
0.590000000000000413,-0.607844210925247763
0.591000000000000414,-0.604024164463182855
0.592000000000000415,-0.600195185069926085
0.593000000000000416,-0.596357872595694838
0.594000000000000417,-0.592512817895592292
0.595000000000000417,-0.588660602883637418
0.596000000000000418,-0.584801800587825604
0.597000000000000419,-0.580936975206339468
0.598000000000000420,-0.577066682164731559
0.599000000000000421,-0.573191468174133689
0.600000000000000422,-0.569311871290404836
0.601000000000000423,-0.565428420974186552
0.602000000000000424,-0.561541638151855760
0.603000000000000425,-0.557652035277304448
0.604000000000000425,-0.553760116394514945
0.605000000000000426,-0.549866377200909029
0.606000000000000427,-0.545971305111448091
0.607000000000000428,-0.542075379323360917
0.608000000000000429,-0.538179070881629862
0.609000000000000430,-0.534282842744993269
0.610000000000000431,-0.530387149852630246
0.611000000000000432,-0.526492439191345918
0.612000000000000433,-0.522599149863290258
0.613000000000000433,-0.518707713154187844
0.614000000000000434,-0.514818552602011259
0.615000000000000435,-0.510932084066077374
