# hydroxyapatite-001-ph10_PROSCA-AC
# h[nm],U(h)[kJ/mol]
0.149999999999999994,115.240138792853400673
0.150999999999999995,114.393869986293950092
0.151999999999999996,112.812156883251347494
0.152999999999999997,111.043611757562160847
0.153999999999999998,109.313483440925352852
0.154999999999999999,107.686837032414956639
0.156000000000000000,106.159106700974945170
0.157000000000000001,104.703206604708498162
0.158000000000000002,103.291585445917490915
0.159000000000000002,101.904551423648257469
0.160000000000000003,100.531646929376606181
0.161000000000000004,99.169974475340126219
0.162000000000000005,97.821594585252356069
0.163000000000000006,96.491046470578737626
0.164000000000000007,95.183425073673532779
0.165000000000000008,93.903112791374127255
0.166000000000000009,92.653099553967862789
0.167000000000000010,91.434759481966878525
0.168000000000000010,90.247941187343855063
0.169000000000000011,89.091244488091518861
0.170000000000000012,87.962382719991325075
0.171000000000000013,86.858557980160085776
0.172000000000000014,85.776801981534262609
0.173000000000000015,84.714255844830859132
0.174000000000000016,83.668377718957287925
0.175000000000000017,82.637078003694085737
0.176000000000000018,81.618788901411392089
0.177000000000000018,80.612478895460483841
0.178000000000000019,79.617624347815407759
0.179000000000000020,78.634150425855040112
0.180000000000000021,77.662352575328796433
0.181000000000000022,76.702808191137620497
0.182000000000000023,75.756286320785903854
0.183000000000000024,74.823661390608663169
0.184000000000000025,73.905835217310141161
0.185000000000000026,73.003670042161772358
0.186000000000000026,72.117934043513812981
0.187000000000000027,71.249259755217778434
0.188000000000000028,70.398115033749519398
0.189000000000000029,69.564785652313815945
0.190000000000000030,68.749368226410481952
0.191000000000000031,67.951771960201952538
0.192000000000000032,67.171727614910125226
0.193000000000000033,66.408802109955260562
0.194000000000000034,65.662417248464066688
0.195000000000000034,64.931871188677192208
0.196000000000000035,64.216361443065494541
0.197000000000000036,63.515008362672176645
0.198000000000000037,62.826878243735770013
0.199000000000000038,62.151005368366099901
0.200000000000000039,61.486412454811123496
0.201000000000000040,60.832129141622239388
0.202000000000000041,60.187208261447210589
0.203000000000000042,59.550739773221792461
0.204000000000000042,58.921862316165515949
0.205000000000000043,58.299772425926320807
0.206000000000000044,57.683731513673308200
0.207000000000000045,57.073070754448735897
0.208000000000000046,56.467194063374236634
0.209000000000000047,55.865579359145030480
0.210000000000000048,55.267778325400286121
0.211000000000000049,54.673414883714713142
0.212000000000000050,54.082182588676552371
0.213000000000000050,53.493841147219242771
0.214000000000000051,52.908212252318797653
0.215000000000000052,52.325174906448253864
0.216000000000000053,51.744660393736410242
0.217000000000000054,51.166647042387864985
0.218000000000000055,50.591154901232350483
0.219000000000000056,50.018240436794883408
0.220000000000000057,49.447991340413977923
0.221000000000000058,48.880521518984480167
0.222000000000000058,48.315966328073891134
0.223000000000000059,47.754478092600507466
0.224000000000000060,47.196221948043884709
0.225000000000000061,46.641372024315117528
0.226000000000000062,46.090107984934874708
0.227000000000000063,45.542611926010152956
0.228000000000000064,44.999065632604128950
0.229000000000000065,44.459648184373065760
0.230000000000000066,43.924533897712684904
0.231000000000000066,43.393890588011203135
0.232000000000000067,42.867878132849511985
0.233000000000000068,42.346647315016909374
0.234000000000000069,41.830338922927232659
0.235000000000000070,41.319083085328223603
0.236000000000000071,40.812998817010146979
0.237000000000000072,40.312193752451854323
0.238000000000000073,39.816764044921988841
0.239000000000000073,39.326794409407561659
0.240000000000000074,38.842358288811048794
0.241000000000000075,38.363518124088230365
0.242000000000000076,37.890325710339915588
0.243000000000000077,37.422822622285174532
0.244000000000000078,36.961040693992082140
0.245000000000000079,36.505002539198038392
0.246000000000000080,36.054722099988147477
0.247000000000000081,35.610205212998721436
0.248000000000000081,35.171450183656965294
0.249000000000000082,34.738448360245214985
0.250000000000000111,34.311184700779826073
0.251000000000000112,33.889638326814825575
0.252000000000000113,33.473783059313959143
0.253000000000000114,33.063587932681777204
0.254000000000000115,32.659017683902675344
0.255000000000000115,32.260033214509235222
0.256000000000000116,31.866592023788815169
0.257000000000000117,31.478648612245081040
0.258000000000000118,31.096154854860753147
0.259000000000000119,30.719060344166301491
0.260000000000000120,30.347312703508833920
0.261000000000000121,29.980857871243216550
0.262000000000000122,29.619640356837116713
0.263000000000000123,29.263603470099269543
0.264000000000000123,28.912689524909968242
0.265000000000000124,28.566840018960299119
0.266000000000000125,28.225995791096266885
0.267000000000000126,27.890097157920045845
0.268000000000000127,27.559084031327522268
0.269000000000000128,27.232896018663609539
0.270000000000000129,26.911472507156805278
0.271000000000000130,26.594752734256928761
0.272000000000000131,26.282675845447585061
0.273000000000000131,25.975180941039706539
0.274000000000000132,25.672207113378487264
0.275000000000000133,25.373693475814320664
0.276000000000000134,25.079579184701128014
0.277000000000000135,24.789803455595716741
0.278000000000000136,24.504305574738769025
0.279000000000000137,24.223024906805857626
0.280000000000000138,23.945900899824579255
0.281000000000000139,23.672873088063084879
0.282000000000000139,23.403881093607758146
0.283000000000000140,23.138864627262368145
0.284000000000000141,22.877763489320116719
0.285000000000000142,22.620517570682757480
0.286000000000000143,22.367066854728118841
0.287000000000000144,22.117351420259684147
0.288000000000000145,21.871311445808029106
0.289000000000000146,21.628887215496156671
0.290000000000000147,21.390019126626519608
0.291000000000000147,21.154647699099317748
0.292000000000000148,20.922713586727176960
0.293000000000000149,20.694157590472077146
0.294000000000000150,20.468920673595214055
0.295000000000000151,20.246943978679620812
0.296000000000000152,20.028168846458619612
0.297000000000000153,19.812536836360045811
0.298000000000000154,19.599989748656842181
0.299000000000000155,19.390469648098310529
0.300000000000000155,19.183918888883518150
0.301000000000000156,18.980280140827996860
0.302000000000000157,18.779496416567333483
0.303000000000000158,18.581511099636198736
0.304000000000000159,18.386267973258235031
0.305000000000000160,18.193711249681239650
0.306000000000000161,18.003785599892772495
0.307000000000000162,17.816436183553424399
0.308000000000000163,17.631608678988726524
0.309000000000000163,17.449249313085331892
0.310000000000000164,17.269304890942830610
0.311000000000000165,17.091722825139118669
0.312000000000000166,16.916451164474729296
0.313000000000000167,16.743438622069174215
0.314000000000000168,16.572634602690758499
0.315000000000000169,16.403989229209976486
0.316000000000000170,16.237453368075424720
0.317000000000000171,16.072978653720173980
0.318000000000000171,15.910517511815692515
0.319000000000000172,15.750023181299216191
0.320000000000000173,15.591449735109623731
0.321000000000000174,15.434752099575646866
0.322000000000000175,15.279886072408535469
0.323000000000000176,15.126808339260183089
0.324000000000000177,14.975476488815138154
0.325000000000000178,14.825849026393299823
0.326000000000000179,14.677885386046956029
0.327000000000000179,14.531545941143360068
0.328000000000000180,14.386792013430275361
0.329000000000000181,14.243585880588568671
0.330000000000000182,14.101890782281651937
0.331000000000000183,13.961670924716980124
0.332000000000000184,13.822891483740184171
0.333000000000000185,13.685518606486841264
0.334000000000000186,13.549519411621329112
0.335000000000000187,13.414861988196127740
0.336000000000000187,13.281515393168328742
0.337000000000000188,13.149449647613533187
0.338000000000000189,13.018635731679864875
0.339000000000000190,12.889045578327380071
0.340000000000000191,12.760652065900353946
0.341000000000000192,12.633429009581696789
0.342000000000000193,12.507351151780081722
0.343000000000000194,12.382394151501824098
0.344000000000000195,12.258534572760424908
0.345000000000000195,12.135749872077187916
0.346000000000000196,12.014018385127011257
0.347000000000000197,11.893319312583500391
0.348000000000000198,11.773632705217560002
0.349000000000000199,11.654939448303490934
0.350000000000000200,11.537221245386167112
0.351000000000000201,11.420460601462284700
0.352000000000000202,11.304640805628103806
0.353000000000000203,11.189745913245079834
0.354000000000000203,11.075760727673959138
0.355000000000000204,10.962670781626705718
0.356000000000000205,10.850462318184572297
0.357000000000000206,10.739122271529131680
0.358000000000000207,10.628638247432018460
0.359000000000000208,10.518998503547472012
0.360000000000000209,10.410191929550304479
0.361000000000000210,10.302208027160626003
0.362000000000000210,10.195036890094673510
0.363000000000000211,10.088669183979931177
0.364000000000000212,9.983096126270758930
0.365000000000000213,9.878309466199279854
0.366000000000000214,9.774301464794600491
0.367000000000000215,9.671064875001746941
0.368000000000000216,9.568592921930047623
0.369000000000000217,9.466879283259130418
0.370000000000000218,9.365918069828939707
0.371000000000000218,9.265703806438743584
0.372000000000000219,9.166231412878321549
0.373000000000000220,9.067496185213062887
0.374000000000000221,8.969493777343227947
0.375000000000000222,8.872220182856024095
0.376000000000000223,8.775671717187663035
0.377000000000000224,8.679845000111262365
0.378000000000000225,8.584736938564928366
0.379000000000000226,8.490344709833168579
0.380000000000000226,8.396665745093184086
0.381000000000000227,8.303697713336735120
0.382000000000000228,8.211438505676678545
0.383000000000000229,8.119886220046295122
0.384000000000000230,8.029039146298412533
0.385000000000000231,7.938895751710051130
0.386000000000000232,7.849454666897568877
0.387000000000000233,7.760714672145994086
0.388000000000000234,7.672674684155539993
0.389000000000000234,7.585333743207175239
0.390000000000000235,7.498691000748441304
0.391000000000000236,7.412745707399798434
0.392000000000000237,7.327497201381000025
0.393000000000000238,7.242944897356366596
0.394000000000000239,7.159088275697025772
0.395000000000000240,7.075926872157632275
0.396000000000000241,6.993460267964396238
0.397000000000000242,6.911688080310812943
0.398000000000000242,6.830609953256765898
0.399000000000000243,6.750225549026441563
0.400000000000000244,6.670534539699744414
0.401000000000000245,6.591536599291745624
0.402000000000000246,6.513231396214233193
0.403000000000000247,6.435618586112913597
0.404000000000000248,6.358697805073804332
0.405000000000000249,6.282468663191773217
0.406000000000000250,6.206930738494174093
0.407000000000000250,6.132083571212044504
0.408000000000000251,6.057926658391325603
0.409000000000000252,5.984459448836334516
0.410000000000000253,5.911681338377464456
0.411000000000000254,5.839591665455107439
0.412000000000000255,5.768189707011595502
0.413000000000000256,5.697474674682831974
0.414000000000000257,5.627445711281372276
0.415000000000000258,5.558101887562428622
0.416000000000000258,5.489442199264521705
0.417000000000000259,5.421465564416179106
0.418000000000000260,5.354170820900412409
0.419000000000000261,5.287556724268368313
0.420000000000000262,5.221621945793953223
0.421000000000000263,5.156365070760884350
0.422000000000000264,5.091784596974067156
0.423000000000000265,5.027878933486905844
0.424000000000000266,4.964646399536509769
0.425000000000000266,4.902085223678691150
0.426000000000000267,4.840193543114767571
0.427000000000000268,4.778969403202371957
0.428000000000000269,4.718410757142436296
0.429000000000000270,4.658515465834827118
0.430000000000000271,4.599281297895009502
0.431000000000000272,4.540705929824460085
0.432000000000000273,4.482786946327562916
0.433000000000000274,4.425521840767887127
0.434000000000000274,4.368908015756877816
0.435000000000000275,4.312942783868231267
0.436000000000000276,4.257623368471227465
0.437000000000000277,4.202946904676551299
0.438000000000000278,4.148910440388284826
0.439000000000000279,4.095510937455870248
0.440000000000000280,4.042745272920012845
0.441000000000000281,3.990610240346703641
0.442000000000000282,3.939102551243590433
0.443000000000000282,3.888218836553262836
0.444000000000000283,3.837955648217949545
0.445000000000000284,3.788309460810540319
0.446000000000000285,3.739276673226774594
0.447000000000000286,3.690853610433751264
0.448000000000000287,3.643036525270020753
0.449000000000000288,3.595821600292674169
0.450000000000000289,3.549204949666994402
0.451000000000000290,3.503182621094444560
0.452000000000000290,3.457750597774792656
0.453000000000000291,3.412904800398525396
0.454000000000000292,3.368641089165633762
0.455000000000000293,3.324955265827141737
0.456000000000000294,3.281843075745884075
0.457000000000000295,3.239300209973070110
0.458000000000000296,3.197322307337478353
0.459000000000000297,3.155904956544126172
0.460000000000000298,3.115043698279431617
0.461000000000000298,3.074734027320077612
0.462000000000000299,3.034971394642795861
0.463000000000000300,2.995751209532568460
0.464000000000000301,2.957068841686679939
0.465000000000000302,2.918919623312389078
0.466000000000000303,2.881298851215906787
0.467000000000000304,2.844201788880573734
0.468000000000000305,2.807623668532320149
0.469000000000000306,2.771559693190410290
0.470000000000000306,2.736005038701717407
0.471000000000000307,2.700954855756896755
0.472000000000000308,2.666404271886801514
0.473000000000000309,2.632348393437653478
0.474000000000000310,2.598782307523653579
0.475000000000000311,2.565701083955592487
0.476000000000000312,2.533099777144417253
0.477000000000000313,2.500973427978405272
0.478000000000000314,2.469317065673120482
0.479000000000000314,2.438125709592999790
0.480000000000000315,2.407394371043785064
0.481000000000000316,2.377118055034922239
0.482000000000000317,2.347291762011217031
0.483000000000000318,2.317910489553029141
0.484000000000000319,2.288969234044411660
0.485000000000000320,2.260462992308669872
0.486000000000000321,2.232386763210778113
0.487000000000000322,2.204735549226290114
0.488000000000000322,2.177504357976363103
0.489000000000000323,2.150688203728525760
0.490000000000000324,2.124282108862970198
0.491000000000000325,2.098281105304136585
0.492000000000000326,2.072680235917407465
0.493000000000000327,2.047474555870791413
0.494000000000000328,2.022659133961525857
0.495000000000000329,1.998229053907525810
0.496000000000000330,1.974179415603739329
0.497000000000000330,1.950505336343320462
0.498000000000000331,1.927201952003883223
0.499000000000000332,1.904264418198733377
0.500000000000000333,1.881687911393348900
0.501000000000000334,1.859467629987257009
0.502000000000000335,1.837598795361435222
0.503000000000000336,1.816076652891563725
0.504000000000000337,1.794896472927262732
0.505000000000000338,1.774053551737692747
0.506000000000000338,1.753543212423740671
0.507000000000000339,1.733360805797117932
0.508000000000000340,1.713501711226761204
0.509000000000000341,1.693961337452794425
0.510000000000000342,1.674735123368525702
0.511000000000000343,1.655818538770769566
0.512000000000000344,1.637207085078982605
0.513000000000000345,1.618896296023580206
0.514000000000000346,1.600881738303842727
0.515000000000000346,1.583159012215920036
0.516000000000000347,1.565723752251327650
0.517000000000000348,1.548571627666407879
0.518000000000000349,1.531698343023233155
0.519000000000000350,1.515099638702415152
0.520000000000000351,1.498771291388343974
0.521000000000000352,1.482709114527252403
0.522000000000000353,1.466908958758735837
0.523000000000000353,1.451366712321086938
0.524000000000000354,1.436078301431054971
0.525000000000000355,1.421039690638476127
0.526000000000000356,1.406246883156309968
0.527000000000000357,1.391695921166584693
0.528000000000000358,1.377382886102756832
0.529000000000000359,1.363303898908987843
0.530000000000000360,1.349455120276919606
0.531000000000000361,1.335832750860335594
0.532000000000000361,1.322433031468340570
0.533000000000000362,1.309252243237491120
0.534000000000000363,1.296286707783435688
0.535000000000000364,1.283532787332506198
0.536000000000000365,1.270986884833851471
0.537000000000000366,1.258645444052516771
0.538000000000000367,1.246504949644068549
0.539000000000000368,1.234561927211140997
0.540000000000000369,1.222812943342517444
0.541000000000000369,1.211254605635101900
0.542000000000000370,1.199883562699410877
0.543000000000000371,1.188696504148906374
0.544000000000000372,1.177690160573758416
0.545000000000000373,1.166861303499435509
0.546000000000000374,1.156206745330616625
0.547000000000000375,1.145723339280871445
0.548000000000000376,1.135407979288539870
0.549000000000000377,1.125257599919293972
0.550000000000000377,1.115269176255750949
0.551000000000000378,1.105439723774667371
0.552000000000000379,1.095766298212026202
0.553000000000000380,1.086245995416523780
0.554000000000000381,1.076875951191839098
0.555000000000000382,1.067653341128043110
0.556000000000000383,1.058575380422646983
0.557000000000000384,1.049639323691561321
0.558000000000000385,1.040842464770467046
0.559000000000000385,1.032182136506885284
0.560000000000000386,1.023655710543353248
0.561000000000000387,1.015260597092075390
0.562000000000000388,1.006994244701423735
0.563000000000000389,0.998854140014555525
0.564000000000000390,0.990837807520605240
0.565000000000000391,0.982942809298702813
0.566000000000000392,0.975166744755192161
0.567000000000000393,0.967507250354324833
0.568000000000000393,0.959961999342817895
0.569000000000000394,0.952528701468517425
0.570000000000000395,0.945205102693483901
0.571000000000000396,0.937988984901846456
0.572000000000000397,0.930878165602619267
0.573000000000000398,0.923870497627861553
0.574000000000000399,0.916963868826376705
0.575000000000000400,0.910156201753274052
0.576000000000000401,0.903445453355637085
0.577000000000000401,0.896829614654510388
0.578000000000000402,0.890306710423540038
0.579000000000000403,0.883874798864457079
0.580000000000000404,0.877531971279601364
0.581000000000000405,0.871276351741831379
0.582000000000000406,0.865106096761911969
0.583000000000000407,0.859019394953704385
0.584000000000000408,0.853014466697301854
0.585000000000000409,0.847089563800342504
0.586000000000000409,0.841242969157727338
0.587000000000000410,0.835472996409854951
0.588000000000000411,0.829777989599686294
0.589000000000000412,0.824156322828678123
0.590000000000000413,0.818606399911902316
0.591000000000000414,0.813126654032422458
0.592000000000000415,0.807715547395133293
0.593000000000000416,0.802371570880240581
0.594000000000000417,0.797093243696514686
0.595000000000000417,0.791879113034448578
0.596000000000000418,0.786727753719544398
0.597000000000000419,0.781637767865768218
0.598000000000000420,0.776607784529407486
0.599000000000000421,0.771636459363381100
0.600000000000000422,0.766722474272180987
0.601000000000000423,0.761864537067580061
0.602000000000000424,0.757061381125152311
0.603000000000000425,0.752311765041794533
0.604000000000000425,0.747614472294344301
0.605000000000000426,0.742968310899367879
0.606000000000000427,0.738372113074234226
0.607000000000000428,0.733824734899630071
0.608000000000000429,0.729325055983477855
0.609000000000000430,0.724871979126527899
0.610000000000000431,0.720464429989521316
0.611000000000000432,0.716101356762163244
0.612000000000000433,0.711781729833898202
0.613000000000000433,0.707504541466576264
0.614000000000000434,0.703268805469114744
0.615000000000000435,0.699073556874183377
0.616000000000000436,0.694917851617034676
0.617000000000000437,0.690800766216446482
0.618000000000000438,0.686721397457948912
