# hydroxyapatite-001-ph10_CS-12139-AC
# h[nm],U(h)[kJ/mol]
0.149999999999999994,94.902663884141531980
0.150999999999999995,94.201057051889776517
0.151999999999999996,92.903419245420778338
0.152999999999999997,91.454308417794010211
0.153999999999999998,90.028480926123037875
0.154999999999999999,88.671447306786731701
0.156000000000000000,87.375717856615864321
0.157000000000000001,86.119170151674524050
0.158000000000000002,84.882010799571787629
0.159000000000000002,83.652344559893691667
0.160000000000000003,82.426241269564599179
0.161000000000000004,81.205611201616051176
0.162000000000000005,79.995625602522324016
0.163000000000000006,78.802490975129273920
0.164000000000000007,77.631863993771617061
0.165000000000000008,76.487921831585566679
0.166000000000000009,75.372978723272382240
0.167000000000000010,74.287499434653227581
0.168000000000000010,73.230364109003005524
0.169000000000000011,72.199262807459305691
0.170000000000000012,71.191128266684444270
0.171000000000000013,70.202544664155723808
0.172000000000000014,69.230095097227149381
0.173000000000000015,68.270629896749298382
0.174000000000000016,67.321451895765505924
0.175000000000000017,66.380424047319465330
0.176000000000000018,65.446010247500908008
0.177000000000000018,64.517262799936204942
0.178000000000000019,63.593770491789385346
0.179000000000000020,62.675580435530378054
0.180000000000000021,61.763105213229174240
0.181000000000000022,60.857024850447565711
0.182000000000000023,59.958191035167644145
0.183000000000000024,59.067538976716448929
0.184000000000000025,58.186010487823395465
0.185000000000000026,57.314490330924833472
0.186000000000000026,56.453756618567595638
0.187000000000000027,55.604445091080819452
0.188000000000000028,54.767026389353098637
0.189000000000000029,53.941794963864388990
0.190000000000000030,53.128867976327022404
0.191000000000000031,52.328192420327447110
0.192000000000000032,51.539558677302593992
0.193000000000000033,50.762618802650038674
0.194000000000000034,49.996907976662647854
0.195000000000000034,49.241867733673636565
0.196000000000000035,48.496869782033272145
0.197000000000000036,47.761239433071267513
0.198000000000000037,47.034277858345426182
0.199000000000000038,46.315282583618810008
0.200000000000000039,45.603565800075742231
0.201000000000000040,44.898470225277790746
0.202000000000000041,44.199382376904551961
0.203000000000000042,43.505743231285620709
0.204000000000000042,42.817056326885392536
0.205000000000000043,42.132893441658367806
0.206000000000000044,41.452898024359868145
0.207000000000000045,40.776786595511751443
0.208000000000000046,40.104348355909834822
0.209000000000000047,39.435443251422462652
0.210000000000000048,38.769998744382085931
0.211000000000000049,38.108005535984382561
0.212000000000000050,37.449512472473934110
0.213000000000000050,36.794620852017644097
0.214000000000000051,36.143478330349175565
0.215000000000000052,35.496272602622873649
0.216000000000000053,34.853225017369823036
0.217000000000000054,34.214584256757952119
0.218000000000000055,33.580620196121927279
0.219000000000000056,32.951618035410255914
0.220000000000000057,32.327872776135073707
0.221000000000000058,31.709684099846338512
0.222000000000000058,31.097351688229831979
0.223000000000000059,30.491171010731648039
0.224000000000000060,29.891429593152658128
0.225000000000000061,29.298403769910589034
0.226000000000000062,28.712355913567325416
0.227000000000000063,28.133532127675305645
0.228000000000000064,27.562160382898674982
0.229000000000000065,26.998449071589099901
0.230000000000000066,26.442585952416017392
0.231000000000000066,25.894737454132826571
0.232000000000000067,25.355048305977426537
0.233000000000000068,24.823641461428497479
0.234000000000000069,24.300618281951933852
0.235000000000000070,23.786058947860230006
0.236000000000000071,23.280023064370148234
0.237000000000000072,22.782550432284004671
0.238000000000000073,22.293661954355169286
0.239000000000000073,21.813360650252104023
0.240000000000000074,21.341632755039313452
0.241000000000000075,20.878448878194202365
0.242000000000000076,20.423765202322606171
0.243000000000000077,19.977524702882995200
0.244000000000000078,19.539658372344966608
0.245000000000000079,19.110086434262520072
0.246000000000000080,18.688719534715751536
0.247000000000000081,18.275459900446030304
0.248000000000000081,17.870202454769401612
0.249000000000000082,17.472835883990050831
0.250000000000000111,17.083243648544758742
0.251000000000000112,16.701304934488920395
0.252000000000000113,16.326895542182576548
0.253000000000000114,15.959888710156059588
0.254000000000000115,15.600155873128567663
0.255000000000000115,15.247567354028046083
0.256000000000000116,14.901992990620055224
0.257000000000000117,14.563302698004974900
0.258000000000000118,14.231366968793190964
0.259000000000000119,13.906057313224760463
0.260000000000000120,13.587246641869990427
0.261000000000000121,13.274809593839529853
0.262000000000000122,12.968622813652634918
0.263000000000000123,12.668565180069045084
0.264000000000000123,12.374517990289110259
0.265000000000000124,12.086365102976339259
0.266000000000000125,11.803993043561636256
0.267000000000000126,11.527291075256163921
0.268000000000000127,11.256151239134206676
0.269000000000000128,10.990468366555742108
0.270000000000000129,10.730140067083137723
0.271000000000000130,10.475066694913175880
0.272000000000000131,10.225151296698609116
0.273000000000000131,9.980299543474483670
0.274000000000000132,9.740419649239003164
0.275000000000000133,9.505422278567271732
0.276000000000000134,9.275220445462936780
0.277000000000000135,9.049729405479000732
0.278000000000000136,8.828866542966423481
0.279000000000000137,8.612551255139736739
0.280000000000000138,8.400704834484148620
0.281000000000000139,8.193250350868444443
0.282000000000000139,7.990112534575064096
0.283000000000000140,7.791217661311977238
0.284000000000000141,7.596493440132452868
0.285000000000000142,7.405868905057485740
0.286000000000000143,7.219274311073040629
0.287000000000000144,7.036641035059690630
0.288000000000000145,6.857901482105711821
0.289000000000000146,6.682988997557205657
0.290000000000000147,6.511837785068377293
0.291000000000000147,6.344382830833791509
0.292000000000000148,6.180559834109639716
0.293000000000000149,6.020305144064960423
0.294000000000000150,5.863555702943567205
0.295000000000000151,5.710248995465026844
0.296000000000000152,5.560323004346413356
0.297000000000000153,5.413716171786428610
0.298000000000000154,5.270367366718704538
0.299000000000000155,5.130215857611960750
0.300000000000000155,4.993201290570188355
0.301000000000000156,4.859263672466459738
0.302000000000000157,4.728343358828087872
0.303000000000000158,4.600381046179420785
0.304000000000000159,4.475317768540108432
0.305000000000000160,4.353094897771757843
0.306000000000000161,4.233654147463621342
0.307000000000000162,4.116937580048293022
0.308000000000000163,4.002887616841060314
0.309000000000000163,3.891447050701190680
0.310000000000000164,3.782559061019649338
0.311000000000000165,3.676167230745792658
0.312000000000000166,3.572215565174587049
0.313000000000000167,3.470648512226186089
0.314000000000000168,3.371410983960866137
0.315000000000000169,3.274448379084076155
0.316000000000000170,3.179706606208765773
0.317000000000000171,3.087132107655035984
0.318000000000000171,2.996671883580240170
0.319000000000000172,2.908273516245782009
0.320000000000000173,2.821885194240354444
0.321000000000000174,2.737455736492605318
0.322000000000000175,2.654934615919212426
0.323000000000000176,2.574271982567562844
0.324000000000000177,2.495418686124690311
0.325000000000000178,2.418326297676750336
0.326000000000000179,2.342947130615077533
0.327000000000000179,2.269234260596725505
0.328000000000000180,2.197141544478468322
0.329000000000000181,2.126623638153932294
0.330000000000000182,2.057636013233896222
0.331000000000000183,1.990134972519407297
0.332000000000000184,1.924077664226699458
0.333000000000000185,1.859422094931609593
0.334000000000000186,1.796127141209355571
0.335000000000000187,1.734152559953273665
0.336000000000000187,1.673458997363238110
0.337000000000000188,1.614007996601336092
0.338000000000000189,1.555762004118274699
0.339000000000000190,1.498684374659900120
0.340000000000000191,1.442739374968449173
0.341000000000000192,1.387892186197746680
0.342000000000000193,1.334108905066054396
0.343000000000000194,1.281356543774037071
0.344000000000000195,1.229603028719034041
0.345000000000000195,1.178817198039521674
0.346000000000000196,1.128968798026854792
0.347000000000000197,1.080028478443322948
0.348000000000000198,1.031967786787883146
0.349000000000000199,0.984759161552485329
0.350000000000000200,0.938375924513363935
0.351000000000000201,0.892792272102829854
0.352000000000000202,0.847983265907935491
0.353000000000000203,0.803924822343018541
0.354000000000000203,0.760593701543488487
0.355000000000000204,0.717967495528527122
0.356000000000000205,0.676024615680192897
0.357000000000000206,0.634744279586307858
0.358000000000000207,0.594106497294222713
0.359000000000000208,0.554092057021916107
0.360000000000000209,0.514682510372265201
0.361000000000000210,0.475860157095713110
0.362000000000000210,0.437608029445401114
0.363000000000000211,0.399909876168162814
0.364000000000000212,0.362750146173457022
0.365000000000000213,0.326113971921352996
0.366000000000000214,0.289987152569390061
0.367000000000000215,0.254356136916923159
0.368000000000000216,0.219208006184160947
0.369000000000000217,0.184530456661929854
0.370000000000000218,0.150311782266620064
0.371000000000000218,0.116540857033555878
0.372000000000000219,0.083207117580456097
0.373000000000000220,0.050300545571325551
0.374000000000000221,0.017811650209625496
0.375000000000000222,-0.014268549211718561
0.376000000000000223,-0.045948540677656344
0.377000000000000224,-0.077236336710899023
0.378000000000000225,-0.108139491501258012
0.379000000000000226,-0.138665117882551092
0.380000000000000226,-0.168819904136709831
0.381000000000000227,-0.198610130605834517
0.382000000000000228,-0.228041686094509449
0.383000000000000229,-0.257120084045780295
0.384000000000000230,-0.285850478475507153
0.385000000000000231,-0.314237679651098112
0.386000000000000232,-0.342286169501659743
0.387000000000000233,-0.370000116747911278
0.388000000000000234,-0.397383391741165937
0.389000000000000234,-0.424439581001908095
0.390000000000000235,-0.451172001449380911
0.391000000000000236,-0.477583714314729346
0.392000000000000237,-0.503677538731092334
0.393000000000000238,-0.529456064995038611
0.394000000000000239,-0.554921667494547854
0.395000000000000240,-0.580076517299660588
0.396000000000000241,-0.604922594412632408
0.397000000000000242,-0.629461699675264996
0.398000000000000242,-0.653695466331796426
0.399000000000000243,-0.677625371246344588
0.400000000000000244,-0.701252745774697539
0.401000000000000245,-0.724578786290747123
0.402000000000000246,-0.747604564368409608
0.403000000000000247,-0.770331036620601095
0.404000000000000248,-0.792759054197139990
0.405000000000000249,-0.814889371944072849
0.406000000000000250,-0.836722657227279010
0.407000000000000250,-0.858259498423702638
0.408000000000000251,-0.879500413083886379
0.409000000000000252,-0.900445855769860026
0.410000000000000253,-0.921096225572791583
0.411000000000000254,-0.941451873315068410
0.412000000000000255,-0.961513108441760855
0.413000000000000256,-0.981280205606749334
0.414000000000000257,-1.000753410958865830
0.415000000000000258,-1.019932948133802197
0.416000000000000258,-1.038819023957522569
0.417000000000000259,-1.057411833867256457
0.418000000000000260,-1.075711567056147677
0.419000000000000261,-1.093718411347871511
0.420000000000000262,-1.111432557807517485
0.421000000000000263,-1.128854205095292773
0.422000000000000264,-1.145983563569426877
0.423000000000000265,-1.162820859144970909
0.424000000000000266,-1.179366336915073532
0.425000000000000266,-1.195620264541331856
0.426000000000000267,-1.211582935419923679
0.427000000000000268,-1.227254671630167548
0.428000000000000269,-1.242635826672112476
0.429000000000000270,-1.257726787999849272
0.430000000000000271,-1.272527979357047645
0.431000000000000272,-1.287039862921360855
0.432000000000000273,-1.301262941264104356
0.433000000000000274,-1.315197759131712552
0.434000000000000274,-1.328844905055320158
0.435000000000000275,-1.342205012794751351
0.436000000000000276,-1.355278762623178812
0.437000000000000277,-1.368066882458541134
0.438000000000000278,-1.380570148847779954
0.439000000000000279,-1.392789387809863388
0.440000000000000280,-1.404725475543401547
0.441000000000000281,-1.416379339004615989
0.442000000000000282,-1.427751956361338559
0.443000000000000282,-1.438844357328458612
0.444000000000000283,-1.449657623390360861
0.445000000000000284,-1.460192887915540361
0.446000000000000285,-1.470451336168613121
0.447000000000000286,-1.480434205224818722
0.448000000000000287,-1.490142783791851500
0.449000000000000288,-1.499578411943953027
0.450000000000000289,-1.508742480772857331
0.451000000000000290,-1.517636431960204479
0.452000000000000290,-1.526261757275889419
0.453000000000000291,-1.534619998006596431
0.454000000000000292,-1.542712744318786022
0.455000000000000293,-1.550541634560173465
0.456000000000000294,-1.558108354503647153
0.457000000000000295,-1.565414636537492354
0.458000000000000296,-1.572462258805574553
0.459000000000000297,-1.579253044301125453
0.460000000000000298,-1.585788859917566018
0.461000000000000298,-1.592071615459734302
0.462000000000000299,-1.598103262618763676
0.463000000000000300,-1.603885793913704116
0.464000000000000301,-1.609421241602938979
0.465000000000000302,-1.614711676568257648
0.466000000000000303,-1.619759207174394477
0.467000000000000304,-1.624565978106732533
0.468000000000000305,-1.629134169189692560
0.469000000000000306,-1.633465994188340487
0.470000000000000306,-1.637563699595584454
0.471000000000000307,-1.641429563407157843
0.472000000000000308,-1.645065893886668018
0.473000000000000309,-1.648475028322730962
0.474000000000000310,-1.651659331780171769
0.475000000000000311,-1.654621195847234771
0.476000000000000312,-1.657363037380561011
0.477000000000000313,-1.659887297249709182
0.478000000000000314,-1.662196439082787025
0.479000000000000314,-1.664292948014836515
0.480000000000000315,-1.666179329440359069
0.481000000000000316,-1.667858107771468923
0.482000000000000317,-1.669331825202912567
0.483000000000000318,-1.670603040485281188
0.484000000000000319,-1.671674327707539875
0.485000000000000320,-1.672548275090009584
0.486000000000000321,-1.673227483788864323
0.487000000000000322,-1.673714566713082164
0.488000000000000322,-1.674012147354778435
0.489000000000000323,-1.674122858633825484
0.490000000000000324,-1.674049341757494869
0.491000000000000325,-1.673794245095892919
0.492000000000000326,-1.673360223073878883
0.493000000000000327,-1.672749935080108941
0.494000000000000328,-1.671966044393752737
0.495000000000000329,-1.671011217129491744
0.496000000000000330,-1.669888121201180464
0.497000000000000330,-1.668599425304762462
0.498000000000000331,-1.667147797920661700
0.499000000000000332,-1.665535906336183647
0.500000000000000333,-1.663766415688143097
0.501000000000000334,-1.661841988025996475
0.502000000000000335,-1.659765281395789716
0.503000000000000336,-1.657538948945068258
0.504000000000000337,-1.655165638048963883
0.505000000000000338,-1.652647989457571409
0.506000000000000338,-1.649988636464757574
0.507000000000000339,-1.647190204098466726
0.508000000000000340,-1.644255308332564613
0.509000000000000341,-1.641186555320321760
0.510000000000000342,-1.637986540649418954
0.511000000000000343,-1.634657848618587650
0.512000000000000344,-1.631203051535725645
0.513000000000000345,-1.627624709037500894
0.514000000000000346,-1.623925367430349542
0.515000000000000346,-1.620107559052711421
0.516000000000000347,-1.616173801658435938
0.517000000000000348,-1.612126597821209817
0.518000000000000349,-1.607968434359815735
0.519000000000000350,-1.603701781784102609
0.520000000000000351,-1.599329093761419518
0.521000000000000352,-1.594852806603396234
0.522000000000000353,-1.590275338772763281
0.523000000000000353,-1.585599090410066747
0.524000000000000354,-1.580826442880014948
0.525000000000000355,-1.575959758337196037
0.526000000000000356,-1.571001379310933199
0.527000000000000357,-1.565953628309030066
0.528000000000000358,-1.560818807440083500
0.529000000000000359,-1.555599198054171239
0.530000000000000360,-1.550297060401521154
0.531000000000000361,-1.544914633308982266
0.532000000000000361,-1.539454133873930930
0.533000000000000362,-1.533917757175336849
0.534000000000000363,-1.528307676001681603
0.535000000000000364,-1.522626040595434826
0.536000000000000365,-1.516874978413751851
0.537000000000000366,-1.511056593905109491
0.538000000000000367,-1.505172968301518921
0.539000000000000368,-1.499226159426079619
0.540000000000000369,-1.493218201515441379
0.541000000000000369,-1.487151105056985001
0.542000000000000370,-1.481026856640266010
0.543000000000000371,-1.474847418822518019
0.544000000000000372,-1.468614730007818725
0.545000000000000373,-1.462330704339642073
0.546000000000000374,-1.455997231606446451
0.547000000000000375,-1.449616177159987362
0.548000000000000376,-1.443189381846069264
0.549000000000000377,-1.436718661947366416
0.550000000000000377,-1.430205809138051620
0.551000000000000378,-1.423652590449864253
0.552000000000000379,-1.417060748249377555
0.553000000000000380,-1.410432000226094384
0.554000000000000381,-1.403768039391082301
0.555000000000000382,-1.397070534085901539
0.556000000000000383,-1.390341128001415516
0.557000000000000384,-1.383581440206317126
0.558000000000000385,-1.376793065184957809
0.559000000000000385,-1.369977572884283346
0.560000000000000386,-1.363136508769539290
0.561000000000000387,-1.356271393888479171
0.562000000000000388,-1.349383724943780338
0.563000000000000389,-1.342474974373437435
0.564000000000000390,-1.335546590438801307
0.565000000000000391,-1.328599997320045301
0.566000000000000392,-1.321636595218763421
0.567000000000000393,-1.314657760467481395
0.568000000000000393,-1.307664845645768459
0.569000000000000394,-1.300659179702745138
0.570000000000000395,-1.293642068085743890
0.571000000000000396,-1.286614792874822610
0.572000000000000397,-1.279578612922984693
0.573000000000000398,-1.272534764001777452
0.574000000000000399,-1.265484458952117253
0.575000000000000400,-1.258428887840062460
0.576000000000000401,-1.251369218117336146
0.577000000000000401,-1.244306594786414921
0.578000000000000402,-1.237242140569890125
0.579000000000000403,-1.230176956083970818
0.580000000000000404,-1.223112120015914739
0.581000000000000405,-1.216048689305132768
0.582000000000000406,-1.208987699327856546
0.583000000000000407,-1.201930164085094122
0.584000000000000408,-1.194877076393769944
0.585000000000000409,-1.187829408080805393
0.586000000000000409,-1.180788110179981532
0.587000000000000410,-1.173754113131445731
0.588000000000000411,-1.166728326983621722
0.589000000000000412,-1.159711641597451770
0.590000000000000413,-1.152704926852707867
0.591000000000000414,-1.145709032856303100
0.592000000000000415,-1.138724790152416677
0.593000000000000416,-1.131753009934258092
0.594000000000000417,-1.124794484257362726
0.595000000000000417,-1.117849986254306982
0.596000000000000418,-1.110920270350584493
0.597000000000000419,-1.104006072481688472
0.598000000000000420,-1.097108110311096008
0.599000000000000421,-1.090227083449165413
0.600000000000000422,-1.083363673672740113
0.601000000000000423,-1.076518545145372485
0.602000000000000424,-1.069692344638064174
0.603000000000000425,-1.062885701750391210
0.604000000000000425,-1.056099229131902462
0.605000000000000426,-1.049333522703710830
0.606000000000000427,-1.042589161880183024
0.607000000000000428,-1.035866709790541851
0.608000000000000429,-1.029166713500460961
0.609000000000000430,-1.022489704233341623
0.610000000000000431,-1.015836197591395429
0.611000000000000432,-1.009206693776286023
0.612000000000000433,-1.002601677809327185
0.613000000000000433,-0.996021619751158438
0.614000000000000434,-0.989466974920793718
0.615000000000000435,-0.982938184113967828
