# hydroxyapatite-001-ph10_CS-283071-AC
# h[nm],U(h)[kJ/mol]
0.149999999999999994,112.381392992698323496
0.150999999999999995,111.198781239248845054
0.151999999999999996,109.727590401502496320
0.152999999999999997,108.183955332325098198
0.153999999999999998,106.656015305807457594
0.154999999999999999,105.169421715878840473
0.156000000000000000,103.723478676826601941
0.157000000000000001,102.309683594225361958
0.158000000000000002,100.920129072471269183
0.159000000000000002,99.550388221281963297
0.160000000000000003,98.199660324307345149
0.161000000000000004,96.869776339018798694
0.162000000000000005,95.563929381186639489
0.163000000000000006,94.285551160008026272
0.164000000000000007,93.037497828502750963
0.165000000000000008,91.821568725588207371
0.166000000000000009,90.638313349447216183
0.167000000000000010,89.487055952191596475
0.168000000000000010,88.366064498996863108
0.169000000000000011,87.272799685345262333
0.170000000000000012,86.204193260441883240
0.171000000000000013,85.156919107079929177
0.172000000000000014,84.127633333685309935
0.173000000000000015,83.113170163470925900
0.174000000000000016,82.110688456774795441
0.175000000000000017,81.117769440014882321
0.176000000000000018,80.132469974736252993
0.177000000000000018,79.153337875601437190
0.178000000000000019,78.179396760233657915
0.179000000000000020,77.210108027189932045
0.180000000000000021,76.245317095243635208
0.181000000000000022,75.285190223289902178
0.182000000000000023,74.330147236944853262
0.183000000000000024,73.380794439586253475
0.184000000000000025,72.437860967595497641
0.185000000000000026,71.502140916495861234
0.186000000000000026,70.574442747563267631
0.187000000000000027,69.655546797000681636
0.188000000000000028,68.746171153391031794
0.189000000000000029,67.846945737197486892
0.190000000000000030,66.958394096882756230
0.191000000000000031,66.080922215412826404
0.192000000000000032,65.214813483161080399
0.193000000000000033,64.360228923379438015
0.194000000000000034,63.517211740247091711
0.195000000000000034,62.685695284229289825
0.196000000000000035,61.865513583892472127
0.197000000000000036,61.056413667931579425
0.198000000000000037,60.258068988125558008
0.199000000000000038,59.470093346940281265
0.200000000000000039,58.692054827626137126
0.201000000000000040,57.923489316196466348
0.202000000000000041,57.163913290956621438
0.203000000000000042,56.412835634467832335
0.204000000000000042,55.669768293876231269
0.205000000000000043,54.934235677870468351
0.206000000000000044,54.205782732045790340
0.207000000000000045,53.483981679367033735
0.208000000000000046,52.768437449190813027
0.209000000000000047,52.058791847544874543
0.210000000000000048,51.354726543777623249
0.211000000000000049,50.655964965050536364
0.212000000000000050,49.962273201221250929
0.213000000000000050,49.273460029216678890
0.214000000000000051,48.589376168748842133
0.215000000000000052,47.909912880851621253
0.216000000000000053,47.235000017835304220
0.217000000000000054,46.564603628416222136
0.218000000000000055,45.898723215472969628
0.219000000000000056,45.237388736532111011
0.220000000000000057,44.580657429057893637
0.221000000000000058,43.928610534222848116
0.222000000000000058,43.281349984316570101
0.223000000000000059,42.638995110521406673
0.224000000000000060,42.001679419603206611
0.225000000000000061,41.369547480262291117
0.226000000000000062,40.742751952554158379
0.227000000000000063,40.121450786987360004
0.228000000000000064,39.505804613677959480
0.229000000000000065,38.895974336305535246
0.230000000000000066,38.292118940581843844
0.231000000000000066,37.694393522499858307
0.232000000000000067,37.102947537760954333
0.233000000000000068,36.517923270453316320
0.234000000000000069,35.939454516245945115
0.235000000000000070,35.367665473031124179
0.236000000000000071,34.802669830058505340
0.237000000000000072,34.244570045113611911
0.238000000000000073,33.693456798165399846
0.239000000000000073,33.149408609101776335
0.240000000000000074,32.612491606648845277
0.241000000000000075,32.082759435296722472
0.242000000000000076,31.560253286994413457
0.243000000000000077,31.045002044498641425
0.244000000000000078,30.537022523536812457
0.245000000000000079,30.036319801344887992
0.246000000000000080,29.542887619644289998
0.247000000000000081,29.056708850702978708
0.248000000000000081,28.577756015768649434
0.249000000000000082,28.105991845846375554
0.250000000000000111,27.641369875505414910
0.251000000000000112,27.183835061126568888
0.252000000000000113,26.733324415731495094
0.253000000000000114,26.289767653259126234
0.254000000000000115,25.853087835864023702
0.255000000000000115,25.423202018499914345
0.256000000000000116,25.000021885715067782
0.257000000000000117,24.583454376218291770
0.258000000000000118,24.173402291374706863
0.259000000000000119,23.769764884354422918
0.260000000000000120,23.372438427184636822
0.261000000000000121,22.981316753446101586
0.262000000000000122,22.596291774806744002
0.263000000000000123,22.217253970000257368
0.264000000000000123,21.844092845235124400
0.265000000000000124,21.476697365361776093
0.266000000000000125,21.114956355433147195
0.267000000000000126,20.758758872568076725
0.268000000000000127,20.407994548269883239
0.269000000000000128,20.062553901565731707
0.270000000000000129,19.722328623517405788
0.271000000000000130,19.387211833812919792
0.272000000000000131,19.057098310283301146
0.273000000000000131,18.731884692301065343
0.274000000000000132,18.411469659108515629
0.275000000000000133,18.095754084196777001
0.276000000000000134,17.784641166912063426
0.277000000000000135,17.478036542506142581
0.278000000000000136,17.175848371873890130
0.279000000000000137,16.877987412234666920
0.280000000000000138,16.584367070017584922
0.281000000000000139,16.294903437203139163
0.282000000000000139,16.009515312359091865
0.283000000000000140,15.728124207585338468
0.284000000000000141,15.450654342554026144
0.285000000000000142,15.177032626796826520
0.286000000000000143,14.907188631352909169
0.287000000000000144,14.641054550849128546
0.288000000000000145,14.378565157038860178
0.289000000000000146,14.119657744779336994
0.290000000000000147,13.864272071378280771
0.291000000000000147,13.612350290191525204
0.292000000000000148,13.363836879302837701
0.293000000000000149,13.118678566067353941
0.294000000000000150,12.876824248249747029
0.295000000000000151,12.638224912439142145
0.296000000000000152,12.402833550374143812
0.297000000000000153,12.170605073764122039
0.298000000000000154,11.941496228146615266
0.299000000000000155,11.715465506276165897
0.300000000000000155,11.492473061496793818
0.301000000000000156,11.272480621509174625
0.302000000000000157,11.055451402903520020
0.303000000000000158,10.841350026792039074
0.304000000000000159,10.630142435838484616
0.305000000000000160,10.421795812948555948
0.306000000000000161,10.216278501852880112
0.307000000000000162,10.013559929783886204
0.308000000000000163,9.813610532419856369
0.309000000000000163,9.616401681242750854
0.310000000000000164,9.421905613431821536
0.311000000000000165,9.230095364392104429
0.312000000000000166,9.040944702995568960
0.313000000000000167,8.854428069593291539
0.314000000000000168,8.670520516838887914
0.315000000000000169,8.489197653346987948
0.316000000000000170,8.310435590195535127
0.317000000000000171,8.134210890267054239
0.318000000000000171,7.960500520411747161
0.319000000000000172,7.789281806403986153
0.320000000000000173,7.620532390654210175
0.321000000000000174,7.454230192629168528
0.322000000000000175,7.290353371925789361
0.323000000000000176,7.128880293937248425
0.324000000000000177,6.969789498043814646
0.325000000000000178,6.813059668256235213
0.326000000000000179,6.658669606234984606
0.327000000000000179,6.506598206605429979
0.328000000000000180,6.356824434486023634
0.329000000000000181,6.209327305144503484
0.330000000000000182,6.064085865695528987
0.331000000000000183,5.921079178751947225
0.332000000000000184,5.780286307941474355
0.333000000000000185,5.641686305200264151
0.334000000000000186,5.505258199755130200
0.335000000000000187,5.370980988706760328
0.336000000000000187,5.238833629127027436
0.337000000000000188,5.108795031585017021
0.338000000000000189,4.980844055017366045
0.339000000000000190,4.854959502860475062
0.340000000000000191,4.731120120363903503
0.341000000000000192,4.609304593006273265
0.342000000000000193,4.489491545937028150
0.343000000000000194,4.371659544369794759
0.344000000000000195,4.255787094855527641
0.345000000000000195,4.141852647365689144
0.346000000000000196,4.029834598118687161
0.347000000000000197,3.919711293084937154
0.348000000000000198,3.811461032108740987
0.349000000000000199,3.705062073587608751
0.350000000000000200,3.600492639652317362
0.351000000000000201,3.497730921793533732
0.352000000000000202,3.396755086883462837
0.353000000000000203,3.297543283543444836
0.354000000000000203,3.200073648810930926
0.355000000000000204,3.104324315061867789
0.356000000000000205,3.010273417146795527
0.357000000000000206,2.917899099701283916
0.358000000000000207,2.827179524593942173
0.359000000000000208,2.738092878477169645
0.360000000000000209,2.650617380408083257
0.361000000000000210,2.564731289509423640
0.362000000000000210,2.480412912641900558
0.363000000000000211,2.397640612061800791
0.364000000000000212,2.316392813039348297
0.365000000000000213,2.236648011415290682
0.366000000000000214,2.158384781074900616
0.367000000000000215,2.081581781320346103
0.368000000000000216,2.006217764123888969
0.369000000000000217,1.932271581246133518
0.370000000000000218,1.859722191204809194
0.371000000000000218,1.788548666081239746
0.372000000000000219,1.718730198152742972
0.373000000000000220,1.650246106340699681
0.374000000000000221,1.583075842465121896
0.375000000000000222,1.517198997297885876
0.376000000000000223,1.452595306407506115
0.377000000000000224,1.389244655789865002
0.378000000000000225,1.327127087279847517
0.379000000000000226,1.266222803740038483
0.380000000000000226,1.206512174023254724
0.381000000000000227,1.147975737706734112
0.382000000000000228,1.090594209596329467
0.383000000000000229,1.034348483999900647
0.384000000000000230,0.979219638769714629
0.385000000000000231,0.925188939114187092
0.386000000000000232,0.872237841180019791
0.387000000000000233,0.820347995406103814
0.388000000000000234,0.769501249651242336
0.389000000000000234,0.719679652098026201
0.390000000000000235,0.670865453935632905
0.391000000000000236,0.623041111824763072
0.392000000000000237,0.576189290148144351
0.393000000000000238,0.530292863050388030
0.394000000000000239,0.485334916271284555
0.395000000000000240,0.441298748776765060
0.396000000000000241,0.398167874192061788
0.397000000000000242,0.355926022041764767
0.398000000000000242,0.314557138801533576
0.399000000000000243,0.274045388766591680
0.400000000000000244,0.234375154741934016
0.401000000000000245,0.195531038559533771
0.402000000000000246,0.157497861427871255
0.403000000000000247,0.120260664118953906
0.404000000000000248,0.083804706998364106
0.405000000000000249,0.048115469903622407
0.406000000000000250,0.013178651876365199
0.407000000000000250,-0.021019829246316356
0.408000000000000251,-0.054493837375949240
0.409000000000000252,-0.087257018846755185
0.410000000000000253,-0.119322803214457623
0.411000000000000254,-0.150704404174449275
0.412000000000000255,-0.181414820594092807
0.413000000000000256,-0.211466837654026019
0.414000000000000257,-0.240873028093231634
0.415000000000000258,-0.269645753552987755
0.416000000000000258,-0.297797166014566517
0.417000000000000259,-0.325339209325964718
0.418000000000000260,-0.352283620812735954
0.419000000000000261,-0.378641932968372508
0.420000000000000262,-0.404425475219514940
0.421000000000000263,-0.429645375761623260
0.422000000000000264,-0.454312563460603669
0.423000000000000265,-0.478437769816207503
0.424000000000000266,-0.502031530983020446
0.425000000000000266,-0.525104189844905589
0.426000000000000267,-0.547665898139075402
0.427000000000000268,-0.569726618625860270
0.428000000000000269,-0.591296127300494301
0.429000000000000270,-0.612384015643328672
0.430000000000000271,-0.632999692904919975
0.431000000000000272,-0.653152388422696517
0.432000000000000273,-0.672851153965850379
0.433000000000000274,-0.692104866105360150
0.434000000000000274,-0.710922228606079898
0.435000000000000275,-0.729311774837939297
0.436000000000000276,-0.747281870203479803
0.437000000000000277,-0.764840714578956415
0.438000000000000278,-0.781996344766415552
0.439000000000000279,-0.798756636954264687
0.440000000000000280,-0.815129309183893036
0.441000000000000281,-0.831121923820035358
0.442000000000000282,-0.846741890022753907
0.443000000000000282,-0.861996466218804658
0.444000000000000283,-0.876892762570503193
0.445000000000000284,-0.891437743440086416
0.446000000000000285,-0.905638229847758658
0.447000000000000286,-0.919500901921759928
0.448000000000000287,-0.933032301338663772
0.449000000000000288,-0.946238833752495845
0.450000000000000289,-0.959126771211060380
0.451000000000000290,-0.971702254558140077
0.452000000000000290,-0.983971295820263769
0.453000000000000291,-0.995939780576698297
0.454000000000000292,-1.007613470311600423
0.455000000000000293,-1.018998004747152297
0.456000000000000294,-1.030098904156655504
0.457000000000000295,-1.040921571656663769
0.458000000000000296,-1.051471295477170553
0.459000000000000297,-1.061753251209086812
0.460000000000000298,-1.071772504028176698
0.461000000000000298,-1.081534010894766418
0.462000000000000299,-1.091042622728541245
0.463000000000000300,-1.100303086557800514
0.464000000000000301,-1.109320047642674778
0.465000000000000302,-1.118098051571731588
0.466000000000000303,-1.126641546331527577
0.467000000000000304,-1.134954884348749360
0.468000000000000305,-1.143042324504470075
0.469000000000000306,-1.150908034120284418
0.470000000000000306,-1.158556090916037506
0.471000000000000307,-1.165990484938810523
0.472000000000000308,-1.173215120463066530
0.473000000000000309,-1.180233817861742196
0.474000000000000310,-1.187050315448110016
0.475000000000000311,-1.193668271288379712
0.476000000000000312,-1.200091264984907813
0.477000000000000313,-1.206322799430022297
0.478000000000000314,-1.212366302530378803
0.479000000000000314,-1.218225128901962773
0.480000000000000315,-1.223902561535658906
0.481000000000000316,-1.229401813433566470
0.482000000000000317,-1.234726029216046239
0.483000000000000318,-1.239878286699681365
0.484000000000000319,-1.244861598446245221
0.485000000000000320,-1.249678913282814108
0.486000000000000321,-1.254333117793237751
0.487000000000000322,-1.258827037781112157
0.488000000000000322,-1.263163439704433788
0.489000000000000323,-1.267345032082232370
0.490000000000000324,-1.271374466873332221
0.491000000000000325,-1.275254340827511657
0.492000000000000326,-1.278987196809320492
0.493000000000000327,-1.282575525094834301
0.494000000000000328,-1.286021764641577914
0.495000000000000329,-1.289328304331973207
0.496000000000000330,-1.292497484190514800
0.497000000000000330,-1.295531596575115074
0.498000000000000331,-1.298432887342738429
0.499000000000000332,-1.301203556989851240
0.500000000000000333,-1.303845761767882250
0.501000000000000334,-1.306361614774016688
0.502000000000000335,-1.308753187017768216
0.503000000000000336,-1.311022508463548064
0.504000000000000337,-1.313171569049663034
0.505000000000000338,-1.315202319684034338
0.506000000000000338,-1.317116673217027412
0.507000000000000339,-1.318916505391720673
0.508000000000000340,-1.320603655771956486
0.509000000000000341,-1.322179928648606673
0.510000000000000342,-1.323647093924282148
0.511000000000000343,-1.325006887976986958
0.512000000000000344,-1.326261014502948754
0.513000000000000345,-1.327411145339067122
0.514000000000000346,-1.328458921265334824
0.515000000000000346,-1.329405952787523493
0.516000000000000347,-1.330253820900561212
0.517000000000000348,-1.331004077832938393
0.518000000000000349,-1.331658247772461889
0.519000000000000350,-1.332217827573778823
0.520000000000000351,-1.332684287447919669
0.521000000000000352,-1.333059071634345116
0.522000000000000353,-1.333343599055689666
0.523000000000000353,-1.333539263955667575
0.524000000000000354,-1.333647436520431162
0.525000000000000355,-1.333669463483709405
0.526000000000000356,-1.333606668716072363
0.527000000000000357,-1.333460353798680442
0.528000000000000358,-1.333231798581784533
0.529000000000000359,-1.332922261728386015
0.530000000000000360,-1.332532981243269132
0.531000000000000361,-1.332065174987834055
0.532000000000000361,-1.331520041180964897
0.533000000000000362,-1.330898758886283506
0.534000000000000363,-1.330202488486055712
0.535000000000000364,-1.329432372142115959
0.536000000000000365,-1.328589534244021264
0.537000000000000366,-1.327675081844813310
0.538000000000000367,-1.326690105084587401
0.539000000000000368,-1.325635677602267748
0.540000000000000369,-1.324512856935731620
0.541000000000000369,-1.323322684910698044
0.542000000000000370,-1.322066188018516497
0.543000000000000371,-1.320744377783247048
0.544000000000000372,-1.319358251118195824
0.545000000000000373,-1.317908790672235986
0.546000000000000374,-1.316396965166114930
0.547000000000000375,-1.314823729719025280
0.548000000000000376,-1.313190026165686364
0.549000000000000377,-1.311496783364156204
0.550000000000000377,-1.309744917494643612
0.551000000000000378,-1.307935332349493773
0.552000000000000379,-1.306068919614659318
0.553000000000000380,-1.304146559142804085
0.554000000000000381,-1.302169119218270721
0.555000000000000382,-1.300137456814206116
0.556000000000000383,-1.298052417841909500
0.557000000000000384,-1.295914837392775354
0.558000000000000385,-1.293725539972874872
0.559000000000000385,-1.291485339730497506
0.560000000000000386,-1.289195040676790693
0.561000000000000387,-1.286855436899679406
0.562000000000000388,-1.284467312771264247
0.563000000000000389,-1.282031443148912375
0.564000000000000390,-1.279548593570152049
0.565000000000000391,-1.277019520441604827
0.566000000000000392,-1.274444971222081779
0.567000000000000393,-1.271825684600063733
0.568000000000000393,-1.269162390665654172
0.569000000000000394,-1.266455811077224158
0.570000000000000395,-1.263706659222898931
0.571000000000000396,-1.260915640376981228
0.572000000000000397,-1.258083451851554457
0.573000000000000398,-1.255210783143311470
0.574000000000000399,-1.252298316075827422
0.575000000000000400,-1.249346724937369313
0.576000000000000401,-1.246356676614376324
0.577000000000000401,-1.243328830720807243
0.578000000000000402,-1.240263839723373396
0.579000000000000403,-1.237162349062862043
0.580000000000000404,-1.234024997271690127
0.581000000000000405,-1.230852416087693246
0.582000000000000406,-1.227645230564418544
0.583000000000000407,-1.224404059177893300
0.584000000000000408,-1.221129513930087951
0.585000000000000409,-1.217822200449112602
0.586000000000000409,-1.214482718086267621
0.587000000000000410,-1.211111660010093516
0.588000000000000411,-1.207709613297422324
0.589000000000000412,-1.204277159021656107
0.590000000000000413,-1.200814872338237915
0.591000000000000414,-1.197323322567492410
0.592000000000000415,-1.193803073274907423
0.593000000000000416,-1.190254682348907966
0.594000000000000417,-1.186678702076233494
0.595000000000000417,-1.183075679215051634
0.596000000000000418,-1.179446155065735580
0.597000000000000419,-1.175790665539592439
0.598000000000000420,-1.172109741225411339
0.599000000000000421,-1.168403907454067747
0.600000000000000422,-1.164673684361150929
0.601000000000000423,-1.160919586947718685
0.602000000000000424,-1.157142125139269284
0.603000000000000425,-1.153341803842956814
0.604000000000000425,-1.149519123003120757
0.605000000000000426,-1.145674577655209969
0.606000000000000427,-1.141808657978171881
0.607000000000000428,-1.137921849345260972
0.608000000000000429,-1.134014632373529619
0.609000000000000430,-1.130087482971791291
0.610000000000000431,-1.126140872387356939
0.611000000000000432,-1.122175267251420028
0.612000000000000433,-1.118191129623215874
0.613000000000000433,-1.114188917033010373
0.614000000000000434,-1.110169082523928763
