# hydroxyapatite-001-ph10_CHOL-JS
# h[nm],U(h)[kJ/mol]
0.149999999999999994,143.668142501289025859
0.150999999999999995,142.224946433068367924
0.151999999999999996,140.750648262416746093
0.152999999999999997,139.298610833627861894
0.153999999999999998,137.873692488411307977
0.154999999999999999,136.464154176327127743
0.156000000000000000,135.056646451551387145
0.157000000000000001,133.641982455326086665
0.158000000000000002,132.216267895573821534
0.159000000000000002,130.779994179349557726
0.160000000000000003,129.336497574876545968
0.161000000000000004,127.890472413407223939
0.162000000000000005,126.446819071063444540
0.163000000000000006,125.009889499984097938
0.164000000000000007,123.583088101232306144
0.165000000000000008,122.168745387457619245
0.166000000000000009,120.768176200021258637
0.167000000000000010,119.381845193187956511
0.168000000000000010,118.009579472627365249
0.169000000000000011,116.650786039646703784
0.170000000000000012,115.304647306890046821
0.171000000000000013,113.970280370188021379
0.172000000000000014,112.646854833087587622
0.173000000000000015,111.333670139579183456
0.174000000000000016,110.030197119141206485
0.175000000000000017,108.736090360621162176
0.176000000000000018,107.451178632632007748
0.177000000000000018,106.175440298579957243
0.178000000000000019,104.908969881377331035
0.179000000000000020,103.651940875525539809
0.180000000000000021,102.404568765755058735
0.181000000000000022,101.167077113094279639
0.182000000000000023,99.939668584513100313
0.183000000000000024,98.722501969075366901
0.184000000000000025,97.515675554703648231
0.185000000000000026,96.319216731366665840
0.186000000000000026,95.133077324599256031
0.187000000000000027,93.957133928042907201
0.188000000000000028,92.791192373263314153
0.189000000000000029,91.634995427625284492
0.190000000000000030,90.488232826198824910
0.191000000000000031,89.350552803550769454
0.192000000000000032,88.221574380594617537
0.193000000000000033,87.100899767923124273
0.194000000000000034,85.988126360396563541
0.195000000000000034,84.882857910730663775
0.196000000000000035,83.784714577052028517
0.197000000000000036,82.693341637233302777
0.198000000000000037,81.608416749078671160
0.199000000000000038,80.529655709036035205
0.200000000000000039,79.456816722843001344
0.201000000000000040,78.389703249788823314
0.202000000000000041,77.328165518941830214
0.203000000000000042,76.272100841884849842
0.204000000000000042,75.221452863500985586
0.205000000000000043,74.176209901506624078
0.206000000000000044,73.136402528058582106
0.207000000000000045,72.102100544146040306
0.208000000000000046,71.073409490767488705
0.209000000000000047,70.050466831149165614
0.210000000000000048,69.033437926393162343
0.211000000000000049,68.022511913745006495
0.212000000000000050,67.017897582793381162
0.213000000000000050,66.019819330904311983
0.214000000000000051,65.028513265468603777
0.215000000000000052,64.044223507436598197
0.216000000000000053,63.067198738368219324
0.217000000000000054,62.097689022002292347
0.218000000000000055,61.135942921251533733
0.219000000000000056,60.182204922609457753
0.220000000000000057,59.236713172214287226
0.221000000000000058,58.299697521238464049
0.222000000000000058,57.371377872795576991
0.223000000000000059,56.451962818124378884
0.224000000000000060,55.541648546329113856
0.225000000000000061,54.640618009343725703
0.226000000000000062,53.749040321948086785
0.227000000000000063,52.867070375504610524
0.228000000000000064,51.994848643511048181
0.229000000000000065,51.132501156991054359
0.230000000000000066,50.280139628086828907
0.231000000000000066,49.437861700898693584
0.232000000000000067,48.605751309567438057
0.233000000000000068,47.783879124750392009
0.234000000000000069,46.972303070948427717
0.235000000000000070,46.171068898547311221
0.236000000000000071,45.380210795901732013
0.237000000000000072,44.599752028277123372
0.238000000000000073,43.829705591943529441
0.239000000000000073,43.070074873162937479
0.240000000000000074,42.320854303204036739
0.241000000000000075,41.582030001845907918
0.242000000000000076,40.853580403077408789
0.243000000000000077,40.135476857858336075
0.244000000000000078,39.427684209873717691
0.245000000000000079,38.730161341182608226
0.246000000000000080,38.042861685536756511
0.247000000000000081,37.365733707922103690
0.248000000000000081,36.698721349562106298
0.249000000000000082,36.041764438218308442
0.250000000000000111,35.394799064135654021
0.251000000000000112,34.757757922412089613
0.252000000000000113,34.130570622930669344
0.253000000000000114,33.513163969283340293
0.254000000000000115,32.905462208343308816
0.255000000000000115,32.307387252315606929
0.256000000000000116,31.718858875217467386
0.257000000000000117,31.139794885816797887
0.258000000000000118,30.570111279096543910
0.259000000000000119,30.009722368316214869
0.260000000000000120,29.458540899717171158
0.261000000000000121,28.916478151869842605
0.262000000000000122,28.383444021590502615
0.263000000000000123,27.859347098270312415
0.264000000000000123,27.344094728359550572
0.265000000000000124,26.837593071641709486
0.266000000000000125,26.339747150816151589
0.267000000000000126,25.850460895787620075
0.268000000000000127,25.369637183938014147
0.269000000000000128,24.897177877532993051
0.270000000000000129,24.432983859293631923
0.271000000000000130,23.976955067043512315
0.272000000000000131,23.528990528226266576
0.273000000000000131,23.088988394976688312
0.274000000000000132,22.656845980322732004
0.275000000000000133,22.232459795995659135
0.276000000000000134,21.815725592231331120
0.277000000000000135,21.406538399859158517
0.278000000000000136,21.004792574894057822
0.279000000000000137,20.610381845773481757
0.280000000000000138,20.223199363315082167
0.281000000000000139,19.843137753409909152
0.282000000000000139,19.470089172413274525
0.283000000000000140,19.103945365147694702
0.284000000000000141,18.744597725391738408
0.285000000000000142,18.391937358693194682
0.286000000000000143,18.045855147315329248
0.287000000000000144,17.706241817100540459
0.288000000000000145,17.372988006015795293
0.289000000000000146,17.045984334129435922
0.290000000000000147,16.725121474757337126
0.291000000000000147,16.410290226509481215
0.292000000000000148,16.101381585963757459
0.293000000000000149,15.798286820693409283
0.294000000000000150,15.500897542376051774
0.295000000000000151,15.209105779716987072
0.296000000000000152,14.922804050925758901
0.297000000000000153,14.641885435493716017
0.298000000000000154,14.366243645029943110
0.299000000000000155,14.095773092924744674
0.300000000000000155,13.830368962621975015
0.301000000000000156,13.569927274295338293
0.302000000000000157,13.314344949737352053
0.303000000000000158,13.063519875284924865
0.304000000000000159,12.817350962619789456
0.305000000000000160,12.575738207297849414
0.306000000000000161,12.338582744876166686
0.307000000000000162,12.105786904521847802
0.308000000000000163,11.877254260001823383
0.309000000000000163,11.652889677967461779
0.310000000000000164,11.432599363462042419
0.311000000000000165,11.216290902593367917
0.312000000000000166,11.003873302326905304
0.313000000000000167,10.795257027368041491
0.314000000000000168,10.590354034114231041
0.315000000000000169,10.389077801669625245
0.316000000000000170,10.191343359925669532
0.317000000000000171,9.997067314721816089
0.318000000000000171,9.806167870110254370
0.319000000000000172,9.618564847757330227
0.320000000000000173,9.434179703523138727
0.321000000000000174,9.252935541268369590
0.322000000000000175,9.074757123944349857
0.323000000000000176,8.899570882029077978
0.324000000000000177,8.727304919377392167
0.325000000000000178,8.557889016558942075
0.326000000000000179,8.391254631761889016
0.327000000000000179,8.227334899344517893
0.328000000000000180,8.066064626120155623
0.329000000000000181,7.907380285463810665
0.330000000000000182,7.751220009331314387
0.331000000000000183,7.597523578283518653
0.332000000000000184,7.446232409609760516
0.333000000000000185,7.297289543645658405
0.334000000000000186,7.150639628380967672
0.335000000000000187,7.006228902453457863
0.336000000000000187,6.864005176624547566
0.337000000000000188,6.723917813832301249
0.338000000000000189,6.585917707916197017
0.339000000000000190,6.449957261107350348
0.340000000000000191,6.315990360376600776
0.341000000000000192,6.183972352731234245
0.342000000000000193,6.053860019549427207
0.343000000000000194,5.925611550039604936
0.344000000000000195,5.799186513910052909
0.345000000000000195,5.674545833331410272
0.346000000000000196,5.551651754272922901
0.347000000000000197,5.430467817290421273
0.348000000000000198,5.310958827841735008
0.349000000000000199,5.193090826202469756
0.350000000000000200,5.076831057052497265
0.351000000000000201,4.962147938800683278
0.352000000000000202,4.849011032712738256
0.353000000000000203,4.737391011904176885
0.354000000000000203,4.627259630257544387
0.355000000000000204,4.518589691320503476
0.356000000000000205,4.411355017238283160
0.357000000000000206,4.305530417771290530
0.358000000000000207,4.201091659446196225
0.359000000000000208,4.098015434885687647
0.360000000000000209,3.996279332359640168
0.361000000000000210,3.895861805597845340
0.362000000000000210,3.796742143901673749
0.363000000000000211,3.698900442589697857
0.364000000000000212,3.602317573809708851
0.365000000000000213,3.506975157747211913
0.366000000000000214,3.412855534258116386
0.367000000000000215,3.319941734951115997
0.368000000000000216,3.228217455742858899
0.369000000000000217,3.137667029907217575
0.370000000000000218,3.048275401637523974
0.371000000000000218,2.960028100138979212
0.372000000000000219,2.872911214266304025
0.373000000000000220,2.786911367719933530
0.374000000000000221,2.702015694812398117
0.375000000000000222,2.618211816814814519
0.376000000000000223,2.535487818891527745
0.377000000000000224,2.453832227629946239
0.378000000000000225,2.373233989170643987
0.379000000000000226,2.293682447941775226
0.380000000000000226,2.215167326000245129
0.381000000000000227,2.137678702981156142
0.382000000000000228,2.061206996655559287
0.383000000000000229,1.985742944095678642
0.384000000000000230,1.911277583445611272
0.385000000000000231,1.837802236294541203
0.386000000000000232,1.765308490648688222
0.387000000000000233,1.693788184497180271
0.388000000000000234,1.623233389966494356
0.389000000000000234,1.553636398057135271
0.390000000000000235,1.484989703955689633
0.391000000000000236,1.417285992914763870
0.392000000000000237,1.350518126692631826
0.393000000000000238,1.284679130544030601
0.394000000000000239,1.219762180753007241
0.395000000000000240,1.155760592698229061
0.396000000000000241,1.092667809440902138
0.397000000000000242,1.030477390825016659
0.398000000000000242,0.969183003079323813
0.399000000000000243,0.908778408910295044
0.400000000000000244,0.849257458074884952
0.401000000000000245,0.790614078421897126
0.402000000000000246,0.732842267390607427
0.403000000000000247,0.675936083954909117
0.404000000000000248,0.619889641001476144
0.405000000000000249,0.564697098130134356
0.406000000000000250,0.510352654864699828
0.407000000000000250,0.456850544262419223
0.408000000000000251,0.404185026910236722
0.409000000000000252,0.352350385296114788
0.410000000000000253,0.301340918543581249
0.411000000000000254,0.251150937497888416
0.412000000000000255,0.201774760152150595
0.413000000000000256,0.153206707401854825
0.414000000000000257,0.105441099116473896
0.415000000000000258,0.058472250516702483
0.416000000000000258,0.012294468846346589
0.417000000000000259,-0.033097949672320867
0.418000000000000260,-0.077710722610471558
0.419000000000000261,-0.121549583842694126
0.420000000000000262,-0.164620285805448158
0.421000000000000263,-0.206928601514453053
0.422000000000000264,-0.248480326351011443
0.423000000000000265,-0.289281279627346399
0.424000000000000266,-0.329337305940665181
0.425000000000000266,-0.368654276325406316
0.426000000000000267,-0.407238089213138532
0.427000000000000268,-0.445094671209121884
0.428000000000000269,-0.482229977694454970
0.429000000000000270,-0.518649993262537246
0.430000000000000271,-0.554360731998205791
0.431000000000000272,-0.589368237607908907
0.432000000000000273,-0.623678583408805665
0.433000000000000274,-0.657297872184667176
0.434000000000000274,-0.690232235916125481
0.435000000000000275,-0.722487835392577993
0.436000000000000276,-0.754070859712935970
0.437000000000000277,-0.784987525682061649
0.438000000000000278,-0.815244077109608112
0.439000000000000279,-0.844846784017733832
0.440000000000000280,-0.873801941763924672
0.441000000000000281,-0.902115870084956528
0.442000000000000282,-0.929794912067908874
0.443000000000000282,-0.956845433053699956
0.444000000000000283,-0.983273819478751365
0.445000000000000284,-1.009086477659833170
0.446000000000000285,-1.034289832527198749
0.447000000000000286,-1.058890326310868657
0.448000000000000287,-1.082894417184576019
0.449000000000000288,-1.106308577871984333
0.450000000000000289,-1.129139294219294376
0.451000000000000290,-1.151393063738420208
0.452000000000000290,-1.173076394124658917
0.453000000000000291,-1.194195801752503616
0.454000000000000292,-1.214757810153264561
0.455000000000000293,-1.234768948477876327
0.456000000000000294,-1.254235749948116041
0.457000000000000295,-1.273164750299408343
0.458000000000000296,-1.291562486218037931
0.459000000000000297,-1.309435493775708448
0.460000000000000298,-1.326790306863982805
0.461000000000000298,-1.343633455631215279
0.462000000000000299,-1.359971464924291329
0.463000000000000300,-1.375810852737444190
0.464000000000000301,-1.391158128670312966
0.465000000000000302,-1.406019792397180224
0.466000000000000303,-1.420402332149296232
0.467000000000000304,-1.434312223212115045
0.468000000000000305,-1.447755926438976104
0.469000000000000306,-1.460739886782880914
0.470000000000000306,-1.473270531847820308
0.471000000000000307,-1.485354270460873538
0.472000000000000308,-1.496997491266466529
0.473000000000000309,-1.508206561343883534
0.474000000000000310,-1.518987824849072243
0.475000000000000311,-1.529347601681778857
0.476000000000000312,-1.539292186178850663
0.477000000000000313,-1.548827845834597428
0.478000000000000314,-1.557960820048845729
0.479000000000000314,-1.566697318903472969
0.480000000000000315,-1.575043521967903093
0.481000000000000316,-1.583005577134204200
0.482000000000000317,-1.590589599482129746
0.483000000000000318,-1.597801670174631594
0.484000000000000319,-1.604647835384094723
0.485000000000000320,-1.611134105249611981
0.486000000000000321,-1.617266452865554482
0.487000000000000322,-1.623050813301608830
0.488000000000000322,-1.628493082654344448
0.489000000000000323,-1.633599117130548617
0.490000000000000324,-1.638374732162234171
0.491000000000000325,-1.642825701553375151
0.492000000000000326,-1.646957756658335326
0.493000000000000327,-1.650776585591937629
0.494000000000000328,-1.654287832470982877
0.495000000000000329,-1.657497096687193139
0.496000000000000330,-1.660409932211255324
0.497000000000000330,-1.663031846927969237
0.498000000000000331,-1.665368302001979828
0.499000000000000332,-1.667424711274138049
0.500000000000000333,-1.669206440688016269
0.501000000000000334,-1.670718807746280232
0.502000000000000335,-1.671967080996697774
0.503000000000000336,-1.672956479547317965
0.504000000000000337,-1.673692172610554696
0.505000000000000338,-1.674179279075694637
0.506000000000000338,-1.674422867109518265
0.507000000000000339,-1.674427953784577650
0.508000000000000340,-1.674199504734661614
0.509000000000000341,-1.673742433837157595
0.510000000000000342,-1.673061602921649182
0.511000000000000343,-1.672161821504499546
0.512000000000000344,-1.671047846548781024
0.513000000000000345,-1.669724382249183181
0.514000000000000346,-1.668196079841410606
0.515000000000000346,-1.666467537435496471
0.516000000000000347,-1.664543299872625948
0.517000000000000348,-1.662427858604960562
0.518000000000000349,-1.660125651597897045
0.519000000000000350,-1.657641063254358782
0.520000000000000351,-1.654978424360474154
0.521000000000000352,-1.652142012052324249
0.522000000000000353,-1.649136049803040294
0.523000000000000353,-1.645964707429896645
0.524000000000000354,-1.642632101120842902
0.525000000000000355,-1.639142293479938006
0.526000000000000356,-1.635499293591203385
0.527000000000000357,-1.631707057100424851
0.528000000000000358,-1.627769486314321057
0.529000000000000359,-1.623690430316687028
0.530000000000000360,-1.619473685100883742
0.531000000000000361,-1.615122993718316025
0.532000000000000361,-1.610642046442318787
0.533000000000000362,-1.606034480947003740
0.534000000000000363,-1.601303882500572318
0.535000000000000364,-1.596453784172657153
0.536000000000000365,-1.591487667055147215
0.537000000000000366,-1.586408960496138665
0.538000000000000367,-1.581221042346415029
0.539000000000000368,-1.575927239218177345
0.540000000000000369,-1.570530826755389908
0.541000000000000369,-1.565035029915489817
0.542000000000000370,-1.559443023261827932
0.543000000000000371,-1.553757931266603221
0.544000000000000372,-1.547982828623732043
0.545000000000000373,-1.542120740571323534
0.546000000000000374,-1.536174643223288783
0.547000000000000375,-1.530147463909730776
0.548000000000000376,-1.524042081525711634
0.549000000000000377,-1.517861326887986806
0.550000000000000377,-1.511607983099380714
0.551000000000000378,-1.505284785920336876
0.552000000000000379,-1.498894424147410032
0.553000000000000380,-1.492439539998225984
0.554000000000000381,-1.485922729502591633
0.555000000000000382,-1.479346542899500294
0.556000000000000383,-1.472713485039513603
0.557000000000000384,-1.466026015792416981
0.558000000000000385,-1.459286550459609311
0.559000000000000385,-1.452497460191081613
0.560000000000000386,-1.445661072406599690
0.561000000000000387,-1.438779671220790535
0.562000000000000388,-1.431855497871850513
0.563000000000000389,-1.424890751153637058
0.564000000000000390,-1.417887587850775066
0.565000000000000391,-1.410848123176586588
0.566000000000000392,-1.403774431213528739
0.567000000000000393,-1.396668545355947533
0.568000000000000393,-1.389532458754799027
0.569000000000000394,-1.382368124764180362
0.570000000000000395,-1.375177457389429536
0.571000000000000396,-1.367962331736466641
0.572000000000000397,-1.360724584462317477
0.573000000000000398,-1.353466014226433867
0.574000000000000399,-1.346188382142731843
0.575000000000000400,-1.338893412232049940
0.576000000000000401,-1.331582791874879490
0.577000000000000401,-1.324258172264203059
0.578000000000000402,-1.316921168858158797
0.579000000000000403,-1.309573361832423233
0.580000000000000404,-1.302216296532176631
0.581000000000000405,-1.294851483923340707
0.582000000000000406,-1.287480401043106681
0.583000000000000407,-1.280104491449424842
0.584000000000000408,-1.272725165669443825
0.585000000000000409,-1.265343801646665378
0.586000000000000409,-1.257961745186695568
0.587000000000000410,-1.250580310401497197
0.588000000000000411,-1.243200780151921148
0.589000000000000412,-1.235824406488523097
0.590000000000000413,-1.228452411090394047
0.591000000000000414,-1.221085985702004439
0.592000000000000415,-1.213726292567923526
0.593000000000000416,-1.206374464865245910
0.594000000000000417,-1.199031607133686617
0.595000000000000417,-1.191698795703290514
0.596000000000000418,-1.184377079119474985
0.597000000000000419,-1.177067478565583247
0.598000000000000420,-1.169770988282605062
0.599000000000000421,-1.162488575986179162
0.600000000000000422,-1.155221183280680464
0.601000000000000423,-1.147969726070358742
0.602000000000000424,-1.140735094967479046
0.603000000000000425,-1.133518155697369689
0.604000000000000425,-1.126319749500298784
0.605000000000000426,-1.119140693530160657
0.606000000000000427,-1.111981781249935519
0.607000000000000428,-1.104843782823714093
0.608000000000000429,-1.097727445505525701
0.609000000000000430,-1.090633494024577876
0.610000000000000431,-1.083562630967175977
0.611000000000000432,-1.076515537155070090
0.612000000000000433,-1.069492872020268992
0.613000000000000433,-1.062495273976322929
0.614000000000000434,-1.055523360785975084
