# hydroxyapatite-001-ph10_PENTANE
# h[nm],U(h)[kJ/mol]
0.149999999999999994,141.325141923285343637
0.150999999999999995,140.792669177938307712
0.151999999999999996,139.384360163774573493
0.152999999999999997,137.698228510966117710
0.153999999999999998,135.992861680869907559
0.154999999999999999,134.355353521364691005
0.156000000000000000,132.795489405232103763
0.157000000000000001,131.295485466362890747
0.158000000000000002,129.833852796962844423
0.159000000000000002,128.394908341580759270
0.160000000000000003,126.970887130780482721
0.161000000000000004,125.560701224193621783
0.162000000000000005,124.167576580678499454
0.163000000000000006,122.796698755765078204
0.164000000000000007,121.453355746420427863
0.165000000000000008,120.141711236407871866
0.166000000000000009,118.864162212141508235
0.167000000000000010,117.621159208413359920
0.168000000000000010,116.411349537218100636
0.169000000000000011,115.231915469445510780
0.170000000000000012,114.079003597034514428
0.171000000000000013,112.948168920955069439
0.172000000000000014,111.834782574098738905
0.173000000000000015,110.734373253260201864
0.174000000000000016,109.642888761932383090
0.175000000000000017,108.556875784386946293
0.176000000000000018,107.473583762788933882
0.177000000000000018,106.391003316727477568
0.178000000000000019,105.307851803722471118
0.179000000000000020,104.223519060030554328
0.180000000000000021,103.137985657147055463
0.181000000000000022,102.051724613228458338
0.182000000000000023,100.965595750551614174
0.183000000000000024,99.880740033888017138
0.184000000000000025,98.798479425244138952
0.185000000000000026,97.720226150974980328
0.186000000000000026,96.647403854479236429
0.187000000000000027,95.581381924569484454
0.188000000000000028,94.523423346046655524
0.189000000000000029,93.474645699852231928
0.190000000000000030,92.435994421469644067
0.191000000000000031,91.408227079730721698
0.192000000000000032,90.391907234462934184
0.193000000000000033,89.387406342079572141
0.194000000000000034,88.394912177178184720
0.195000000000000034,87.414442302405817031
0.196000000000000035,86.445861228551891031
0.197000000000000036,85.488900045667861605
0.198000000000000037,84.543177460778309751
0.199000000000000038,83.608221338123627220
0.200000000000000039,82.683489996061581451
0.201000000000000040,81.768392665125787744
0.202000000000000041,80.862308650460860804
0.203000000000000042,79.964604866560279106
0.204000000000000042,79.074651521707835400
0.205000000000000043,78.191835823450475118
0.206000000000000044,77.315573655143751353
0.207000000000000045,76.445319237922745970
0.208000000000000046,75.580572843485640533
0.209000000000000047,74.720886662142774526
0.210000000000000048,73.865868959090022372
0.211000000000000049,73.015186671227439774
0.212000000000000050,72.168566608449310706
0.213000000000000050,71.325795428485875505
0.214000000000000051,70.486718554287648431
0.215000000000000052,69.651238198698209203
0.216000000000000053,68.819310653733708705
0.217000000000000054,67.990942992012179502
0.218000000000000055,67.166189316485741756
0.219000000000000056,66.345146682225617951
0.220000000000000057,65.527950801102704759
0.221000000000000058,64.714771627204044080
0.222000000000000058,63.905808908048243211
0.223000000000000059,63.101287774367769146
0.224000000000000060,62.301454429590833684
0.225000000000000061,61.506571989315830251
0.226000000000000062,60.716916511109594978
0.227000000000000063,59.932773245922724925
0.228000000000000064,59.154433134319276633
0.229000000000000065,58.382189563549900413
0.230000000000000066,57.616335395236333738
0.231000000000000066,56.857160268031790906
0.232000000000000067,56.104948175029200286
0.233000000000000068,55.359975311845140311
0.234000000000000069,54.622508188150291630
0.235000000000000070,53.892801992881835815
0.236000000000000071,53.171099201394881106
0.237000000000000072,52.457628411324741080
0.238000000000000073,51.752603392879734656
0.239000000000000073,51.056222338608215239
0.240000000000000074,50.368667297326233268
0.241000000000000075,49.690103776810630620
0.242000000000000076,49.020680500004061741
0.243000000000000077,48.360529299807474501
0.244000000000000078,47.709765138013260355
0.245000000000000079,47.068486234526240253
0.246000000000000080,46.436774293701475358
0.247000000000000081,45.814694815373059100
0.248000000000000081,45.202297478934127639
0.249000000000000082,44.599616589638756636
0.250000000000000111,44.006671577114218508
0.251000000000000112,43.423467536884984952
0.252000000000000113,42.849995806508232477
0.253000000000000114,42.286234568695810765
0.254000000000000115,41.732149474541628820
0.255000000000000115,41.187694280684112869
0.256000000000000116,40.652811494905009226
0.257000000000000117,40.127433025296127767
0.258000000000000118,39.611480828715883717
0.259000000000000119,39.104867554802510199
0.260000000000000120,38.607497182315739792
0.261000000000000121,38.119265645040670165
0.262000000000000122,37.640061444909562738
0.263000000000000123,37.169766250380071426
0.264000000000000123,36.708255478454212550
0.265000000000000124,36.255398859033135750
0.266000000000000125,35.811060980579824786
0.267000000000000126,35.375101816308998082
0.268000000000000127,34.947377230340670451
0.269000000000000128,34.527739463446266655
0.270000000000000129,34.116037598182202828
0.271000000000000130,33.712118003351406514
0.272000000000000131,33.315824757857839700
0.273000000000000131,32.927000054125173278
0.274000000000000132,32.545484581340929253
0.275000000000000133,32.171117888862610812
0.276000000000000134,31.803738730184115013
0.277000000000000135,31.443185387911615436
0.278000000000000136,31.089295980237483974
0.279000000000000137,30.741908749432617753
0.280000000000000138,30.400862332900270957
0.281000000000000139,30.065996017351089620
0.282000000000000139,29.737149976669467577
0.283000000000000140,29.414165494046805804
0.284000000000000141,29.096885168958642964
0.285000000000000142,28.785153109559949769
0.286000000000000143,28.478815111067916632
0.287000000000000144,28.177718820693382185
0.288000000000000145,27.881713889672617768
0.289000000000000146,27.590652112939729079
0.290000000000000147,27.304387556967327555
0.291000000000000147,27.022776676289801401
0.292000000000000148,26.745678419209252041
0.293000000000000149,26.472954323169886948
0.294000000000000150,26.204468600271646039
0.295000000000000151,25.940088213379091542
0.296000000000000152,25.679682943266858075
0.297000000000000153,25.423125447228198226
0.298000000000000154,25.170291309558773918
0.299000000000000155,24.921059084313689880
0.300000000000000155,24.675310330721980989
0.301000000000000156,24.432929641629471007
0.302000000000000157,24.193804665327569126
0.303000000000000158,23.957826121113416917
0.304000000000000159,23.724887808914267850
0.305000000000000160,23.494886613297321531
0.306000000000000161,23.267722502175072208
0.307000000000000162,23.043298520504933435
0.308000000000000163,22.821520779271640578
0.309000000000000163,22.602298440030754278
0.310000000000000164,22.385543695281512555
0.311000000000000165,22.171171744928152236
0.312000000000000166,21.959100769079419990
0.313000000000000167,21.749251897427289038
0.314000000000000168,21.541549175437289421
0.315000000000000169,21.335919527574628063
0.316000000000000170,21.132292717782100056
0.317000000000000171,20.930601307418271517
0.318000000000000171,20.730780610856523793
0.319000000000000172,20.532768648938450440
0.320000000000000173,20.336506100467691027
0.321000000000000174,20.141936251923517887
0.322000000000000175,19.949004945566560565
0.323000000000000176,19.757660526102284848
0.324000000000000177,19.567853786061611743
0.325000000000000178,19.379537910051450211
0.326000000000000179,19.192668418021764154
0.327000000000000179,19.007203107689853994
0.328000000000000180,18.823101996256273338
0.329000000000000181,18.640327261541372650
0.330000000000000182,18.458843182665290783
0.331000000000000183,18.278616080388978560
0.332000000000000184,18.099614257228221703
0.333000000000000185,17.921807937447276515
0.334000000000000186,17.745169207033491432
0.335000000000000187,17.569671953749079307
0.336000000000000187,17.395291807351373592
0.337000000000000188,17.222006080067842504
0.338000000000000189,17.049793707407310706
0.339000000000000190,16.878635189384294080
0.340000000000000191,16.708512532228716907
0.341000000000000192,16.539409190648850512
0.342000000000000193,16.371310010710903526
0.343000000000000194,16.204201173394551461
0.344000000000000195,16.038070138879678694
0.345000000000000195,15.872905591615388943
0.346000000000000196,15.708697386218641867
0.347000000000000197,15.545436494246128944
0.348000000000000198,15.383114951879338861
0.349000000000000199,15.221725808559105175
0.350000000000000200,15.061263076602861233
0.351000000000000201,14.901721681834223077
0.352000000000000202,14.743097415251508409
0.353000000000000203,14.585386885758868658
0.354000000000000203,14.428587473980423184
0.355000000000000204,14.272697287175489578
0.356000000000000205,14.117715115269854564
0.357000000000000206,13.963640388015653215
0.358000000000000207,13.810473133289963954
0.359000000000000208,13.658213936539846500
0.360000000000000209,13.506863901379213999
0.361000000000000210,13.356424611340978359
0.362000000000000210,13.206898092785641197
0.363000000000000211,13.058286778965793928
0.364000000000000212,12.910593475243988593
0.365000000000000213,12.763821325459844047
0.366000000000000214,12.617973779440559312
0.367000000000000215,12.473054561647476390
0.368000000000000216,12.329067640949839202
0.369000000000000217,12.186017201515785047
0.370000000000000218,12.043907614808947670
0.371000000000000218,11.902743412678365331
0.372000000000000219,11.762529261527779667
0.373000000000000220,11.623269937549849828
0.374000000000000221,11.484970303009614412
0.375000000000000222,11.347635283560851605
0.376000000000000223,11.211269846577945231
0.377000000000000224,11.075878980485535763
0.378000000000000225,10.941467675067260146
0.379000000000000226,10.808040902734536104
0.380000000000000226,10.675603600735652066
0.381000000000000227,10.544160654285146705
0.382000000000000228,10.413716880592989611
0.383000000000000229,10.284277013772697984
0.384000000000000230,10.155845690607344878
0.385000000000000231,10.028427437152046764
0.386000000000000232,9.902026656151559081
0.387000000000000233,9.776647615251105705
0.388000000000000234,9.652294435978923559
0.389000000000000234,9.528971083478552373
0.390000000000000235,9.406681356969103902
0.391000000000000236,9.285428880911776872
0.392000000000000237,9.165217096860736490
0.393000000000000238,9.046049255976859271
0.394000000000000239,8.927928412182703610
0.395000000000000240,8.810857415937345394
0.396000000000000241,8.694838908609934691
0.397000000000000242,8.579875317430841974
0.398000000000000242,8.465968850999713524
0.399000000000000243,8.353121495329867585
0.400000000000000244,8.241335010408674222
0.401000000000000245,8.130610927254002362
0.402000000000000246,8.020950545447080415
0.403000000000000247,7.912354931122169255
0.404000000000000248,7.804824915394243945
0.405000000000000249,7.698361093205768668
0.406000000000000250,7.592963822574330557
0.407000000000000250,7.488633224222994045
0.408000000000000251,7.385369181575806685
0.409000000000000252,7.283171341101213336
0.410000000000000253,7.182039112986378093
0.411000000000000254,7.081971672126028849
0.412000000000000255,6.982967959409688952
0.413000000000000256,6.885026683291513905
0.414000000000000257,6.788146321627559487
0.415000000000000258,6.692325123765352934
0.416000000000000258,6.597561112871536793
0.417000000000000259,6.503852088483183636
0.418000000000000260,6.411195629269313301
0.419000000000000261,6.319589095989096350
0.420000000000000262,6.229029634634020596
0.421000000000000263,6.139514179741317079
0.422000000000000264,6.051039457866704829
0.423000000000000265,5.963601991204554587
0.424000000000000266,5.877198101344231596
0.425000000000000266,5.791823913151620040
0.426000000000000267,5.707475358765207396
0.427000000000000268,5.624148181696569715
0.428000000000000269,5.541837941025365311
0.429000000000000270,5.460540015679377746
0.430000000000000271,5.380249608790469651
0.431000000000000272,5.300961752117640202
0.432000000000000273,5.222671310528824939
0.433000000000000274,5.145372986533264914
0.434000000000000274,5.069061324856710016
0.435000000000000275,4.993730717052047297
0.436000000000000276,4.919375406138186690
0.437000000000000277,4.845989491260402460
0.438000000000000278,4.773566932365661764
0.439000000000000279,4.702101554886702672
0.440000000000000280,4.631587054428909056
0.441000000000000281,4.562017001454459653
0.442000000000000282,4.493384845958227736
0.443000000000000282,4.425683922130506431
0.444000000000000283,4.358907453001607202
0.445000000000000284,4.293048555063835536
0.446000000000000285,4.228100242866469571
0.447000000000000286,4.164055433579656906
0.448000000000000287,4.100906951523415778
0.449000000000000288,4.038647532658057315
0.450000000000000289,3.977269829032658688
0.451000000000000290,3.916766413188386586
0.452000000000000290,3.857129782513620597
0.453000000000000291,3.798352363548191057
0.454000000000000292,3.740426516234032217
0.455000000000000293,3.683344538109869060
0.456000000000000294,3.627098668447716445
0.457000000000000295,3.571681092329095808
0.458000000000000296,3.517083944659099792
0.459000000000000297,3.463299314116548011
0.460000000000000298,3.410319247038641866
0.461000000000000298,3.358135751238714217
0.462000000000000299,3.306740799755746529
0.463000000000000300,3.256126334534537925
0.464000000000000301,3.206284270035429707
0.465000000000000302,3.157206496772791304
0.466000000000000303,3.108884884781413227
0.467000000000000304,3.061311287010107574
0.468000000000000305,3.014477542642129748
0.469000000000000306,2.968375480341779671
0.470000000000000306,2.922996921426944894
0.471000000000000307,2.878333682967338270
0.472000000000000308,2.834377580808253860
0.473000000000000309,2.791120432519710093
0.474000000000000310,2.748554060271144017
0.475000000000000311,2.706670293631553648
0.476000000000000312,2.665460972295478292
0.477000000000000313,2.624917948734795115
0.478000000000000314,2.585033090776904796
0.479000000000000314,2.545798284109456411
0.480000000000000315,2.507205434712172387
0.481000000000000316,2.469246471216201222
0.482000000000000317,2.431913347191549057
0.483000000000000318,2.395198043363181206
0.484000000000000319,2.359092569756398916
0.485000000000000320,2.323588967772246328
0.486000000000000321,2.288679312193562687
0.487000000000000322,2.254355713122486282
0.488000000000000322,2.220610317850260973
0.489000000000000323,2.187435312660042541
0.490000000000000324,2.154822924563664088
0.491000000000000325,2.122765422973209137
0.492000000000000326,2.091255121308289944
0.493000000000000327,2.060284378539972927
0.494000000000000328,2.029845600672311345
0.495000000000000329,1.999931242162433120
0.496000000000000330,1.970533807280223870
0.497000000000000330,1.941645851408499990
0.498000000000000331,1.913259982284873262
0.499000000000000332,1.885368861186129452
0.500000000000000333,1.857965204056287067
0.501000000000000334,1.831041782579392985
0.502000000000000335,1.804591425198012855
0.503000000000000336,1.778607018078586233
0.504000000000000337,1.753081506024622982
0.505000000000000338,1.728007893338869838
0.506000000000000338,1.703379244635495837
0.507000000000000339,1.679188685603335340
0.508000000000000340,1.655429403721343506
0.509000000000000341,1.632094648927203462
0.510000000000000342,1.609177734240298419
0.511000000000000343,1.586672036339968006
0.512000000000000344,1.564570996100226319
0.513000000000000345,1.542868119081923339
0.514000000000000346,1.521556975983385573
0.515000000000000346,1.500631203050645235
0.516000000000000347,1.480084502448228978
0.517000000000000348,1.459910642591536911
0.518000000000000349,1.440103458441856388
0.519000000000000350,1.420656851764962258
0.520000000000000351,1.401564791354398931
0.521000000000000352,1.382821313220264026
0.522000000000000353,1.364420520744673349
0.523000000000000353,1.346356584804670797
0.524000000000000354,1.328623743863683648
0.525000000000000355,1.311216304032370106
0.526000000000000356,1.294128639099848987
0.527000000000000357,1.277355190536168639
0.528000000000000358,1.260890467466959652
0.529000000000000359,1.244729046621110502
0.530000000000000360,1.228865572252430871
0.531000000000000361,1.213294756036046085
0.532000000000000361,1.198011376940451012
0.533000000000000362,1.183010281076021686
0.534000000000000363,1.168286381520845740
0.535000000000000364,1.153834658124579748
0.536000000000000365,1.139650157291257626
0.537000000000000366,1.125727991741697354
0.538000000000000367,1.112063340256383537
0.539000000000000368,1.098651447399449754
0.540000000000000369,1.085487623224620002
0.541000000000000369,1.072567242963699652
0.542000000000000370,1.059885746698470133
0.543000000000000371,1.047438639016509132
0.544000000000000372,1.035221488651751454
0.545000000000000373,1.023229928110360731
0.546000000000000374,1.011459653282604787
0.547000000000000375,0.999906423041358572
0.548000000000000376,0.988566058827833105
0.549000000000000377,0.977434444225176002
0.550000000000000377,0.966507524520444861
0.551000000000000378,0.955781306255690799
0.552000000000000379,0.945251856768506427
0.553000000000000380,0.934915303722776203
0.554000000000000381,0.924767834630067731
0.555000000000000382,0.914805696362148923
0.556000000000000383,0.905025194655296294
0.557000000000000384,0.895422693606674036
0.558000000000000385,0.885994615163482768
0.559000000000000385,0.876737438605193042
0.560000000000000386,0.867647700019367640
0.561000000000000387,0.858721991771566606
0.562000000000000388,0.849956961969726366
0.563000000000000389,0.841349313923378972
0.564000000000000390,0.832895805598259598
0.565000000000000391,0.824593249066562395
0.566000000000000392,0.816438509953328007
0.567000000000000393,0.808428506879256936
0.568000000000000393,0.800560210900393754
0.569000000000000394,0.792830644944984342
0.570000000000000395,0.785236883247839357
0.571000000000000396,0.777776050782605255
0.572000000000000397,0.770445322692151047
0.573000000000000398,0.763241923717510318
0.574000000000000399,0.756163127625566256
0.575000000000000400,0.749206256635855938
0.576000000000000401,0.742368680846736462
0.577000000000000401,0.735647817661155612
0.578000000000000402,0.729041131212362914
0.579000000000000403,0.722546131789780666
0.580000000000000404,0.716160375265217364
0.581000000000000405,0.709881462519804107
0.582000000000000406,0.703707038871709933
0.583000000000000407,0.697634793505009787
0.584000000000000408,0.691662458899807375
0.585000000000000409,0.685787810263866482
0.586000000000000409,0.680008664965957577
0.587000000000000410,0.674322881971037624
0.588000000000000411,0.668728361277563743
0.589000000000000412,0.663223043356959474
0.590000000000000413,0.657804908595557514
0.591000000000000414,0.652471976739063209
0.592000000000000415,0.647222306339724218
0.593000000000000416,0.642053994206392309
0.594000000000000417,0.636965174857571315
0.595000000000000417,0.631954019977549408
0.596000000000000418,0.627018737875879806
0.597000000000000419,0.622157572950147175
0.598000000000000420,0.617368805152297639
0.599000000000000421,0.612650749458520938
0.600000000000000422,0.608001755342862715
0.601000000000000423,0.603420206254658975
0.602000000000000424,0.598904519099825450
0.603000000000000425,0.594453143726149769
0.604000000000000425,0.590064562412681459
0.605000000000000426,0.585737289363230107
0.606000000000000427,0.581469870204079031
0.607000000000000428,0.577260881486057920
0.608000000000000429,0.573108930190852517
0.609000000000000430,0.569012653241857236
0.610000000000000431,0.564970717019391611
0.611000000000000432,0.560981816880497641
0.612000000000000433,0.557044676683305373
0.613000000000000433,0.553158048315981365
0.614000000000000434,0.549320711230359193
0.615000000000000435,0.545531471980252647
0.616000000000000436,0.541789163764527237
0.617000000000000437,0.538092645974851402
