# hydroxyapatite-001-ph10_TANNIC-CENTRAL-AC
# h[nm],U(h)[kJ/mol]
0.149999999999999994,149.317969935984365293
0.150999999999999995,148.040919497033911512
0.151999999999999996,146.104286604915955650
0.152999999999999997,143.983001452707952694
0.153999999999999998,141.877623852522447123
0.154999999999999999,139.850115048043420529
0.156000000000000000,137.900722915415201442
0.157000000000000001,136.008877663037139882
0.158000000000000002,134.152844723976585328
0.159000000000000002,132.317435328636008762
0.160000000000000003,130.495484330197342615
0.161000000000000004,128.686475560209174773
0.162000000000000005,126.894214656852369671
0.163000000000000006,125.124533100793627227
0.164000000000000007,123.383460115520165346
0.165000000000000008,121.675988931020782502
0.166000000000000009,120.005402066462991684
0.167000000000000010,118.373048211236692850
0.168000000000000010,116.778442964445503094
0.169000000000000011,115.219573007814318544
0.170000000000000012,113.693303384662769417
0.171000000000000013,112.195811679787624371
0.172000000000000014,110.722996208402690854
0.173000000000000015,109.270825455513801217
0.174000000000000016,107.835612078154738924
0.175000000000000017,106.414206762378967142
0.176000000000000018,105.004115531281129847
0.177000000000000018,103.603549339601570978
0.178000000000000019,102.211417618359817538
0.179000000000000020,100.827278463738181813
0.180000000000000021,99.451257932290829444
0.181000000000000022,98.083949848809410810
0.182000000000000023,96.726305998840587108
0.183000000000000024,95.379524824126676208
0.184000000000000025,94.044944951891594087
0.185000000000000026,92.723948193483963109
0.186000000000000026,91.417875122551279787
0.187000000000000027,90.127955029716417812
0.188000000000000028,88.855250965356617598
0.189000000000000029,87.600619721800512707
0.190000000000000030,86.364685956195259564
0.191000000000000031,85.147829193292523087
0.192000000000000032,83.950182147654345499
0.193000000000000033,82.771638640391699937
0.194000000000000034,81.611869330374503306
0.195000000000000034,80.470343509608341037
0.196000000000000035,79.346355305444262740
0.197000000000000036,78.239052769637680740
0.198000000000000037,77.147468500120027102
0.199000000000000038,76.070550622664384832
0.200000000000000039,75.007193146041643672
0.201000000000000040,73.956264887767744654
0.202000000000000041,72.916636342209727673
0.203000000000000042,71.887204024485953369
0.204000000000000042,70.866911969567723872
0.205000000000000043,69.854770194769770342
0.206000000000000044,68.849870044851897433
0.207000000000000045,67.851396432419264215
0.208000000000000046,66.858637062922966265
0.209000000000000047,65.870988794422743240
0.210000000000000048,64.887961328735002553
0.211000000000000049,63.909178464147430532
0.212000000000000050,62.934377162100417991
0.213000000000000050,61.963404692674338037
0.214000000000000051,60.996214127891789758
0.215000000000000052,60.032858449170930726
0.216000000000000053,59.073483527071438459
0.217000000000000054,58.118320218952888467
0.218000000000000055,57.167675814389099287
0.219000000000000056,56.221925040088912340
0.220000000000000057,55.281500816472700421
0.221000000000000058,54.346884937643338276
0.222000000000000058,53.418598825834592958
0.223000000000000059,52.497194491005508610
0.224000000000000060,51.583245806439869341
0.225000000000000061,50.677340192312307465
0.226000000000000062,49.780070781405335367
0.227000000000000063,48.892029124668844986
0.228000000000000064,48.013798479201398095
0.229000000000000065,47.145947707556189243
0.230000000000000066,46.289025805052318674
0.231000000000000066,45.443557060985753537
0.232000000000000067,44.610036850247148266
0.233000000000000068,43.788928043804034473
0.234000000000000069,42.980658019721055041
0.235000000000000070,42.185616250788832815
0.236000000000000071,41.404152440320302730
0.237000000000000072,40.636575174157471224
0.238000000000000073,39.883151054317103501
0.239000000000000073,39.144104277897085353
0.240000000000000074,38.419616623769698549
0.241000000000000075,37.709827809121193809
0.242000000000000076,37.014836177968852837
0.243000000000000077,36.334699684320852953
0.244000000000000078,35.669437133567740261
0.245000000000000079,35.019029646935983635
0.246000000000000080,34.383422315337405450
0.247000000000000081,33.762526010650937280
0.248000000000000081,33.156219324331338782
0.249000000000000082,32.564350605204076317
0.250000000000000111,31.986740070339614306
0.251000000000000112,31.423181964968808444
0.252000000000000113,30.873446749474858564
0.253000000000000114,30.337283293551525531
0.254000000000000115,29.814421059629989230
0.255000000000000115,29.304572259631356701
0.256000000000000116,28.807433970983595373
0.257000000000000117,28.322690199639964703
0.258000000000000118,27.850013879541922535
0.259000000000000119,27.389068799576808289
0.260000000000000120,26.939511450585321484
0.261000000000000121,26.500992786373842591
0.262000000000000122,26.073159893980221824
0.263000000000000123,25.655657569631085124
0.264000000000000123,25.248129797912937988
0.265000000000000124,24.850221132663687484
0.266000000000000125,24.461577978976890790
0.267000000000000126,24.081849776502881610
0.268000000000000127,23.710690084932451782
0.269000000000000128,23.347757573166326495
0.270000000000000129,22.992716914209545109
0.271000000000000130,22.645239588291111943
0.272000000000000131,22.305004597100960950
0.273000000000000131,21.971699092361550498
0.274000000000000132,21.645018922218202562
0.275000000000000133,21.324669099142635531
0.276000000000000134,21.010364193205454342
0.277000000000000135,20.701828654688316789
0.278000000000000136,20.398797070080782134
0.279000000000000137,20.101014355543750156
0.280000000000000138,19.808235891926518235
0.281000000000000139,19.520227605399188775
0.282000000000000139,19.236765997712826248
0.283000000000000140,18.957638130027238077
0.284000000000000141,18.682641564155385794
0.285000000000000142,18.411584264966279534
0.286000000000000143,18.144284467567178609
0.287000000000000144,17.880570512754733414
0.288000000000000145,17.620280654083273930
0.289000000000000146,17.363262839751932631
0.290000000000000147,17.109374472358812369
0.291000000000000147,16.858482149415188189
0.292000000000000148,16.610461387354462204
0.293000000000000149,16.365196331612221314
0.294000000000000150,16.122579455195570119
0.295000000000000151,15.882511248003485349
0.296000000000000152,15.644899899005405786
0.297000000000000153,15.409660973234679204
0.298000000000000154,15.176717085405396546
0.299000000000000155,14.945997571818759653
0.300000000000000155,14.717438162085993980
0.301000000000000156,14.490980652062276590
0.302000000000000157,14.266572579257296383
0.303000000000000158,14.044166901866390162
0.304000000000000159,13.823721682449013670
0.305000000000000160,13.605199777170522424
0.306000000000000161,13.388568531418224339
0.307000000000000162,13.173799482503193659
0.308000000000000163,12.960868070066249302
0.309000000000000163,12.749753354718418308
0.310000000000000164,12.540437745364496180
0.311000000000000165,12.332906735581428137
0.312000000000000166,12.127148649352294640
0.313000000000000167,11.923154396390614806
0.314000000000000168,11.720917237228750452
0.315000000000000169,11.520432558188057115
0.316000000000000170,11.321697656297024182
0.317000000000000171,11.124711534176677574
0.318000000000000171,10.929474704869795332
0.319000000000000172,10.735989006551625025
0.320000000000000173,10.544257427025188534
0.321000000000000174,10.354283937872876820
0.322000000000000175,10.166073338108233770
0.323000000000000176,9.979631107147342917
0.324000000000000177,9.794963266897521947
0.325000000000000178,9.612076252742578930
0.326000000000000179,9.430976793187463514
0.327000000000000179,9.251671797911861006
0.328000000000000180,9.074168253970736231
0.329000000000000181,8.898473129870778209
0.330000000000000182,8.724593287244337247
0.331000000000000183,8.552535399837065455
0.332000000000000184,8.382305879521663172
0.333000000000000185,8.213910809047877848
0.334000000000000186,8.047355881237901798
0.335000000000000187,7.882646344336782462
0.336000000000000187,7.719786953228772397
0.337000000000000188,7.558781926233218762
0.338000000000000189,7.399634907196836586
0.339000000000000190,7.242348932603308143
0.340000000000000191,7.086926403426438981
0.341000000000000192,6.933369061458219740
0.342000000000000193,6.781677969849380538
0.343000000000000194,6.631853497606590153
0.344000000000000195,6.483895307797527430
0.345000000000000195,6.337802349221834497
0.346000000000000196,6.193572851314169903
0.347000000000000197,6.051204322052758933
0.348000000000000198,5.910693548655126861
0.349000000000000199,5.772036600850540822
0.350000000000000200,5.635228836526867902
0.351000000000000201,5.500264909557672333
0.352000000000000202,5.367138779623593869
0.353000000000000203,5.235843723850069686
0.354000000000000203,5.106372350091495704
0.355000000000000204,4.978716611700110484
0.356000000000000205,4.852867823625489407
0.357000000000000206,4.728816679698281789
0.358000000000000207,4.606553270959746094
0.359000000000000208,4.486067104905646197
0.360000000000000209,4.367347125520495865
0.361000000000000210,4.250381733985400423
0.362000000000000210,4.135158809949233572
0.363000000000000211,4.021665733259948361
0.364000000000000212,3.909889406059007033
0.365000000000000213,3.799816275148322653
0.366000000000000214,3.691432354545111760
0.367000000000000215,3.584723248145881946
0.368000000000000216,3.479674172426247658
0.369000000000000217,3.376269979108959429
0.370000000000000218,3.274495177737317242
0.371000000000000218,3.174333958096398955
0.372000000000000219,3.075770212429041806
0.373000000000000220,2.978787557398102415
0.374000000000000221,2.883369355750877272
0.375000000000000222,2.789498737645703663
0.376000000000000223,2.697158621604278661
0.377000000000000224,2.606331735057555665
0.378000000000000225,2.517000634455976549
0.379000000000000226,2.429147724918580220
0.380000000000000226,2.342755279398220924
0.381000000000000227,2.257805457343536215
0.382000000000000228,2.174280322840689728
0.383000000000000229,2.092161862220770274
0.384000000000000230,2.011432001121092661
0.385000000000000231,1.932072620990896938
0.386000000000000232,1.854065575034250957
0.387000000000000233,1.777392703584683264
0.388000000000000234,1.702035848908298288
0.389000000000000234,1.627976869433519935
0.390000000000000235,1.555197653407405234
0.391000000000000236,1.483680131979950856
0.392000000000000237,1.413406291719069063
0.393000000000000238,1.344358186560260959
0.394000000000000239,1.276517949196191326
0.395000000000000240,1.209867801912285046
0.396000000000000241,1.144390066875578871
0.397000000000000242,1.080067175884833031
0.398000000000000242,1.016881679590692311
0.399000000000000243,0.954816256195480384
0.400000000000000244,0.893853719642667466
0.401000000000000245,0.833977027306729291
0.402000000000000246,0.775169287194679368
0.403000000000000247,0.717413764670638110
0.404000000000000248,0.660693888715613742
0.405000000000000249,0.604993257734605439
0.406000000000000250,0.550295644923607830
0.407000000000000250,0.496585003209176201
0.408000000000000251,0.443845469773440360
0.409000000000000252,0.392061370177536728
0.410000000000000253,0.341217222096480366
0.411000000000000254,0.291297738678591212
0.412000000000000255,0.242287831542568804
0.413000000000000256,0.194172613425179053
0.414000000000000257,0.146937400492698350
0.415000000000000258,0.100567714328849228
0.416000000000000258,0.055049283612187382
0.417000000000000259,0.010368045495478262
0.418000000000000260,-0.033489853300327034
0.419000000000000261,-0.076538055665277424
0.420000000000000262,-0.118789993540481698
0.421000000000000263,-0.160258887607265310
0.422000000000000264,-0.200957747213495436
0.423000000000000265,-0.240899370525723272
0.424000000000000266,-0.280096344895826244
0.425000000000000266,-0.318561047431068001
0.426000000000000267,-0.356305645756907929
0.427000000000000268,-0.393342098961986575
0.428000000000000269,-0.429682158715060603
0.429000000000000270,-0.465337370543945972
0.430000000000000271,-0.500319075266713265
0.431000000000000272,-0.534638410565818512
0.432000000000000273,-0.568306312695908256
0.433000000000000274,-0.601333518316529370
0.434000000000000274,-0.633730566441146892
0.435000000000000275,-0.665507800494118840
0.436000000000000276,-0.696675370467679245
0.437000000000000277,-0.727243235171123992
0.438000000000000278,-0.757221164564753635
0.439000000000000279,-0.786618742171378726
0.440000000000000280,-0.815445367558441658
0.441000000000000281,-0.843710258884072695
0.442000000000000282,-0.871422455500750592
0.443000000000000282,-0.898590820610306151
0.444000000000000283,-0.925224043964493648
0.445000000000000284,-0.951330644605392295
0.446000000000000285,-0.976918973640278132
0.447000000000000286,-1.001997217045840660
0.448000000000000287,-1.026573398496727352
0.449000000000000288,-1.050655382213813827
0.450000000000000289,-1.074250875827649221
0.451000000000000290,-1.097367433252851354
0.452000000000000290,-1.120012457569443454
0.453000000000000291,-1.142193203907198251
0.454000000000000292,-1.163916782329450061
0.455000000000000293,-1.185190160712877638
0.456000000000000294,-1.206020167620006189
0.457000000000000295,-1.226413495161412737
0.458000000000000296,-1.246376701844636115
0.459000000000000297,-1.265916215407209666
0.460000000000000298,-1.285038335631145445
0.461000000000000298,-1.303749237136559769
0.462000000000000299,-1.322054972152168606
0.463000000000000300,-1.339961473260564251
0.464000000000000301,-1.357474556116372355
0.465000000000000302,-1.374599922135450125
0.466000000000000303,-1.391343161153470565
0.467000000000000304,-1.407709754052406392
0.468000000000000305,-1.423705075353401295
0.469000000000000306,-1.439334395774829911
0.470000000000000306,-1.454602884754374603
0.471000000000000307,-1.469515612933934845
0.472000000000000308,-1.484077554606550775
0.473000000000000309,-1.498293590124415875
0.474000000000000310,-1.512168508267177192
0.475000000000000311,-1.525707008569941125
0.476000000000000312,-1.538913703610293338
0.477000000000000313,-1.551793121253956187
0.478000000000000314,-1.564349706858515265
0.479000000000000314,-1.576587825435023849
0.480000000000000315,-1.588511763767058937
0.481000000000000316,-1.600125732487177377
0.482000000000000317,-1.611433868110476508
0.483000000000000318,-1.622440235025316424
0.484000000000000319,-1.633148827441093021
0.485000000000000320,-1.643563571293118031
0.486000000000000321,-1.653688326104726602
0.487000000000000322,-1.663526886806713012
0.488000000000000322,-1.673082985514229959
0.489000000000000323,-1.682360293261498940
0.490000000000000324,-1.691362421694477813
0.491000000000000325,-1.700092924721833043
0.492000000000000326,-1.708555300124541487
0.493000000000000327,-1.716752991124532723
0.494000000000000328,-1.724689387912689442
0.495000000000000329,-1.732367829136735482
0.496000000000000330,-1.739791603349335247
0.497000000000000330,-1.746963950417083966
0.498000000000000331,-1.753888062890608168
0.499000000000000332,-1.760567087336584624
0.500000000000000333,-1.767004125632045675
0.501000000000000334,-1.773202236221523176
0.502000000000000335,-1.779164435337723615
0.503000000000000336,-1.784893698186179822
0.504000000000000337,-1.790392960094590702
0.505000000000000338,-1.795665117627365914
0.506000000000000338,-1.800713029666053178
0.507000000000000339,-1.805539518456259263
0.508000000000000340,-1.810147370621646656
0.509000000000000341,-1.814539338145767289
0.510000000000000342,-1.818718139322193394
0.511000000000000343,-1.822686459673791948
0.512000000000000344,-1.826446952841600746
0.513000000000000345,-1.830002241444093070
0.514000000000000346,-1.833354917907445314
0.515000000000000346,-1.836507545267392683
0.516000000000000347,-1.839462657943408574
0.517000000000000348,-1.842222762485819176
0.518000000000000349,-1.844790338296468546
0.519000000000000350,-1.847167838323650058
0.520000000000000351,-1.849357689731815579
0.521000000000000352,-1.851362294546891274
0.522000000000000353,-1.853184030277585492
0.523000000000000353,-1.854825250513521651
0.524000000000000354,-1.856288285500709900
0.525000000000000355,-1.857575442694972212
0.526000000000000356,-1.858689007293939710
0.527000000000000357,-1.859631242748244428
0.528000000000000358,-1.860404391252441725
0.529000000000000359,-1.861010674216306171
0.530000000000000360,-1.861452292716995860
0.531000000000000361,-1.861731427932746596
0.532000000000000361,-1.861850241558579144
0.533000000000000362,-1.861810876204599952
0.534000000000000363,-1.861615455777419825
0.535000000000000364,-1.861266085845260321
0.536000000000000365,-1.860764853987198819
0.537000000000000366,-1.860113830127158918
0.538000000000000367,-1.859315066853017839
0.539000000000000368,-1.858370599721510530
0.540000000000000369,-1.857282447549204019
0.541000000000000369,-1.856052612690212156
0.542000000000000370,-1.854683081300939396
0.543000000000000371,-1.853175823592465576
0.544000000000000372,-1.851532794070897436
0.545000000000000373,-1.849755931766206674
0.546000000000000374,-1.847847160449922255
0.547000000000000375,-1.845808388842122172
0.548000000000000376,-1.843641510808138317
0.549000000000000377,-1.841348405545343070
0.550000000000000377,-1.838930937760456130
0.551000000000000378,-1.836390957837663152
0.552000000000000379,-1.833730301998037548
0.553000000000000380,-1.830950792450505515
0.554000000000000381,-1.828054237534763926
0.555000000000000382,-1.825042431856541469
0.556000000000000383,-1.821917156415380656
0.557000000000000384,-1.818680178725483598
0.558000000000000385,-1.815333252929705043
0.559000000000000385,-1.811878119907186946
0.560000000000000386,-1.808316507374835513
0.561000000000000387,-1.804650129982939832
0.562000000000000388,-1.800880689405215396
0.563000000000000389,-1.797009874423596942
0.564000000000000390,-1.793039361007950250
0.565000000000000391,-1.788970812391039944
0.566000000000000392,-1.784805879138942286
0.567000000000000393,-1.780546199217234449
0.568000000000000393,-1.776193398053048211
0.569000000000000394,-1.771749088593349342
0.570000000000000395,-1.767214871359620076
0.571000000000000396,-1.762592334499078817
0.572000000000000397,-1.757883053832793863
0.573000000000000398,-1.753088592900721165
0.574000000000000399,-1.748210503003998939
0.575000000000000400,-1.743250323244575073
0.576000000000000401,-1.738209580562395162
0.577000000000000401,-1.733089789770366762
0.578000000000000402,-1.727892453587140054
0.579000000000000403,-1.722619062667971601
0.580000000000000404,-1.717271095633825073
0.581000000000000405,-1.711850019098741793
0.582000000000000406,-1.706357287695784875
0.583000000000000407,-1.700794344101534961
0.584000000000000408,-1.695162619059396913
0.585000000000000409,-1.689463531401763863
0.586000000000000409,-1.683698488071157628
0.587000000000000410,-1.677868884140554684
0.588000000000000411,-1.671976102832837707
0.589000000000000412,-1.666021515539684472
0.590000000000000413,-1.660006481839796155
0.591000000000000414,-1.653932349516701761
0.592000000000000415,-1.647800454576188844
0.593000000000000416,-1.641612121263398283
0.594000000000000417,-1.635368662079726310
0.595000000000000417,-1.629071377799653053
0.596000000000000418,-1.622721557487388111
0.597000000000000419,-1.616320478513684211
0.598000000000000420,-1.609869406572595363
0.599000000000000421,-1.603369595698494354
0.600000000000000422,-1.596822288283232805
0.601000000000000423,-1.590228715093576328
0.602000000000000424,-1.583590095288994304
0.603000000000000425,-1.576907636439796701
0.604000000000000425,-1.570182534545683017
0.605000000000000426,-1.563415974054774171
0.606000000000000427,-1.556609127883180177
0.607000000000000428,-1.549763157435015248
0.608000000000000429,-1.542879212623151641
0.609000000000000430,-1.535958431890433129
0.610000000000000431,-1.529001942231669631
0.611000000000000432,-1.522010859216235135
0.612000000000000433,-1.514986287011386823
0.613000000000000433,-1.507929318406347363
0.614000000000000434,-1.500841034837126609
