# hydroxyapatite-001-ph10_BSAI17
# h[nm],U(h)[kJ/mol]
0.149999999999999994,111.417380879129723326
0.150999999999999995,110.092379031684544088
0.151999999999999996,108.936820144942657862
0.152999999999999997,107.793153697396135726
0.153999999999999998,106.610706944229519877
0.154999999999999999,105.388998446173189905
0.156000000000000000,104.146609565893783156
0.157000000000000001,102.905334361397621024
0.158000000000000002,101.683127597086581773
0.159000000000000002,100.491853817866825693
0.160000000000000003,99.337440937844419864
0.161000000000000004,98.221055830416148069
0.162000000000000005,97.140548148918483662
0.163000000000000006,96.091787623203430257
0.164000000000000007,95.069739899843156650
0.165000000000000008,94.069246436511406273
0.166000000000000009,93.085534037973815202
0.167000000000000010,92.114504379270684353
0.168000000000000010,91.152859064872615136
0.169000000000000011,90.198111088013519065
0.170000000000000012,89.248524704370495897
0.171000000000000013,88.303015935480402732
0.172000000000000014,87.361036832882433600
0.173000000000000015,86.422458994632165741
0.174000000000000016,85.487465828199916018
0.175000000000000017,84.556458610495042194
0.176000000000000018,83.629978287854470409
0.177000000000000018,82.708642924746385461
0.178000000000000019,81.793099494437598196
0.179000000000000020,80.883988083017442250
0.180000000000000021,79.981916364456239421
0.181000000000000022,79.087442253406081250
0.182000000000000023,78.201062845279338376
0.183000000000000024,77.323208031721620159
0.184000000000000025,76.454237480765812052
0.185000000000000026,75.594439960781286914
0.186000000000000026,74.744034246161291435
0.187000000000000027,73.903171061044147905
0.188000000000000028,73.071935692686309949
0.189000000000000029,72.250351040259175761
0.190000000000000030,71.438380962264815821
0.191000000000000031,70.635933852142329670
0.192000000000000032,69.842866413001431170
0.193000000000000033,69.058987624571699371
0.194000000000000034,68.284062903618718110
0.195000000000000034,67.517818457724786185
0.196000000000000035,66.759945825121093321
0.197000000000000036,66.010106583068917985
0.198000000000000037,65.267937196274701250
0.199000000000000038,64.533053966508560961
0.200000000000000039,63.805058035984664855
0.201000000000000040,63.083540390723200630
0.202000000000000041,62.368086806294243729
0.203000000000000042,61.658282677041668762
0.204000000000000042,60.953717670924696392
0.205000000000000043,60.253990155207858948
0.206000000000000044,59.558711343023652773
0.207000000000000045,58.867509116945790026
0.208000000000000046,58.180031492764740619
0.209000000000000047,57.495949694291972776
0.210000000000000048,56.814960817909764046
0.211000000000000049,56.136790073448722183
0.212000000000000050,55.461192595574360098
0.213000000000000050,54.787954827012050885
0.214000000000000051,54.116895481486764652
0.215000000000000052,53.447866100099375331
0.216000000000000053,52.780751219938110808
0.217000000000000054,52.115468177998579336
0.218000000000000055,51.451966576953779509
0.219000000000000056,50.790227441994282742
0.220000000000000057,50.130262099882337168
0.221000000000000058,49.472110812584574546
0.222000000000000058,48.815841198422013747
0.223000000000000059,48.161546473672252944
0.224000000000000060,47.509343547045183698
0.225000000000000061,46.859370998501688632
0.226000000000000062,46.211786972563693610
0.227000000000000063,45.566767014643190237
0.228000000000000064,44.924501877060080801
0.229000000000000065,44.285195319382772539
0.230000000000000066,43.649061925569071718
0.231000000000000066,43.016324958152885927
0.232000000000000067,42.387214267462518080
0.233000000000000068,41.761964271602202814
0.234000000000000069,41.140812020717099529
0.235000000000000070,40.523995356916472588
0.236000000000000071,39.911751179175347204
0.237000000000000072,39.304313820587239547
0.238000000000000073,38.701913543514450566
0.239000000000000073,38.104775156488322807
0.240000000000000074,37.513116755152204007
0.241000000000000075,36.927148588125106698
0.242000000000000076,36.347072047387698035
0.243000000000000077,35.773078781658284697
0.244000000000000078,35.205349930229616007
0.245000000000000079,34.644055473873166306
0.246000000000000080,34.089353698681129856
0.247000000000000081,33.541390768099901720
0.248000000000000081,33.000300397905675709
0.249000000000000082,32.466203628475376775
0.250000000000000111,31.939208688405095415
0.251000000000000112,31.419410943316723461
0.252000000000000113,30.906892923561724018
0.253000000000000114,30.401724424472796215
0.254000000000000115,29.903962672819410784
0.255000000000000115,29.413652553185634986
0.256000000000000116,28.930826888100710903
0.257000000000000117,28.455506765906893207
0.258000000000000118,27.987701910539936279
0.259000000000000119,27.527411087617849716
0.260000000000000120,27.074622541477943116
0.261000000000000121,26.629314458066755122
0.262000000000000122,26.191455448865262667
0.263000000000000123,25.761005051321195225
0.264000000000000123,25.337914241554727823
0.265000000000000124,24.922125955402741226
0.266000000000000125,24.513575614164743399
0.267000000000000126,24.112191651709583340
0.268000000000000127,23.717896039892831794
0.269000000000000128,23.330604809519194021
0.270000000000000129,22.950228564360148908
0.271000000000000130,22.576672986002847665
0.272000000000000131,22.209839327562246325
0.273000000000000131,21.849624894531448405
0.274000000000000132,21.495923511277219120
0.275000000000000133,21.148625971905854470
0.276000000000000134,20.807620474430059687
0.277000000000000135,20.472793037360411006
0.278000000000000136,20.144027898023338707
0.279000000000000137,19.821207892074092172
0.280000000000000138,19.504214813826294517
0.281000000000000139,19.192929757159866710
0.282000000000000139,18.887233436897638228
0.283000000000000140,18.587006490657291380
0.284000000000000141,18.292129761290141232
0.285000000000000142,18.002484560112510081
0.286000000000000143,17.717952911219022383
0.287000000000000144,17.438417777241163265
0.288000000000000145,17.163763266978541822
0.289000000000000146,16.893874825387058536
0.290000000000000147,16.628639406454492899
0.291000000000000147,16.367945629535388008
0.292000000000000148,16.111683919748919891
0.293000000000000149,15.859746633070576749
0.294000000000000150,15.612028166768448401
0.295000000000000151,15.368425055849817440
0.296000000000000152,15.128836056193582849
0.297000000000000153,14.893162215049159158
0.298000000000000154,14.661306929583748371
0.299000000000000155,14.433175994156901112
0.300000000000000155,14.208677636995599158
0.301000000000000156,13.987722546934287848
0.302000000000000157,13.770223890872156147
0.303000000000000158,13.556097322587181253
0.304000000000000159,13.345260983529817267
0.305000000000000160,13.137635496202511476
0.306000000000000161,12.933143950712098658
0.307000000000000162,12.731711885062415135
0.308000000000000163,12.533267259733442245
0.309000000000000163,12.337740427072034777
0.310000000000000164,12.145064095996858100
0.311000000000000165,11.955173292497972781
0.312000000000000166,11.768005316388713055
0.313000000000000167,11.583499694744851638
0.314000000000000168,11.401598132443371725
0.315000000000000169,11.222244460190665905
0.316000000000000170,11.045384580407759501
0.317000000000000171,10.870966411318292444
0.318000000000000171,10.698939829563583359
0.319000000000000172,10.529256611648097675
0.320000000000000173,10.361870374498254321
0.321000000000000174,10.196736515397812894
0.322000000000000175,10.033812151543665792
0.323000000000000176,9.873056059447659294
0.324000000000000177,9.714428614391996675
0.325000000000000178,9.557891730128844188
0.326000000000000179,9.403408798998174944
0.327000000000000179,9.250944632622449149
0.328000000000000180,9.100465403321601698
0.329000000000000181,8.951938586377634621
0.330000000000000182,8.805332903264766031
0.331000000000000183,8.660618265948007988
0.332000000000000184,8.517765722341348322
0.333000000000000185,8.376747403004987547
0.334000000000000186,8.237536469150658291
0.335000000000000187,8.100107062013787385
0.336000000000000187,7.964434253641958783
0.337000000000000188,7.830493999140456296
0.338000000000000189,7.698263090407228226
0.339000000000000190,7.567719111382237074
0.340000000000000191,7.438840394829024483
0.341000000000000192,7.311605980659895643
0.342000000000000193,7.185995575809909219
0.343000000000000194,7.061989515659620409
0.344000000000000195,6.939568727001448778
0.345000000000000195,6.818714692539688649
0.346000000000000196,6.699409416910367732
0.347000000000000197,6.581635394203186884
0.348000000000000198,6.465375576964417448
0.349000000000000199,6.350613346656659886
0.350000000000000200,6.237332485548598981
0.351000000000000201,6.125517150005594047
0.352000000000000202,6.015151845149864229
0.353000000000000203,5.906221400857158521
0.354000000000000203,5.798710949055331021
0.355000000000000204,5.692605902289008313
0.356000000000000205,5.587891933513394527
0.357000000000000206,5.484554957079319948
0.358000000000000207,5.382581110871273999
0.359000000000000208,5.281956739559425351
0.360000000000000209,5.182668378926350350
0.361000000000000210,5.084702741229249590
0.362000000000000210,4.988046701558123353
0.363000000000000211,4.892687285150711496
0.364000000000000212,4.798611655625157013
0.365000000000000213,4.705807104091641158
0.366000000000000214,4.614261039104748718
0.367000000000000215,4.523960977418825635
0.368000000000000216,4.434894535509060987
0.369000000000000217,4.347049421821916226
0.370000000000000218,4.260413429718981959
0.371000000000000218,4.174974431079365722
0.372000000000000219,4.090720370526293337
0.373000000000000220,4.007639260244611812
0.374000000000000221,3.925719175356749524
0.375000000000000222,3.844948249825623776
0.376000000000000223,3.765314672853711020
0.377000000000000224,3.686806685748808210
0.378000000000000225,3.609412579227663009
0.379000000000000226,3.533120691129817637
0.380000000000000226,3.457919404514798067
0.381000000000000227,3.383797146117026422
0.382000000000000228,3.310742385133502719
0.383000000000000229,3.238743632320524313
0.384000000000000230,3.167789439376518690
0.385000000000000231,3.097868398589069372
0.386000000000000232,3.028969142725195685
0.387000000000000233,2.961080345144730952
0.388000000000000234,2.894190720117775673
0.389000000000000234,2.828289023327876350
0.390000000000000235,2.763364052543564320
0.391000000000000236,2.699404648441770860
0.392000000000000237,2.636399695567359203
0.393000000000000238,2.574338123413941304
0.394000000000000239,2.513208907611878207
0.395000000000000240,2.453001071210111128
0.396000000000000241,2.393703686039295508
0.397000000000000242,2.335305874144342209
0.398000000000000242,2.277796809275227652
0.399000000000000243,2.221165718425620828
0.400000000000000244,2.165401883409427519
0.401000000000000245,2.110494642466111070
0.402000000000000246,2.056433391886240081
0.403000000000000247,2.003207587649094013
0.404000000000000248,1.950806747065060520
0.405000000000000249,1.899220450415775030
0.406000000000000250,1.848438342585683625
0.407000000000000250,1.798450134679060231
0.408000000000000251,1.749245605617081534
0.409000000000000252,1.700814603709956740
0.410000000000000253,1.653147048199531621
0.411000000000000254,1.606232930768245470
0.412000000000000255,1.560062317010680655
0.413000000000000256,1.514625347864253957
0.414000000000000257,1.469912240996098518
0.415000000000000258,1.425913292143304645
0.416000000000000258,1.382618876404273722
0.417000000000000259,1.340019449478925706
0.418000000000000260,1.298105548856086200
0.419000000000000261,1.256867794946372463
0.420000000000000262,1.216296892159401510
0.421000000000000263,1.176383629924119045
0.422000000000000264,1.137118883651534684
0.423000000000000265,1.098493615639125620
0.424000000000000266,1.060498875916465522
0.425000000000000266,1.023125803031899705
0.426000000000000267,0.986365624780041750
0.427000000000000268,0.950209658870236451
0.428000000000000269,0.914649313536171626
0.429000000000000270,0.879676088086932095
0.430000000000000271,0.845281573400037400
0.431000000000000272,0.811457452356929343
0.432000000000000273,0.778195500221703584
0.433000000000000274,0.745487584963765326
0.434000000000000274,0.713325667525321228
0.435000000000000275,0.681701802034640592
0.436000000000000276,0.650608135966095569
0.437000000000000277,0.620036910248040418
0.438000000000000278,0.589980459319709327
0.439000000000000279,0.560431211138266994
0.440000000000000280,0.531381687137272851
0.441000000000000281,0.502824502137849128
0.442000000000000282,0.474752364213770650
0.443000000000000282,0.447158074511944281
0.444000000000000283,0.420034527029485016
0.445000000000000284,0.393374708348882440
0.446000000000000285,0.367171697332592584
0.447000000000000286,0.341418664778429359
0.448000000000000287,0.316108873037239224
0.449000000000000288,0.291235675594187782
0.450000000000000289,0.266792516615125874
0.451000000000000290,0.242772930459429770
0.452000000000000290,0.219170541160669419
0.453000000000000291,0.195979061876590310
0.454000000000000292,0.173192294309708672
0.455000000000000293,0.150804128099925883
0.456000000000000294,0.128808540190538862
0.457000000000000295,0.107199594168913601
0.458000000000000296,0.085971439583247017
0.459000000000000297,0.065118311236614684
0.460000000000000298,0.044634528459662239
0.461000000000000298,0.024514494363139749
0.462000000000000299,0.004752695071555957
0.463000000000000300,-0.014656301060853038
0.464000000000000301,-0.033717844250680765
0.465000000000000302,-0.052437204101236687
0.466000000000000303,-0.070819570432644113
0.467000000000000304,-0.088870054125094175
0.468000000000000305,-0.106593687974077020
0.469000000000000306,-0.123995427556645804
0.470000000000000306,-0.141080152107662948
0.471000000000000307,-0.157852665404995401
0.472000000000000308,-0.174317696662745047
0.473000000000000309,-0.190479901431601817
0.474000000000000310,-0.206343862505333153
0.475000000000000311,-0.221914090832637717
0.476000000000000312,-0.237195026433418388
0.477000000000000313,-0.252191039318771626
0.478000000000000314,-0.266906430413774487
0.479000000000000314,-0.281345432482431546
0.480000000000000315,-0.295512211053958640
0.481000000000000316,-0.309410865349768083
0.482000000000000317,-0.323045429210415014
0.483000000000000318,-0.336419872021917699
0.484000000000000319,-0.349538099640787636
0.485000000000000320,-0.362403955317166016
0.486000000000000321,-0.375021220615549433
0.487000000000000322,-0.387393616332508794
0.488000000000000322,-0.399524803410863716
0.489000000000000323,-0.411418383849902813
0.490000000000000324,-0.423077901611088769
0.491000000000000325,-0.434506843518829289
0.492000000000000326,-0.445708640155899505
0.493000000000000327,-0.456686666753108317
0.494000000000000328,-0.467444244072799886
0.495000000000000329,-0.477984639285873314
0.496000000000000330,-0.488311066841910335
0.497000000000000330,-0.498426689332218675
0.498000000000000331,-0.508334618345288147
0.499000000000000332,-0.518037915314594755
0.500000000000000333,-0.527539592358360343
0.501000000000000334,-0.536842613111006894
0.502000000000000335,-0.545949893546184617
0.503000000000000336,-0.554864302791048147
0.504000000000000337,-0.563588663931671063
0.505000000000000338,-0.572125754809354126
0.506000000000000338,-0.580478308807706678
0.507000000000000339,-0.588649015630340444
0.508000000000000340,-0.596640522069001977
0.509000000000000341,-0.604455432762118217
0.510000000000000342,-0.612096310943509025
0.511000000000000343,-0.619565679181315110
0.512000000000000344,-0.626866020106930932
0.513000000000000345,-0.633999777133950282
0.514000000000000346,-0.640969355167063437
0.515000000000000346,-0.647777121300790459
0.516000000000000347,-0.654425405508073488
0.517000000000000348,-0.660916501318691951
0.518000000000000349,-0.667252666487438972
0.519000000000000350,-0.673436123652114582
0.520000000000000351,-0.679469060981235384
0.521000000000000352,-0.685353632811608882
0.522000000000000353,-0.691091960275621697
0.523000000000000353,-0.696686131918404117
0.524000000000000354,-0.702138204304814884
0.525000000000000355,-0.707450202616325075
0.526000000000000356,-0.712624121237797281
0.527000000000000357,-0.717661924334277224
0.528000000000000358,-0.722565546417775040
0.529000000000000359,-0.727336892904178578
0.530000000000000360,-0.731977840660259504
0.531000000000000361,-0.736490238540950415
0.532000000000000361,-0.740875907916898391
0.533000000000000362,-0.745136643192396253
0.534000000000000363,-0.749274212313752463
0.535000000000000364,-0.753290357268250554
0.536000000000000365,-0.757186794573683430
0.537000000000000366,-0.760965215758672153
0.538000000000000367,-0.764627287833746561
0.539000000000000368,-0.768174653753416314
0.540000000000000369,-0.771608932869203956
0.541000000000000369,-0.774931721373869009
0.542000000000000370,-0.778144592736793927
0.543000000000000371,-0.781249098130787467
0.544000000000000372,-0.784246766850283605
0.545000000000000373,-0.787139106721151505
0.546000000000000374,-0.789927604502153047
0.547000000000000375,-0.792613726278206587
0.548000000000000376,-0.795198917845564290
0.549000000000000377,-0.797684605088999854
0.550000000000000377,-0.800072194351179045
0.551000000000000378,-0.802363072794228138
0.552000000000000379,-0.804558608753754512
0.553000000000000380,-0.806660152085319715
0.554000000000000381,-0.808669034503535888
0.555000000000000382,-0.810586569913944066
0.556000000000000383,-0.812414054737683577
0.557000000000000384,-0.814152768229216006
0.558000000000000385,-0.815803972787080944
0.559000000000000385,-0.817368914257910917
0.560000000000000386,-0.818848822233778861
0.561000000000000387,-0.820244910342993960
0.562000000000000388,-0.821558376534454959
0.563000000000000389,-0.822790403355742606
0.564000000000000390,-0.823942158224974186
0.565000000000000391,-0.825014793696608573
0.566000000000000392,-0.826009447721273604
0.567000000000000393,-0.826927243899784670
0.568000000000000393,-0.827769291731383583
0.569000000000000394,-0.828536686856392590
0.570000000000000395,-0.829230511293366668
0.571000000000000396,-0.829851833670809724
0.572000000000000397,-0.830401709453661541
0.573000000000000398,-0.830881181164561111
0.574000000000000399,-0.831291278600068573
0.575000000000000400,-0.831633019041911781
0.576000000000000401,-0.831907407463360116
0.577000000000000401,-0.832115436730889835
0.578000000000000402,-0.832258087801148072
0.579000000000000403,-0.832336329913375250
0.580000000000000404,-0.832351120777417131
0.581000000000000405,-0.832303406757315956
0.582000000000000406,-0.832194123050718160
0.583000000000000407,-0.832024193864058348
0.584000000000000408,-0.831794532583719937
0.585000000000000409,-0.831506041943212204
0.586000000000000409,-0.831159614186446349
0.587000000000000410,-0.830756131227264327
0.588000000000000411,-0.830296464805199697
0.589000000000000412,-0.829781476637706406
0.590000000000000413,-0.829212018568777909
0.591000000000000414,-0.828588932714166004
0.592000000000000415,-0.827913051603243466
0.593000000000000416,-0.827185198317548553
0.594000000000000417,-0.826406186626149841
0.595000000000000417,-0.825576821117918636
0.596000000000000418,-0.824697897330684326
0.597000000000000419,-0.823770201877503938
0.598000000000000420,-0.822794512569959502
0.599000000000000421,-0.821771598538698855
0.600000000000000422,-0.820702220351183342
0.601000000000000423,-0.819587130126758545
0.602000000000000424,-0.818427071649140081
0.603000000000000425,-0.817222780476337562
0.604000000000000425,-0.815974984048083885
0.605000000000000426,-0.814684401790876422
0.606000000000000427,-0.813351745220679101
0.607000000000000428,-0.811977718043264018
0.608000000000000429,-0.810563016252444535
0.609000000000000430,-0.809108328226009532
0.610000000000000431,-0.807614334819654500
0.611000000000000432,-0.806081709458796980
0.612000000000000433,-0.804511118228406708
0.613000000000000433,-0.802903219960911074
0.614000000000000434,-0.801258666322194557
0.615000000000000435,-0.799578101895762061
