# hydroxyapatite-001-ph10_GLU-AC
# h[nm],U(h)[kJ/mol]
0.149999999999999994,112.229405948505430501
0.150999999999999995,108.838677218798437707
0.151999999999999996,106.327540139200777958
0.152999999999999997,104.033827083410955083
0.153999999999999998,101.712826964740401081
0.154999999999999999,99.317214948496101101
0.156000000000000000,96.877830456326961439
0.157000000000000001,94.443888813884328215
0.158000000000000002,92.056810866471124655
0.159000000000000002,89.741967159473347238
0.160000000000000003,87.509086823111942977
0.161000000000000004,85.356120636127101875
0.162000000000000005,83.273813992499270853
0.163000000000000006,81.249702310215823786
0.164000000000000007,79.271062731206527019
0.165000000000000008,77.326786864442894398
0.166000000000000009,75.408338132396380615
0.167000000000000010,73.510024397786452255
0.168000000000000010,71.628814170157298236
0.169000000000000011,69.763890156483810756
0.170000000000000012,67.916088660599783111
0.171000000000000013,66.087328835885884359
0.172000000000000014,64.280097490381933767
0.173000000000000015,62.497024942511153256
0.174000000000000016,60.740565306151054870
0.175000000000000017,59.012779573857891080
0.176000000000000018,57.315210629219450311
0.177000000000000018,55.648834479069833492
0.178000000000000019,54.014070310675414532
0.179000000000000020,52.410832408392842297
0.180000000000000021,50.838608688415654058
0.181000000000000022,49.296553013914646613
0.182000000000000023,47.783581097967193330
0.183000000000000024,46.298462394186607582
0.184000000000000025,44.839902733153699899
0.185000000000000026,43.406614488534231100
0.186000000000000026,41.997372711736900897
0.187000000000000027,40.611056960109984004
0.188000000000000028,39.246679488441813533
0.189000000000000029,37.903401118711030904
0.190000000000000030,36.580536496764516130
0.191000000000000031,35.277550635898819564
0.192000000000000032,33.994048682531271766
0.193000000000000033,32.729760759861761699
0.194000000000000034,31.484523587453772109
0.195000000000000034,30.258260367707908500
0.196000000000000035,29.050960198058838557
0.197000000000000036,27.862658028755568296
0.198000000000000037,26.693415953845040178
0.199000000000000038,25.543306406950886611
0.200000000000000039,24.412397639724783716
0.201000000000000040,23.300741692847434905
0.202000000000000041,22.208364928471290511
0.203000000000000042,21.135261078764592924
0.204000000000000042,20.081386676347328546
0.205000000000000043,19.046658666775684310
0.206000000000000044,18.030953958242452728
0.207000000000000045,17.034110636519748994
0.208000000000000046,16.055930561030258730
0.209000000000000047,15.096183058039979841
0.210000000000000048,14.154609436739495010
0.211000000000000049,13.230928071079253172
0.212000000000000050,12.324839812566159125
0.213000000000000050,11.436033525021120028
0.214000000000000051,10.564191560014037918
0.215000000000000052,9.708995020084689287
0.216000000000000053,8.870128684916425144
0.217000000000000054,8.047285502572611549
0.218000000000000055,7.240170573149596223
0.219000000000000056,6.448504575336253986
0.220000000000000057,5.672026607129161846
0.221000000000000058,4.910496430202979212
0.222000000000000058,4.163696123124212889
0.223000000000000059,3.431431161773777383
0.224000000000000060,2.713530956100386415
0.225000000000000061,2.009848880812672434
0.226000000000000062,1.320261844008703722
0.227000000000000063,0.644669442234253154
0.228000000000000064,-0.017007246734583960
0.229000000000000065,-0.664827180764943293
0.230000000000000066,-1.298831127220567039
0.231000000000000066,-1.919043642133811733
0.232000000000000067,-2.525475204927722039
0.233000000000000068,-3.118124461517272294
0.234000000000000069,-3.696980531758606414
0.235000000000000070,-4.262025340753135438
0.236000000000000071,-4.813235937319939595
0.237000000000000072,-5.350586766914823045
0.238000000000000073,-5.874051870298129252
0.239000000000000073,-6.383606983254734857
0.240000000000000074,-6.879231516583322659
0.241000000000000075,-7.360910399336977328
0.242000000000000076,-7.828635771875056548
0.243000000000000077,-8.282408518640940187
0.244000000000000078,-8.722239633688115390
0.245000000000000079,-9.148151414822553562
0.246000000000000080,-9.560178484802733578
0.247000000000000081,-9.958368640338715494
0.248000000000000081,-10.342783531657900653
0.249000000000000082,-10.713499177165669352
0.250000000000000111,-11.070606319233174730
0.251000000000000112,-11.414210628402972958
0.252000000000000113,-11.744432764333167185
0.253000000000000114,-12.061408302612314003
0.254000000000000115,-12.365287537194593170
0.255000000000000115,-12.656235168636934318
0.256000000000000116,-12.934429888590097235
0.257000000000000117,-13.200063871117965419
0.258000000000000118,-13.453342181410580025
0.259000000000000119,-13.694482112334398494
0.260000000000000120,-13.923712459041940548
0.261000000000000121,-14.141272741556743853
0.262000000000000122,-14.347412384873971192
0.263000000000000123,-14.542389865682139316
0.264000000000000123,-14.726471834331999133
0.265000000000000124,-14.899932220162298790
0.266000000000000125,-15.063051327751452391
0.267000000000000126,-15.216114931105646946
0.268000000000000127,-15.359413372227194827
0.269000000000000128,-15.493240669936955811
0.270000000000000129,-15.617893644259552843
0.271000000000000130,-15.733671061123402524
0.272000000000000131,-15.840872801584392704
0.273000000000000131,-15.939799059256264613
0.274000000000000132,-16.030749569124740361
0.275000000000000133,-16.114022870439857371
0.276000000000000134,-16.189915605922369224
0.277000000000000135,-16.258721859087543749
0.278000000000000136,-16.320732531084967576
0.279000000000000137,-16.376234758074918574
0.280000000000000138,-16.425511369812401341
0.281000000000000139,-16.468840389788233836
0.282000000000000139,-16.506494576982206013
0.283000000000000140,-16.538741009016497685
0.284000000000000141,-16.565840706256501846
0.285000000000000142,-16.588048296191299613
0.286000000000000143,-16.605611717235142066
0.287000000000000144,-16.618771960923943709
0.288000000000000145,-16.627762851336228778
0.289000000000000146,-16.632810860443477452
0.290000000000000147,-16.634134957991175696
0.291000000000000147,-16.631946494425939420
0.292000000000000148,-16.626449115316042082
0.293000000000000149,-16.617838705660069820
0.294000000000000150,-16.606303362440769433
0.295000000000000151,-16.592023393757376226
0.296000000000000152,-16.575171342857167645
0.297000000000000153,-16.555912035387002845
0.298000000000000154,-16.534402648194294727
0.299000000000000155,-16.510792798025491379
0.300000000000000155,-16.485224648496135558
0.301000000000000156,-16.457833033739881046
0.302000000000000157,-16.428745597182974336
0.303000000000000158,-16.398082943935389011
0.304000000000000159,-16.365958805338681969
0.305000000000000160,-16.332480214263156881
0.306000000000000161,-16.297747689802807969
0.307000000000000162,-16.261855430074582785
0.308000000000000163,-16.224891511888149154
0.309000000000000163,-16.186938096113813401
0.310000000000000164,-16.148071637638082620
0.311000000000000165,-16.108363098858596629
0.312000000000000166,-16.067878165732803808
0.313000000000000167,-16.026677465456348415
0.314000000000000168,-15.984816784908574050
0.315000000000000169,-15.942347289062846372
0.316000000000000170,-15.899315738618573945
0.317000000000000171,-15.855764706169333422
0.318000000000000171,-15.811732790277691407
0.319000000000000172,-15.767254826881895724
0.320000000000000173,-15.722362097511830115
0.321000000000000174,-15.677082533842337853
0.322000000000000175,-15.631440918160681264
0.323000000000000176,-15.585459079371011271
0.324000000000000177,-15.539156084203455066
0.325000000000000178,-15.492548423337030528
0.326000000000000179,-15.445650192186098693
0.327000000000000179,-15.398473266137472137
0.328000000000000180,-15.351027470060952140
0.329000000000000181,-15.303320741949878681
0.330000000000000182,-15.255359290579155740
0.331000000000000183,-15.207147747098010981
0.332000000000000184,-15.158689310501770819
0.333000000000000185,-15.109985886952415512
0.334000000000000186,-15.061038222941082410
0.335000000000000187,-15.011846032307278875
0.336000000000000187,-14.962408117149589515
0.337000000000000188,-14.912722482680374370
0.338000000000000189,-14.862786446094025550
0.339000000000000190,-14.812596739532841283
0.340000000000000191,-14.762149607248053584
0.341000000000000192,-14.711440897066012212
0.342000000000000193,-14.660466146279446775
0.343000000000000194,-14.609220662093997944
0.344000000000000195,-14.557699596767466943
0.345000000000000195,-14.505898017587250948
0.346000000000000196,-14.453810971836599464
0.347000000000000197,-14.401433546905810346
0.348000000000000198,-14.348760925708376135
0.349000000000000199,-14.295788437565239093
0.350000000000000200,-14.242511604722755791
0.351000000000000201,-14.188926184671611708
0.352000000000000202,-14.135028208434615493
0.353000000000000203,-14.080814014992052208
0.354000000000000203,-14.026280282012431044
0.355000000000000204,-13.971424053055994108
0.356000000000000205,-13.916242761416862450
0.357000000000000206,-13.860734250768118159
0.358000000000000207,-13.804896792771447878
0.359000000000000208,-13.748729101811131059
0.360000000000000209,-13.692230347008782942
0.361000000000000210,-13.635400161672256658
0.362000000000000210,-13.578238650328836812
0.363000000000000211,-13.520746393489066151
0.364000000000000212,-13.462924450283939137
0.365000000000000213,-13.404774359114043136
0.366000000000000214,-13.346298136445335913
0.367000000000000215,-13.287498273881862332
0.368000000000000216,-13.228377733641641711
0.369000000000000217,-13.168939942557409850
0.370000000000000218,-13.109188784719680854
0.371000000000000218,-13.049128592875058885
0.372000000000000219,-12.988764138688370764
0.373000000000000220,-12.928100621972793860
0.374000000000000221,-12.867143658987771460
0.375000000000000222,-12.805899269899905235
0.376000000000000223,-12.744373865498161535
0.377000000000000224,-12.682574233250052842
0.378000000000000225,-12.620507522781382548
0.379000000000000226,-12.558181230858075139
0.380000000000000226,-12.495603185944577973
0.381000000000000227,-12.432781532409103775
0.382000000000000228,-12.369724714442545732
0.383000000000000229,-12.306441459753713730
0.384000000000000230,-12.242940763099968038
0.385000000000000231,-12.179231869709031599
0.386000000000000232,-12.115324258643811461
0.387000000000000233,-12.051227626159086270
0.388000000000000234,-11.986951869095449297
0.389000000000000234,-11.922507068352931725
0.390000000000000235,-11.857903472483403817
0.391000000000000236,-11.793151481438339800
0.392000000000000237,-11.728261630505292246
0.393000000000000238,-11.663244574464133763
0.394000000000000239,-11.598111071991098697
0.395000000000000240,-11.532871970336639578
0.396000000000000241,-11.467538190300407663
0.397000000000000242,-11.402120711524409202
0.398000000000000242,-11.336630558123584223
0.399000000000000243,-11.271078784670454098
0.400000000000000244,-11.205476462548990213
0.401000000000000245,-11.139834666690791920
0.402000000000000246,-11.074164462704866096
0.403000000000000247,-11.008476894410730296
0.404000000000000248,-10.942782971782932577
0.405000000000000249,-10.877093659313629814
0.406000000000000250,-10.811419864798399004
0.407000000000000250,-10.745772428549164701
0.408000000000000251,-10.680162113036939076
0.409000000000000252,-10.614599592965859642
0.410000000000000253,-10.549095445778828406
0.411000000000000254,-10.483660142594318998
0.412000000000000255,-10.418304039572600317
0.413000000000000256,-10.353037369709173987
0.414000000000000257,-10.287870235051897794
0.415000000000000258,-10.222812599338098494
0.416000000000000258,-10.157874281046764153
0.417000000000000259,-10.093064946860630826
0.418000000000000260,-10.028394105532205671
0.419000000000000261,-9.963871102147312087
0.420000000000000262,-9.899505112779237948
0.421000000000000263,-9.835305139526269613
0.422000000000000264,-9.771280005924639411
0.423000000000000265,-9.707438352729045761
0.424000000000000266,-9.643788634052350872
0.425000000000000266,-9.580339113855654176
0.426000000000000267,-9.517097862780058648
0.427000000000000268,-9.454072755310955145
0.428000000000000269,-9.391271467265656980
0.429000000000000270,-9.328701473594987803
0.430000000000000271,-9.266370046489356582
0.431000000000000272,-9.204284253779807301
0.432000000000000273,-9.142450957624413732
0.433000000000000274,-9.080876813470419862
0.434000000000000274,-9.019568269282451922
0.435000000000000275,-8.958531565027220367
0.436000000000000276,-8.897772732405149654
0.437000000000000277,-8.837297594819267132
0.438000000000000278,-8.777111767572018053
0.439000000000000279,-8.717220658280597334
0.440000000000000280,-8.657629467501385179
0.441000000000000281,-8.598343189554404020
0.442000000000000282,-8.539366613538753370
0.443000000000000282,-8.480704324529916960
0.444000000000000283,-8.422360704950341059
0.445000000000000284,-8.364339936104508766
0.446000000000000285,-8.306645999869989083
0.447000000000000286,-8.249282680536285994
0.448000000000000287,-8.192253566783103125
0.449000000000000288,-8.135562053790229342
0.450000000000000289,-8.079211345471106753
0.451000000000000290,-8.023204456822499608
0.452000000000000290,-7.967544216382847821
0.453000000000000291,-7.912233268791981189
0.454000000000000292,-7.857274077445235427
0.455000000000000293,-7.802668927234988061
0.456000000000000294,-7.748419927373028315
0.457000000000000295,-7.694529014287280866
0.458000000000000296,-7.640997954586512542
0.459000000000000297,-7.587828348087086283
0.460000000000000298,-7.535021630895703204
0.461000000000000298,-7.482579078542579865
0.462000000000000299,-7.430501809159492765
0.463000000000000300,-7.378790786697353887
0.464000000000000301,-7.327446824178248441
0.465000000000000302,-7.276470586977012545
0.466000000000000303,-7.225862596127510251
0.467000000000000304,-7.175623231649160161
0.468000000000000305,-7.125752735889273382
0.469000000000000306,-7.076251216876960015
0.470000000000000306,-7.027118651684719275
0.471000000000000307,-6.978354889793625837
0.472000000000000308,-6.929959656458692052
0.473000000000000309,-6.881932556070654350
0.474000000000000310,-6.834273075510982842
0.475000000000000311,-6.786980587496782569
0.476000000000000312,-6.740054353912745100
0.477000000000000313,-6.693493529126986807
0.478000000000000314,-6.647297163288231836
0.479000000000000314,-6.601464205601740964
0.480000000000000315,-6.555993507581336033
0.481000000000000316,-6.510883826275483344
0.482000000000000317,-6.466133827464970452
0.483000000000000318,-6.421742088830356465
0.484000000000000319,-6.377707103087056240
0.485000000000000320,-6.334027281086430428
0.486000000000000321,-6.290700954881097928
0.487000000000000322,-6.247726380752891551
0.488000000000000322,-6.205101742201989623
0.489000000000000323,-6.162825152895980985
0.490000000000000324,-6.120894659577433394
0.491000000000000325,-6.079308244928980365
0.492000000000000326,-6.038063830394730935
0.493000000000000327,-5.997159278957168382
0.494000000000000328,-5.956592397868592847
0.495000000000000329,-5.916360941336353818
0.496000000000000330,-5.876462613161142379
0.497000000000000330,-5.836895069327812990
0.498000000000000331,-5.797655920548042019
0.499000000000000332,-5.758742734754550341
0.500000000000000333,-5.720153039546323370
0.501000000000000334,-5.681884324584598467
0.502000000000000335,-5.643934043939325740
0.503000000000000336,-5.606299618385935268
0.504000000000000337,-5.568978437652221558
0.505000000000000338,-5.531967862615301712
0.506000000000000338,-5.495265227448621559
0.507000000000000339,-5.458867841719000857
0.508000000000000340,-5.422772992433809058
0.509000000000000341,-5.386977946038443932
0.510000000000000342,-5.351479950364169014
0.511000000000000343,-5.316276236526616294
0.512000000000000344,-5.281364020775144219
0.513000000000000345,-5.246740506293352979
0.514000000000000346,-5.212402884951109705
0.515000000000000346,-5.178348339008359780
0.516000000000000347,-5.144574042771171030
0.517000000000000348,-5.111077164200456657
0.518000000000000349,-5.077854866473685114
0.519000000000000350,-5.044904309500214623
0.520000000000000351,-5.012222651390616512
0.521000000000000352,-4.979807049880578873
0.522000000000000353,-4.947654663709890599
0.523000000000000353,-4.915762653957033379
0.524000000000000354,-4.884128185330078864
0.525000000000000355,-4.852748427414300458
0.526000000000000356,-4.821620555877253800
0.527000000000000357,-4.790741753631882816
0.528000000000000358,-4.760109211958280184
0.529000000000000359,-4.729720131584757681
0.530000000000000360,-4.699571723728881878
0.531000000000000361,-4.669661211099128018
0.532000000000000361,-4.639985828857822625
0.533000000000000362,-4.610542825546054324
0.534000000000000363,-4.581329463971243854
0.535000000000000364,-4.552343022058024324
0.536000000000000365,-4.523580793663176891
0.537000000000000366,-4.495040089355272883
0.538000000000000367,-4.466718237159701843
0.539000000000000368,-4.438612583269889278
0.540000000000000369,-4.410720492725223707
0.541000000000000369,-4.383039350056578520
0.542000000000000370,-4.355566559899988199
0.543000000000000371,-4.328299547579234741
0.544000000000000372,-4.301235759658039726
0.545000000000000373,-4.274372664462529059
0.546000000000000374,-4.247707752574674700
0.547000000000000375,-4.221238537297374194
0.548000000000000376,-4.194962555091900747
0.549000000000000377,-4.168877365988352679
0.550000000000000377,-4.142980553969752400
0.551000000000000378,-4.117269727330534757
0.552000000000000379,-4.091742519010024282
0.553000000000000380,-4.066396586901570132
0.554000000000000381,-4.041229614137962223
0.555000000000000382,-4.016239309353875520
0.556000000000000383,-3.991423406925760364
0.557000000000000384,-3.966779667190060366
0.558000000000000385,-3.942305876640172180
0.559000000000000385,-3.917999848102865279
0.560000000000000386,-3.893859420894732359
0.561000000000000387,-3.869882460959250814
0.562000000000000388,-3.846066860985072999
0.563000000000000389,-3.822410540506093302
0.564000000000000390,-3.798911445983858215
0.565000000000000391,-3.775567550872920286
0.566000000000000392,-3.752376855669622646
0.567000000000000393,-3.729337387944929638
0.568000000000000393,-3.706447202361742743
0.569000000000000394,-3.683704380677318646
0.570000000000000395,-3.661107031731268169
0.571000000000000396,-3.638653291419573943
0.572000000000000397,-3.616341322655271195
0.573000000000000398,-3.594169315316114055
0.574000000000000399,-3.572135486179829122
0.575000000000000400,-3.550238078847346657
0.576000000000000401,-3.528475363654499208
0.577000000000000401,-3.506845637572663321
0.578000000000000402,-3.485347224098710228
0.579000000000000403,-3.463978473134759817
0.580000000000000404,-3.442737760858155305
0.581000000000000405,-3.421623489582027666
0.582000000000000406,-3.400634087606906775
0.583000000000000407,-3.379768009063711443
0.584000000000000408,-3.359023733748584650
0.585000000000000409,-3.338399766949869729
0.586000000000000409,-3.317894639267633838
0.587000000000000410,-3.297506906426120654
0.588000000000000411,-3.277235149079420040
0.589000000000000412,-3.257077972610763261
0.590000000000000413,-3.237034006925709750
0.591000000000000414,-3.217101906239621112
0.592000000000000415,-3.197280348859688814
0.593000000000000416,-3.177568036961827769
0.594000000000000417,-3.157963696362745765
0.595000000000000417,-3.138466076287530715
0.596000000000000418,-3.119073949132889378
0.597000000000000419,-3.099786110226536717
0.598000000000000420,-3.080601377582776745
0.599000000000000421,-3.061518591654713184
0.600000000000000422,-3.042536615083237361
0.601000000000000423,-3.023654332443086901
0.602000000000000424,-3.004870649986199904
0.603000000000000425,-2.986184495382607107
0.604000000000000425,-2.967594817459066725
0.605000000000000426,-2.949100585935679142
0.606000000000000427,-2.930700791160722574
0.607000000000000428,-2.912394443843781211
0.608000000000000429,-2.894180574787606819
0.609000000000000430,-2.876058234618612541
