# hydroxyapatite-001-ph10_ETHANAMINE-AC
# h[nm],U(h)[kJ/mol]
0.149999999999999994,69.663369107405841874
0.150999999999999995,69.203036806418396054
0.151999999999999996,68.298323908942705884
0.152999999999999997,67.264153102848055710
0.153999999999999998,66.230257167842950139
0.154999999999999999,65.235380789500013066
0.156000000000000000,64.279252910196760240
0.157000000000000001,63.349370442848417895
0.158000000000000002,62.433319993173753915
0.159000000000000002,61.523235352927621022
0.160000000000000003,60.616328442008772015
0.161000000000000004,59.713748728674730160
0.162000000000000005,58.818986284143193188
0.163000000000000006,57.936410416175213811
0.164000000000000007,57.070177933499522283
0.165000000000000008,56.223552355009111636
0.166000000000000009,55.398582399180028801
0.167000000000000010,54.596052889139130571
0.168000000000000010,53.815617410204495741
0.169000000000000011,53.056033550650568031
0.170000000000000012,52.315438886188943002
0.171000000000000013,51.591623802569110069
0.172000000000000014,50.882273171845596949
0.173000000000000015,50.185161750533481495
0.174000000000000016,49.498297780731533635
0.175000000000000017,48.820015936321446759
0.176000000000000018,48.149024954308188740
0.177000000000000018,47.484417565399994032
0.178000000000000019,46.825651196161018675
0.179000000000000020,46.172507795921681861
0.180000000000000021,45.525040400702451393
0.181000000000000022,44.883512957710102853
0.182000000000000023,44.248338698588568718
0.183000000000000024,43.620021107369765900
0.184000000000000025,42.999100370765454215
0.185000000000000026,42.386107177218775632
0.186000000000000026,41.781524872405888971
0.187000000000000027,41.185760288529323248
0.188000000000000028,40.599123035651700775
0.189000000000000029,40.021812660388107474
0.190000000000000030,39.453912821152549384
0.191000000000000031,38.895391478902254789
0.192000000000000032,38.346106037232644326
0.193000000000000033,37.805812366429961457
0.194000000000000034,37.274176695445113694
0.195000000000000034,36.750789438858909364
0.196000000000000035,36.235180130378417118
0.197000000000000036,35.726832750226307667
0.198000000000000037,35.225200853127716982
0.199000000000000038,34.729722020563151830
0.200000000000000039,34.239831271302939797
0.201000000000000040,33.754973165114137146
0.202000000000000041,33.274612424211319706
0.203000000000000042,32.798242974678203154
0.204000000000000042,32.325395375569982548
0.205000000000000043,31.855642657082739788
0.206000000000000044,31.388604631762518693
0.207000000000000045,30.923950775182628803
0.208000000000000046,30.461401795933149117
0.209000000000000047,30.000730030297841466
0.210000000000000048,29.541758805795062415
0.211000000000000049,29.084360920949414719
0.212000000000000050,28.628456387284280993
0.213000000000000050,28.174009574543312340
0.214000000000000051,27.721025892417419101
0.215000000000000052,27.269548132329259005
0.216000000000000053,26.819652581759875432
0.217000000000000054,26.371445011742583375
0.218000000000000055,25.925056625953828870
0.219000000000000056,25.480640047671720083
0.220000000000000057,25.038365409039769816
0.221000000000000058,24.598416595794990513
0.222000000000000058,24.160987690054682275
0.223000000000000059,23.726279644023634319
0.224000000000000060,23.294497208648746067
0.225000000000000061,22.865846133348043168
0.226000000000000062,22.440530645980548030
0.227000000000000063,22.018751216183993336
0.228000000000000064,21.600702600055551983
0.229000000000000065,21.186572159835577622
0.230000000000000066,20.776538448720859975
0.231000000000000066,20.370770048115893758
0.232000000000000067,19.969424642463177832
0.233000000000000068,19.572648315206340186
0.234000000000000069,19.180575048367689561
0.235000000000000070,18.793326407596762095
0.236000000000000071,18.411011394307898570
0.237000000000000072,18.033726446612611483
0.238000000000000073,17.661555571112781848
0.239000000000000073,17.294570588203747263
0.240000000000000074,16.932831474294950169
0.241000000000000075,16.576386785252406497
0.242000000000000076,16.225274146362952621
0.243000000000000077,15.879520795184742354
0.244000000000000078,15.539144164754924660
0.245000000000000079,15.204152495748733287
0.246000000000000080,14.874545467306514723
0.247000000000000081,14.550314837348347297
0.248000000000000081,14.231445084267642542
0.249000000000000082,13.917914042924167006
0.250000000000000111,13.609693528835382637
0.251000000000000112,13.306749945386011191
0.252000000000000113,13.009044869735992833
0.253000000000000114,12.716535613903422686
0.254000000000000115,12.429175758229710880
0.255000000000000115,12.146915655100166020
0.256000000000000116,11.869702901394228789
0.257000000000000117,11.597482778677697723
0.258000000000000118,11.330198660627084806
0.259000000000000119,11.067792387595551062
0.260000000000000120,10.810204608594457198
0.261000000000000121,10.557375091277908297
0.262000000000000122,10.309243000782345234
0.263000000000000123,10.065747148494160967
0.264000000000000123,9.826826211997826022
0.265000000000000124,9.592418927599720035
0.266000000000000125,9.362464256931787077
0.267000000000000126,9.136901529217720253
0.268000000000000127,8.915670560835945224
0.269000000000000128,8.698711753841797290
0.270000000000000129,8.485966175117997778
0.271000000000000130,8.277375617811333797
0.272000000000000131,8.072882646686917241
0.273000000000000131,7.872430628991315515
0.274000000000000132,7.675963752365045245
0.275000000000000133,7.483427031285141418
0.276000000000000134,7.294766303451344136
0.277000000000000135,7.109928217457207822
0.278000000000000136,6.928860213010554325
0.279000000000000137,6.751510494888525393
0.280000000000000138,6.577828001731660379
0.281000000000000139,6.407762370699630949
0.282000000000000139,6.241263898930350607
0.283000000000000140,6.078283502663690108
0.284000000000000141,5.918772674812712964
0.285000000000000142,5.762683441688926322
0.286000000000000143,5.609968319514296198
0.287000000000000144,5.460580271282347908
0.288000000000000145,5.314472664462815743
0.289000000000000146,5.171599229981007184
0.290000000000000147,5.031914022842100209
0.291000000000000147,4.895371384714567675
0.292000000000000148,4.761925908733752877
0.293000000000000149,4.631532406737849605
0.294000000000000150,4.504145879103132799
0.295000000000000151,4.379721487303744887
0.296000000000000152,4.258214529283288918
0.297000000000000153,4.139580417691149705
0.298000000000000154,4.023774661005075970
0.299000000000000155,3.910752847533876864
0.300000000000000155,3.800470632269126181
0.301000000000000156,3.692883726532937949
0.302000000000000157,3.587947890349654667
0.303000000000000158,3.485618927452867943
0.304000000000000159,3.385852682824888493
0.305000000000000160,3.288605042654190846
0.306000000000000161,3.193831936586343456
0.307000000000000162,3.101489342136290794
0.308000000000000163,3.011533291123808187
0.309000000000000163,2.923919877989497706
0.310000000000000164,2.838605269845831724
0.311000000000000165,2.755545718116194198
0.312000000000000166,2.674697571614441216
0.313000000000000167,2.596017290918310572
0.314000000000000168,2.519461463891666142
0.315000000000000169,2.444986822213055078
0.316000000000000170,2.372550258771370491
0.317000000000000171,2.302108845793294112
0.318000000000000171,2.233619853571699565
0.319000000000000172,2.167040769668999722
0.320000000000000173,2.102329318474831066
0.321000000000000174,2.039443481003005765
0.322000000000000175,1.978341514818493296
0.323000000000000176,1.918981973991227052
0.324000000000000177,1.861323728979636272
0.325000000000000178,1.805325986353063517
0.326000000000000179,1.750948308268313713
0.327000000000000179,1.698150631621976769
0.328000000000000180,1.646893286806179857
0.329000000000000181,1.597137016001481502
0.330000000000000182,1.548842990946743825
0.331000000000000183,1.501972830131372616
0.332000000000000184,1.456488615361219319
0.333000000000000185,1.412352907654768286
0.334000000000000186,1.369528762431571511
0.335000000000000187,1.327979743959978531
0.336000000000000187,1.287669939036025335
0.337000000000000188,1.248563969870154056
0.338000000000000189,1.210627006162630748
0.339000000000000190,1.173824776352897947
0.340000000000000191,1.138123578032026018
0.341000000000000192,1.103490287511103229
0.342000000000000193,1.069892368541986327
0.343000000000000194,1.037297880189970822
0.344000000000000195,1.005675483861258268
0.345000000000000195,0.974994449490526494
0.346000000000000196,0.945224660896928248
0.347000000000000197,0.916336620318945583
0.348000000000000198,0.888301452140873415
0.349000000000000199,0.861090905825660946
0.350000000000000200,0.834677358070628039
0.351000000000000201,0.809033814204237367
0.352000000000000202,0.784133908843530625
0.353000000000000203,0.759951905833102126
0.354000000000000203,0.736462697487598517
0.355000000000000204,0.713641803160783184
0.356000000000000205,0.691465367164904032
0.357000000000000206,0.669910156064822626
0.358000000000000207,0.648953555372031476
0.359000000000000208,0.628573565663961054
0.360000000000000209,0.608748798154365778
0.361000000000000210,0.589458469740877788
0.362000000000000210,0.570682397555757226
0.363000000000000211,0.552400993046085698
0.364000000000000212,0.534595255609424003
0.365000000000000213,0.517246765810939424
0.366000000000000214,0.500337678207738668
0.367000000000000215,0.483850713805872801
0.368000000000000216,0.467769152175133041
0.369000000000000217,0.452076823246427117
0.370000000000000218,0.436758098815985984
0.371000000000000218,0.421797883780279215
0.372000000000000219,0.407181607124892708
0.373000000000000220,0.392895212690122009
0.374000000000000221,0.378925149735436506
0.375000000000000222,0.365258363324395319
0.376000000000000223,0.351882284550823266
0.377000000000000224,0.338784820626593208
0.378000000000000225,0.325954344850536426
0.379000000000000226,0.313379686477425090
0.380000000000000226,0.301050120505165886
0.381000000000000227,0.288955357397801926
0.382000000000000228,0.277085532761064790
0.383000000000000229,0.265431196986612605
0.384000000000000230,0.253983304880385397
0.385000000000000231,0.242733205289729581
0.386000000000000232,0.231672630743380792
0.387000000000000233,0.220793687117558285
0.388000000000000234,0.210088843340912934
0.389000000000000234,0.199550921150224436
0.390000000000000235,0.189173084908234979
0.391000000000000236,0.178948831494263993
0.392000000000000237,0.168871980277664868
0.393000000000000238,0.158936663183533694
0.394000000000000239,0.149137314859507819
0.395000000000000240,0.139468662951852618
0.396000000000000241,0.129925718498511200
0.397000000000000242,0.120503766446203781
0.398000000000000242,0.111198356298103901
0.399000000000000243,0.102005292898157768
0.400000000000000244,0.092920627357521157
0.401000000000000245,0.083940648128133108
0.402000000000000246,0.075061872228030596
0.403000000000000247,0.066281036622410389
0.404000000000000248,0.057595089764161236
0.405000000000000249,0.049001183297035400
0.406000000000000250,0.040496663924339905
0.407000000000000250,0.032079065445522123
0.408000000000000251,0.023746100962753536
0.409000000000000252,0.015495655259200847
0.410000000000000253,0.007325777350345408
0.411000000000000254,-0.000765326790586096
0.412000000000000255,-0.008779301332342015
0.413000000000000256,-0.016717647510103184
0.414000000000000257,-0.024581730374442223
0.415000000000000258,-0.032372785364954117
0.416000000000000258,-0.040091924708807111
0.417000000000000259,-0.047740143644864272
0.418000000000000260,-0.055318326474096582
0.419000000000000261,-0.062827252437329700
0.420000000000000262,-0.070267601421469664
0.421000000000000263,-0.077639959495612670
0.422000000000000264,-0.084944824278529715
0.423000000000000265,-0.092182610139236454
0.424000000000000266,-0.099353653232504516
0.425000000000000266,-0.106458216371226405
0.426000000000000267,-0.113496493737773485
0.427000000000000268,-0.120468615436537016
0.428000000000000269,-0.127374651889934187
0.429000000000000270,-0.134214618080333359
0.430000000000000271,-0.140988477640319132
0.431000000000000272,-0.147696146793926619
0.432000000000000273,-0.154337498151418978
0.433000000000000274,-0.160912364360340565
0.434000000000000274,-0.167420541615574209
0.435000000000000275,-0.173861793031184791
0.436000000000000276,-0.180235851876904940
0.437000000000000277,-0.186542424682099695
0.438000000000000278,-0.192781194210108753
0.439000000000000279,-0.198951822305891118
0.440000000000000280,-0.205053952619874025
0.441000000000000281,-0.211087213210944868
0.442000000000000282,-0.217051219031567960
0.443000000000000282,-0.222945574297888249
0.444000000000000283,-0.228769874747852070
0.445000000000000284,-0.234523709790205315
0.446000000000000285,-0.240206664547300275
0.447000000000000286,-0.245818321794669753
0.448000000000000287,-0.251358263800160686
0.449000000000000288,-0.256826074065577947
0.450000000000000289,-0.262221338973618656
0.451000000000000290,-0.267543649342928069
0.452000000000000290,-0.272792601894083053
0.453000000000000291,-0.277967800629194683
0.454000000000000292,-0.283068858127912715
0.455000000000000293,-0.288095396762460543
0.456000000000000294,-0.293047049834365136
0.457000000000000295,-0.297923462635493297
0.458000000000000296,-0.302724293435924496
0.459000000000000297,-0.307449214401215976
0.460000000000000298,-0.312097912441513026
0.461000000000000298,-0.316670089994944504
0.462000000000000299,-0.321165465747697443
0.463000000000000300,-0.325583775293090683
0.464000000000000301,-0.329924771731974709
0.465000000000000302,-0.334188226216675821
0.466000000000000303,-0.338373928440696914
0.467000000000000304,-0.342481687076339525
0.468000000000000305,-0.346511330162324660
0.469000000000000306,-0.350462705443482403
0.470000000000000306,-0.354335680664546071
0.471000000000000307,-0.358130143819942792
0.472000000000000308,-0.361846003361557478
0.473000000000000309,-0.365483188366309497
0.474000000000000310,-0.369041648665339062
0.475000000000000311,-0.372521354936600102
0.476000000000000312,-0.375922298762559004
0.477000000000000313,-0.379244492654691623
0.478000000000000314,-0.382487970046367587
0.479000000000000314,-0.385652785255762076
0.480000000000000315,-0.388739013420257962
0.481000000000000316,-0.391746750403899113
0.482000000000000317,-0.394676112679272939
0.483000000000000318,-0.397527237185274107
0.484000000000000319,-0.400300281162084715
0.485000000000000320,-0.402995421964673528
0.486000000000000321,-0.405612856856119197
0.487000000000000322,-0.408152802781961976
0.488000000000000322,-0.410615496126764401
0.489000000000000323,-0.413001192454076460
0.490000000000000324,-0.415310166230872191
0.491000000000000325,-0.417542710537543549
0.492000000000000326,-0.419699136764487002
0.493000000000000327,-0.421779774296291432
0.494000000000000328,-0.423784970184463927
0.495000000000000329,-0.425715088809645814
0.496000000000000330,-0.427570511534177744
0.497000000000000330,-0.429351636345923826
0.498000000000000331,-0.431058877494095438
0.499000000000000332,-0.432692665117960229
0.500000000000000333,-0.434253444869135918
0.501000000000000334,-0.435741677528193094
0.502000000000000335,-0.437157838616317462
0.503000000000000336,-0.438502418002643501
0.504000000000000337,-0.439775919507942425
0.505000000000000338,-0.440978860505252257
0.506000000000000338,-0.442111771518044372
0.507000000000000339,-0.443175195816498946
0.508000000000000340,-0.444169689012382407
0.509000000000000341,-0.445095818653109432
0.510000000000000342,-0.445954163815382831
0.511000000000000343,-0.446745314698963114
0.512000000000000344,-0.447469872220927101
0.513000000000000345,-0.448128447610890102
0.514000000000000346,-0.448721662007574185
0.515000000000000346,-0.449250146057068256
0.516000000000000347,-0.449714539513162481
0.517000000000000348,-0.450115490840104659
0.518000000000000349,-0.450453656818048553
0.519000000000000350,-0.450729702151546341
0.520000000000000351,-0.450944299081313615
0.521000000000000352,-0.451098126999589177
0.522000000000000353,-0.451191872069274413
0.523000000000000353,-0.451226226847133094
0.524000000000000354,-0.451201889911247433
0.525000000000000355,-0.451119565492930086
0.526000000000000356,-0.450979963113277094
0.527000000000000357,-0.450783797224563354
0.528000000000000358,-0.450531786856589123
0.529000000000000359,-0.450224655268192109
0.530000000000000360,-0.449863129603983558
0.531000000000000361,-0.449447940556510772
0.532000000000000361,-0.448979822033898635
0.533000000000000362,-0.448459510833104702
0.534000000000000363,-0.447887746318860192
0.535000000000000364,-0.447265270108405666
0.536000000000000365,-0.446592825762052281
0.537000000000000366,-0.445871158479681118
0.538000000000000367,-0.445101014803174155
0.539000000000000368,-0.444283142324901292
0.540000000000000369,-0.443418289402212007
0.541000000000000369,-0.442507204878050953
0.542000000000000370,-0.441550637807633872
0.543000000000000371,-0.440549337191277257
0.544000000000000372,-0.439504051713334398
0.545000000000000373,-0.438415529487279465
0.546000000000000374,-0.437284517806907247
0.547000000000000375,-0.436111762903655109
0.548000000000000376,-0.434898009710041222
0.549000000000000377,-0.433644001629178100
0.550000000000000377,-0.432350480310358498
0.551000000000000378,-0.431018185430662393
0.552000000000000379,-0.429647854482586689
0.553000000000000380,-0.428240222567619178
0.554000000000000381,-0.426796022195741975
0.555000000000000382,-0.425315983090830407
0.556000000000000383,-0.423800832001849925
0.557000000000000384,-0.422251292519874588
0.558000000000000385,-0.420668084900790440
0.559000000000000385,-0.419051925893697608
0.560000000000000386,-0.417403528574911864
0.561000000000000387,-0.415723602187513586
0.562000000000000388,-0.414012851986370833
0.563000000000000389,-0.412271979088604912
0.564000000000000390,-0.410501680329374896
0.565000000000000391,-0.408702648122962142
0.566000000000000392,-0.406875570329045755
0.567000000000000393,-0.405021130124132434
0.568000000000000393,-0.403140005878025065
0.569000000000000394,-0.401232871035280325
0.570000000000000395,-0.399300394001589620
0.571000000000000396,-0.397343238034957413
0.572000000000000397,-0.395362061141665833
0.573000000000000398,-0.393357515976882177
0.574000000000000399,-0.391330249749877290
0.575000000000000400,-0.389280904133741668
0.576000000000000401,-0.387210115179530245
0.577000000000000401,-0.385118513234778248
0.578000000000000402,-0.383006722866258087
0.579000000000000403,-0.380875362786926686
0.580000000000000404,-0.378725045786998282
0.581000000000000405,-0.376556378669006542
0.582000000000000406,-0.374369962186840544
0.583000000000000407,-0.372166390988608708
0.584000000000000408,-0.369946253563306515
0.585000000000000409,-0.367710132191164885
0.586000000000000409,-0.365458602897615281
0.587000000000000410,-0.363192235410808528
0.588000000000000411,-0.360911593122554164
0.589000000000000412,-0.358617233052679896
0.590000000000000413,-0.356309705816648559
0.591000000000000414,-0.353989555596415317
0.592000000000000415,-0.351657320114428906
0.593000000000000416,-0.349313530610679268
0.594000000000000417,-0.346958711822741406
0.595000000000000417,-0.344593381968749779
0.596000000000000418,-0.342218052733166356
0.597000000000000419,-0.339833229255360969
0.598000000000000420,-0.337439410120839500
0.599000000000000421,-0.335037087355115504
0.600000000000000422,-0.332626746420115527
0.601000000000000423,-0.330208866213054342
0.602000000000000424,-0.327783919067726526
0.603000000000000425,-0.325352370758126619
0.604000000000000425,-0.322914680504331031
0.605000000000000426,-0.320471300980583185
0.606000000000000427,-0.318022678325530717
0.607000000000000428,-0.315569252154479396
0.608000000000000429,-0.313111455573727770
0.609000000000000430,-0.310649715196758380
0.610000000000000431,-0.308184451162377970
0.611000000000000432,-0.305716077154634447
0.612000000000000433,-0.303245000424492539
0.613000000000000433,-0.300771621813227974
0.614000000000000434,-0.298296335777443800
0.615000000000000435,-0.295819530415669552
0.616000000000000436,-0.293341587496479206
