# hydroxyapatite-001-ph10_METHOXYMETHANE-AC
# h[nm],U(h)[kJ/mol]
0.149999999999999994,69.685459174518513237
0.150999999999999995,69.273695519705853485
0.151999999999999996,68.363238056059913106
0.152999999999999997,67.315133402548525510
0.153999999999999998,66.278279545904382530
0.154999999999999999,65.296182133559511840
0.156000000000000000,64.366556631803774735
0.157000000000000001,63.472497078594436459
0.158000000000000002,62.597109294625830955
0.159000000000000002,61.729007054170708102
0.160000000000000003,60.863143726391783161
0.161000000000000004,59.999581435582527433
0.162000000000000005,59.141629653973438963
0.163000000000000006,58.294073499346986011
0.164000000000000007,57.461795644073731637
0.165000000000000008,56.648865630524049664
0.166000000000000009,55.858054613425579760
0.167000000000000010,55.090685395912167621
0.168000000000000010,54.346717327923627749
0.169000000000000011,53.624974701641107799
0.170000000000000012,52.923444609238018188
0.171000000000000013,52.239589486312169697
0.172000000000000014,51.570637412056818505
0.173000000000000015,50.913828168349979819
0.174000000000000016,50.266604639107399066
0.175000000000000017,49.626747507751517219
0.176000000000000018,48.992456816149747567
0.177000000000000018,48.362387315650472885
0.178000000000000019,47.735646201099065422
0.179000000000000020,47.111762248557297994
0.180000000000000021,46.490634976416778557
0.181000000000000022,45.872471535591174074
0.182000000000000023,45.257717849020295375
0.183000000000000024,44.646989238924298604
0.184000000000000025,44.041004522384731956
0.185000000000000026,43.440526398768618321
0.186000000000000026,42.846309940066795718
0.187000000000000027,42.259060146980644390
0.188000000000000028,41.679398852195419067
0.189000000000000029,41.107840729128540147
0.190000000000000030,40.544777784116178054
0.191000000000000031,39.990471453506856392
0.192000000000000032,39.445051274237144412
0.193000000000000033,38.908519027281293745
0.194000000000000034,38.380757249384430452
0.195000000000000034,37.861541053145359115
0.196000000000000035,37.350552274503108663
0.197000000000000036,36.847395067993019779
0.198000000000000037,36.351612183991086624
0.199000000000000038,35.862701280828169104
0.200000000000000039,35.380130742221595597
0.201000000000000040,34.903354582611690660
0.202000000000000041,34.431826126707370861
0.203000000000000042,33.965010242933317386
0.204000000000000042,33.502393992502973674
0.205000000000000043,33.043495626172443735
0.206000000000000044,32.587871919529817433
0.207000000000000045,32.135123885489754514
0.208000000000000046,31.684900940293800886
0.209000000000000047,31.236903627728214161
0.210000000000000048,30.790885026509073441
0.211000000000000049,30.346650978928202846
0.212000000000000050,29.904059285957590220
0.213000000000000050,29.463018016089886686
0.214000000000000051,29.023483073183854231
0.215000000000000052,28.585455163346097152
0.216000000000000053,28.148976293178304076
0.217000000000000054,27.714125922223768583
0.218000000000000055,27.281016881740292490
0.219000000000000056,26.849791160497840536
0.220000000000000057,26.420615646559564738
0.221000000000000058,25.993677902287593895
0.222000000000000058,25.569182038384063560
0.223000000000000059,25.147344741841681781
0.224000000000000060,24.728391502385846934
0.225000000000000061,24.312553072452271152
0.226000000000000062,23.900062187026289706
0.227000000000000063,23.491150561812272457
0.228000000000000064,23.086046181212271478
0.229000000000000065,22.684970881462611203
0.230000000000000066,22.288138228979853750
0.231000000000000066,21.895751689461825151
0.232000000000000067,21.508003079529565582
0.233000000000000068,21.125071289625346083
0.234000000000000069,20.747121264442895949
0.235000000000000070,20.374303225299254194
0.236000000000000071,20.006752117501559241
0.237000000000000072,19.644587264858351716
0.238000000000000073,19.287912212976372928
0.239000000000000073,18.936814742816647339
0.240000000000000074,18.591367036104930577
0.241000000000000075,18.251625974557651233
0.242000000000000076,17.917633555448549743
0.243000000000000077,17.589417406766038710
0.244000000000000078,17.266991386061278035
0.245000000000000079,16.950356248029702755
0.246000000000000080,16.639500366877992832
0.247000000000000081,16.334400500578439619
0.248000000000000081,16.035022585183821064
0.249000000000000082,15.741322548449909746
0.250000000000000111,15.453247133074262010
0.251000000000000112,15.170734720897627312
0.252000000000000113,14.893716150416782540
0.253000000000000114,14.622115520918594456
0.254000000000000115,14.355850977456555029
0.255000000000000115,14.094835471750361222
0.256000000000000116,13.838977494891773645
0.257000000000000117,13.588181778485118656
0.258000000000000118,13.342349961537212977
0.259000000000000119,13.101381221039337888
0.260000000000000120,12.865172864754057969
0.261000000000000121,12.633620885233602493
0.262000000000000122,12.406620474556243394
0.263000000000000123,12.184066499674695905
0.264000000000000123,11.965853938628915998
0.265000000000000124,11.751878278187280813
0.266000000000000125,11.542035873748348607
0.267000000000000126,11.336224272562878568
0.268000000000000127,11.134342501525548386
0.269000000000000128,10.936291320941556648
0.270000000000000129,10.741973445797018627
0.271000000000000130,10.551293736157390413
0.272000000000000131,10.364159358387681209
0.273000000000000131,10.180479918934654648
0.274000000000000132,10.000167572436879482
0.275000000000000133,9.823137105936243785
0.276000000000000134,9.649306000956162421
0.277000000000000135,9.478594475189849433
0.278000000000000136,9.310925505507926303
0.279000000000000137,9.146224833950707733
0.280000000000000138,8.984420958318544592
0.281000000000000139,8.825445108913951842
0.282000000000000139,8.669231212925055274
0.283000000000000140,8.515715847870778177
0.284000000000000141,8.364838185456212827
0.285000000000000142,8.216539927112606279
0.286000000000000143,8.070765232420775703
0.287000000000000144,7.927460641541178354
0.288000000000000145,7.786574992697817166
0.289000000000000146,7.648059335688719429
0.290000000000000147,7.511866842321677673
0.291000000000000147,7.377952714602374229
0.292000000000000148,7.246274091431989639
0.293000000000000149,7.116789954504073812
0.294000000000000150,6.989461034025478803
0.295000000000000151,6.864249714824151916
0.296000000000000152,6.741119943347345433
0.297000000000000153,6.620037135997774769
0.298000000000000154,6.500968089201968780
0.299000000000000155,6.383880891555314463
0.300000000000000155,6.268744838341185677
0.301000000000000156,6.155530348677975994
0.302000000000000157,6.044208885506829887
0.303000000000000158,5.934752878595282333
0.304000000000000159,5.827135650696914304
0.305000000000000160,5.721331346975174093
0.306000000000000161,5.617314867769951370
0.307000000000000162,5.515061804758744302
0.308000000000000163,5.414548380539882189
0.309000000000000163,5.315751391643316559
0.310000000000000164,5.218648154954685481
0.311000000000000165,5.123216457520774370
0.312000000000000166,5.029434509688886834
0.313000000000000167,4.937280901518809273
0.314000000000000168,4.846734562394194867
0.315000000000000169,4.757774723749706780
0.316000000000000170,4.670380884821496714
0.317000000000000171,4.584532781321177808
0.318000000000000171,4.500210356927409450
0.319000000000000172,4.417393737484082372
0.320000000000000173,4.336063207790584073
0.321000000000000174,4.256199190866624349
0.322000000000000175,4.177782229572248873
0.323000000000000176,4.100792970462672216
0.324000000000000177,4.025212149757189550
0.325000000000000178,3.951020581301873502
0.326000000000000179,3.878199146406549946
0.327000000000000179,3.806728785438289187
0.328000000000000180,3.736590491055365781
0.329000000000000181,3.667765302968170715
0.330000000000000182,3.600234304116164630
0.331000000000000183,3.533978618153060580
0.332000000000000184,3.468979408135643983
0.333000000000000185,3.405217876315132397
0.334000000000000186,3.342675264933669066
0.335000000000000187,3.281332857932261593
0.336000000000000187,3.221171983480371814
0.337000000000000188,3.162174017241466295
0.338000000000000189,3.104320386292599210
0.339000000000000190,3.047592573620287570
0.340000000000000191,2.991972123118952887
0.341000000000000192,2.937440645022114882
0.342000000000000193,2.883979821700534796
0.343000000000000194,2.831571413765363143
0.344000000000000195,2.780197266418281909
0.345000000000000195,2.729839315994183391
0.346000000000000196,2.680479596645791052
0.347000000000000197,2.632100247123043690
0.348000000000000198,2.584683517603566294
0.349000000000000199,2.538211776533893627
0.350000000000000200,2.492667517444281167
0.351000000000000201,2.448033365703099040
0.352000000000000202,2.404292085179743133
0.353000000000000203,2.361426584787825966
0.354000000000000203,2.319419924883145079
0.355000000000000204,2.278255323493579620
0.356000000000000205,2.237916162360418681
0.357000000000000206,2.198385992773014497
0.358000000000000207,2.159648541180948289
0.359000000000000208,2.121687714569864713
0.360000000000000209,2.084487605589141701
0.361000000000000210,2.048032497421514719
0.362000000000000210,2.012306868386347425
0.363000000000000211,1.977295396270031702
0.364000000000000212,1.942982962378398071
0.365000000000000213,1.909354655307519577
0.366000000000000214,1.876395774430553498
0.367000000000000215,1.844091833099533506
0.368000000000000216,1.812428561562042351
0.369000000000000217,1.781391909593921241
0.370000000000000218,1.750968048849880887
0.371000000000000218,1.721143374934970272
0.372000000000000219,1.691904509200470530
0.373000000000000220,1.663238300268591319
0.374000000000000221,1.635131825290953911
0.375000000000000222,1.607572390946481189
0.376000000000000223,1.580547534184654435
0.377000000000000224,1.554045022720778046
0.378000000000000225,1.528052855290102929
0.379000000000000226,1.502559261668110269
0.380000000000000226,1.477552702464439704
0.381000000000000227,1.453021868698340935
0.382000000000000228,1.428955681163550651
0.383000000000000229,1.405343289590792022
0.384000000000000230,1.382174071616171673
0.385000000000000231,1.359437631563761517
0.386000000000000232,1.337123799050844886
0.387000000000000233,1.315222627424184720
0.388000000000000234,1.293724392035777715
0.389000000000000234,1.272619588366441956
0.390000000000000235,1.251898930005578725
0.391000000000000236,1.231553346495369627
0.392000000000000237,1.211573981047533666
0.393000000000000238,1.191952188140706692
0.394000000000000239,1.172679531006343812
0.395000000000000240,1.153747779010912744
0.396000000000000241,1.135148904941957637
0.397000000000000242,1.116875082205533110
0.398000000000000242,1.098918681942186781
0.399000000000000243,1.081272270068659891
0.400000000000000244,1.063928604252110777
0.401000000000000245,1.046880630823561642
0.402000000000000246,1.030121481637111369
0.403000000000000247,1.013644470881083670
0.404000000000000248,0.997443091847250329
0.405000000000000249,0.981511013663934895
0.406000000000000250,0.965842077998662729
0.407000000000000250,0.950430295735729125
0.408000000000000251,0.935269843633930065
0.409000000000000252,0.920355060969424654
0.410000000000000253,0.905680446168488751
0.411000000000000254,0.891240653434745456
0.412000000000000255,0.877030489375222766
0.413000000000000256,0.863044909629342549
0.414000000000000257,0.849279015504859958
0.415000000000000258,0.835728050624385377
0.416000000000000258,0.822387397586150426
0.417000000000000259,0.809252574642259304
0.418000000000000260,0.796319232397663890
0.419000000000000261,0.783583150532778605
0.420000000000000262,0.771040234552585746
0.421000000000000263,0.758686512564779592
0.422000000000000264,0.746518132089472486
0.423000000000000265,0.734531356902690336
0.424000000000000266,0.722722563915774829
0.425000000000000266,0.711088240092709656
0.426000000000000267,0.699624979407108882
0.427000000000000268,0.688329479840583791
0.428000000000000269,0.677198540424012174
0.429000000000000270,0.666229058323041579
0.430000000000000271,0.655418025969179197
0.431000000000000272,0.644762528237489696
0.432000000000000273,0.634259739672010658
0.433000000000000274,0.623906921759707633
0.434000000000000274,0.613701420253783381
0.435000000000000275,0.603640662547022755
0.436000000000000276,0.593722155095718351
0.437000000000000277,0.583943480894682621
0.438000000000000278,0.574302297003721485
0.439000000000000279,0.564796332125852785
0.440000000000000280,0.555423384237498707
0.441000000000000281,0.546181318270786642
0.442000000000000282,0.537068063847984112
0.443000000000000282,0.528081613068107414
0.444000000000000283,0.519220018345562084
0.445000000000000284,0.510481390300715487
0.446000000000000285,0.501863895702192364
0.447000000000000286,0.493365755460577926
0.448000000000000287,0.484985242673308670
0.449000000000000288,0.476720680720284284
0.450000000000000289,0.468570441409874749
0.451000000000000290,0.460532943174822962
0.452000000000000290,0.452606649317543130
0.453000000000000291,0.444790066304334153
0.454000000000000292,0.437081742107882920
0.455000000000000293,0.429480264597499217
0.456000000000000294,0.421984259976450615
0.457000000000000295,0.414592391265725446
0.458000000000000296,0.407303356833576991
0.459000000000000297,0.400115888970129230
0.460000000000000298,0.393028752506333734
0.461000000000000298,0.386040743476540382
0.462000000000000299,0.379150687823929744
0.463000000000000300,0.372357440148056940
0.464000000000000301,0.365659882493698629
0.465000000000000302,0.359056923180248788
0.466000000000000303,0.352547495670859579
0.467000000000000304,0.346130557480499701
0.468000000000000305,0.339805089122166282
0.469000000000000306,0.333570093090412967
0.470000000000000306,0.327424592881357002
0.471000000000000307,0.321367632048416563
0.472000000000000308,0.315398273292892939
0.473000000000000309,0.309515597588614078
0.474000000000000310,0.303718703339835860
0.475000000000000311,0.298006705571563946
0.476000000000000312,0.292378735151512470
0.477000000000000313,0.286833938042876990
0.478000000000000314,0.281371474587156278
0.479000000000000314,0.275990518816189079
0.480000000000000315,0.270690257792665978
0.481000000000000316,0.265469890978305645
0.482000000000000317,0.260328629628955532
0.483000000000000318,0.255265696215832893
0.484000000000000319,0.250280323872177413
0.485000000000000320,0.245371755864563529
0.486000000000000321,0.240539245088140147
0.487000000000000322,0.235782053585083501
0.488000000000000322,0.231099452085568091
0.489000000000000323,0.226490719570518806
0.490000000000000324,0.221955142855499471
0.491000000000000325,0.217492016195038135
0.492000000000000326,0.213100640906743688
0.493000000000000327,0.208780325014536861
0.494000000000000328,0.204530382910390690
0.495000000000000329,0.200350135033919186
0.496000000000000330,0.196238907569243282
0.497000000000000330,0.192196032158464730
0.498000000000000331,0.188220845631259348
0.499000000000000332,0.184312689749905917
0.500000000000000333,0.180470910969252107
0.501000000000000334,0.176694860211073890
0.502000000000000335,0.172983892652233184
0.503000000000000336,0.169337367526170984
0.504000000000000337,0.165754647937176369
0.505000000000000338,0.162235100686963701
0.506000000000000338,0.158778096113043971
0.507000000000000339,0.155383007938431655
0.508000000000000340,0.152049213132230354
0.509000000000000341,0.148776091780603414
0.510000000000000342,0.145563026967756498
0.511000000000000343,0.142409404666438671
0.512000000000000344,0.139314613637599727
0.513000000000000345,0.136278045338767140
0.514000000000000346,0.133299093840751309
0.515000000000000346,0.130377155752319507
0.516000000000000347,0.127511630152456562
0.517000000000000348,0.124701918529834477
0.518000000000000349,0.121947424729180409
0.519000000000000350,0.119247554904168857
0.520000000000000351,0.116601717476545505
0.521000000000000352,0.114009323101123175
0.522000000000000353,0.111469784636393190
0.523000000000000353,0.108982517120413208
0.524000000000000354,0.106546937751705567
0.525000000000000355,0.104162465874883869
0.526000000000000356,0.101828522970746405
0.527000000000000357,0.099544532650557377
0.528000000000000358,0.097309920654294668
0.529000000000000359,0.095124114852588273
0.530000000000000360,0.092986545252162919
0.531000000000000361,0.090896644004505103
0.532000000000000361,0.088853845417585134
0.533000000000000362,0.086857585970400247
0.534000000000000363,0.084907304330151562
0.535000000000000364,0.083002441371844621
0.536000000000000365,0.081142440200155985
0.537000000000000366,0.079326746173354140
0.538000000000000367,0.077554806929146375
0.539000000000000368,0.075826072412227663
0.540000000000000369,0.074139994903446776
0.541000000000000369,0.072496029050363647
0.542000000000000370,0.070893631899126439
0.543000000000000371,0.069332262927467997
0.544000000000000372,0.067811384078727305
0.545000000000000373,0.066330459796752103
0.546000000000000374,0.064888957061573632
0.547000000000000375,0.063486345425725454
0.548000000000000376,0.062122097051104996
0.549000000000000377,0.060795686746271962
0.550000000000000377,0.059506592004072968
0.551000000000000378,0.058254293039524431
0.552000000000000379,0.057038272827823179
0.553000000000000380,0.055858017142435157
0.554000000000000381,0.054713014593172724
0.555000000000000382,0.053602756664150500
0.556000000000000383,0.052526737751612027
0.557000000000000384,0.051484455201478971
0.558000000000000385,0.050475409346636982
0.559000000000000385,0.049499103543834320
0.560000000000000386,0.048555044210163933
0.561000000000000387,0.047642740859075258
0.562000000000000388,0.046761706135865978
0.563000000000000389,0.045911455852581294
0.564000000000000390,0.045091509022315332
0.565000000000000391,0.044301387892839147
0.566000000000000392,0.043540617979543263
0.567000000000000393,0.042808728097627737
0.568000000000000393,0.042105250393545776
0.569000000000000394,0.041429720375636150
0.570000000000000395,0.040781676943929555
0.571000000000000396,0.040160662419117775
0.572000000000000397,0.039566222570623200
0.573000000000000398,0.038997906643798416
0.574000000000000399,0.038455267386185765
0.575000000000000400,0.037937861072865120
0.576000000000000401,0.037445247530848456
0.577000000000000401,0.036976990162496962
0.578000000000000402,0.036532655967985252
0.579000000000000403,0.036111815566787740
0.580000000000000404,0.035714043218140278
0.581000000000000405,0.035338916840550884
0.582000000000000406,0.034986018030264923
0.583000000000000407,0.034654932078757840
0.584000000000000408,0.034345247989195707
0.585000000000000409,0.034056558491897808
0.586000000000000409,0.033788460058790729
0.587000000000000410,0.033540552916836740
0.588000000000000411,0.033312441060485989
0.589000000000000412,0.033103732263087486
0.590000000000000413,0.032914038087338483
0.591000000000000414,0.032742973894714214
0.592000000000000415,0.032590158853917604
0.593000000000000416,0.032455215948354897
0.594000000000000417,0.032337771982638000
0.595000000000000417,0.032237457588097228
0.596000000000000418,0.032153907227386903
0.597000000000000419,0.032086759198093506
0.598000000000000420,0.032035655635450237
0.599000000000000421,0.032000242514101107
0.600000000000000422,0.031980169648961568
0.601000000000000423,0.031975090695187350
0.602000000000000424,0.031984663147237843
0.603000000000000425,0.032008548337071917
0.604000000000000425,0.032046411431491485
0.605000000000000426,0.032097921428623909
0.606000000000000427,0.032162751153561472
0.607000000000000428,0.032240577253223268
0.608000000000000429,0.032331080190342122
0.609000000000000430,0.032433944236736588
0.610000000000000431,0.032548857465743951
0.611000000000000432,0.032675511743928964
0.612000000000000433,0.032813602722042909
0.613000000000000433,0.032962829825234130
0.614000000000000434,0.033122896242561373
0.615000000000000435,0.033293508915805271
0.616000000000000436,0.033474378527604355
0.617000000000000437,0.033665219488895781
0.618000000000000438,0.033865749925736287
0.619000000000000439,0.034075691665480065
0.620000000000000440,0.034294770222327228
