# CNT15-COO--10_ARGSCA-AC
# h[nm],U(h)[kJ/mol]
0.200000000000000011,83.756156083689845104
0.201000000000000012,81.740514815322811160
0.202000000000000013,79.896192261003278645
0.203000000000000014,78.156485969556143800
0.204000000000000015,76.478008863105998216
0.205000000000000016,74.833934803314463124
0.206000000000000016,73.208917021970620453
0.207000000000000017,71.595317506613170622
0.208000000000000018,69.990454352367379443
0.209000000000000019,68.394631621836950330
0.210000000000000020,66.809763920010396987
0.211000000000000021,65.238447099216884340
0.212000000000000022,63.683358533730803686
0.213000000000000023,62.146896376727546851
0.214000000000000024,60.630988126465254595
0.215000000000000024,59.137015543976112042
0.216000000000000025,57.665816219261657238
0.217000000000000026,56.217732504748013866
0.218000000000000027,54.792686653217494097
0.219000000000000028,53.390267256225129699
0.220000000000000029,52.009816847119815009
0.221000000000000030,50.650514115083169031
0.222000000000000031,49.311446823314831533
0.223000000000000032,47.991673439689101599
0.224000000000000032,46.690272837176053145
0.225000000000000033,45.406382337040888331
0.226000000000000034,44.139224956496711627
0.227000000000000035,42.888127068250618379
0.228000000000000036,41.652527848355759943
0.229000000000000037,40.431981932421003023
0.230000000000000038,39.226156658137213640
0.231000000000000039,38.034825174359539801
0.232000000000000040,36.857856566176778301
0.233000000000000040,35.695203998059469086
0.234000000000000041,34.546891725185432165
0.235000000000000042,33.413001674645421701
0.236000000000000043,32.293660158893693790
0.237000000000000044,31.189025156900100910
0.238000000000000045,30.099274485773076293
0.239000000000000046,29.024595087828782169
0.240000000000000047,27.965173575027232999
0.241000000000000048,26.921188103699204675
0.242000000000000048,25.892801596496742178
0.243000000000000049,24.880156284266806921
0.244000000000000050,23.883369506733117760
0.245000000000000051,22.902530686103574453
0.246000000000000052,21.937699370690449285
0.247000000000000053,20.988904235080891425
0.248000000000000054,20.056142918185777546
0.249000000000000055,19.139382579588605893
0.250000000000000056,18.238561057095445506
0.251000000000000056,17.353588513450198150
0.252000000000000057,16.484349467137576539
0.253000000000000058,15.630705110466422525
0.254000000000000059,14.792495827217701176
0.255000000000000060,13.969543831658313593
0.256000000000000061,13.161655860338090207
0.257000000000000062,12.368625857550958003
0.258000000000000063,11.590237604455394305
0.259000000000000064,10.826267250470579029
0.260000000000000064,10.076485713589923066
0.261000000000000065,9.340660923619070743
0.262000000000000066,8.618559889009485886
0.263000000000000067,7.909950573913890892
0.264000000000000068,7.214603577336821338
0.265000000000000069,6.532293610813954210
0.266000000000000070,5.862800774960591710
0.267000000000000071,5.205911638517423334
0.268000000000000071,4.561420126239316808
0.269000000000000072,3.929128224164128991
0.270000000000000073,3.308846512514488580
0.271000000000000074,2.700394537775280490
0.272000000000000075,2.103601036399927349
0.273000000000000076,1.518304023178764783
0.274000000000000077,0.944350757594505930
0.275000000000000078,0.381597601536477093
0.276000000000000079,-0.170090218414653022
0.277000000000000079,-0.710838931253003459
0.278000000000000080,-1.240766611955744558
0.279000000000000081,-1.759983630207674565
0.280000000000000082,-2.268593146281451922
0.281000000000000083,-2.766691643641217446
0.282000000000000084,-3.254369488605985516
0.283000000000000085,-3.731711508202605554
0.284000000000000086,-4.198797578141670428
0.285000000000000087,-4.655703213648232364
0.286000000000000087,-5.102500156666119224
0.287000000000000088,-5.539256953718113330
0.288000000000000089,-5.966039519438796290
0.289000000000000090,-6.382911681497724032
0.290000000000000091,-6.789935703291322788
0.291000000000000092,-7.187172781403442734
0.292000000000000093,-7.574683515410659318
0.293000000000000094,-7.952528348141830072
0.294000000000000095,-8.320767974988992677
0.295000000000000095,-8.679463721311771351
0.296000000000000096,-9.028677887377039468
0.297000000000000097,-9.368474060635200829
0.298000000000000098,-9.698917395451898571
0.299000000000000099,-10.020074860694153429
0.300000000000000100,-10.332015455812385341
0.301000000000000101,-10.634810396269099186
0.302000000000000102,-10.928533269340750422
0.303000000000000103,-11.213260161467136555
0.304000000000000103,-11.489069758440979996
0.305000000000000104,-11.756043419825298102
0.306000000000000105,-12.014265229057055961
0.307000000000000106,-12.263822020746276920
0.308000000000000107,-12.504803386711715874
0.309000000000000108,-12.737301662309480577
0.310000000000000109,-12.961411894611973850
0.311000000000000110,-13.177231793981496466
0.312000000000000111,-13.384861670560479041
0.313000000000000111,-13.584404357166253163
0.314000000000000112,-13.775965120037465539
0.315000000000000113,-13.959651558831101426
0.316000000000000114,-14.135573497215125016
0.317000000000000115,-14.303842865343796120
0.318000000000000116,-14.464573575440695663
0.319000000000000117,-14.617881391650566769
0.320000000000000118,-14.763883795254617581
0.321000000000000119,-14.902699846277503326
0.322000000000000119,-15.034450042446398044
0.323000000000000120,-15.159256176395274451
0.324000000000000121,-15.277241191941731913
0.325000000000000122,-15.388529040197585829
0.326000000000000123,-15.493244536211159712
0.327000000000000124,-15.591513216776746731
0.328000000000000125,-15.683461199987203116
0.329000000000000126,-15.769215047047429934
0.330000000000000127,-15.848901626811429111
0.331000000000000127,-15.922647983452918652
0.332000000000000128,-15.990581207629059435
0.333000000000000129,-16.052828311449797383
0.334000000000000130,-16.109516107520107653
0.335000000000000131,-16.160771092281041916
0.336000000000000132,-16.206719333835430064
0.337000000000000133,-16.247486364408153747
0.338000000000000134,-16.283197077556529564
0.339000000000000135,-16.313975630214908819
0.340000000000000135,-16.339945349628901994
0.341000000000000136,-16.361228645207916088
0.342000000000000137,-16.377946925300449266
0.343000000000000138,-16.390220518874791367
0.344000000000000139,-16.398168602067745070
0.345000000000000140,-16.401909129546275778
0.346000000000000141,-16.401558770611050164
0.347000000000000142,-16.397232849956566270
0.348000000000000143,-16.389045292990580549
0.349000000000000143,-16.377108575604253815
0.350000000000000144,-16.361533678275652193
0.351000000000000145,-16.342430044380872545
0.352000000000000146,-16.319905542581064850
0.353000000000000147,-16.294066433147573747
0.354000000000000148,-16.265017338083875842
0.355000000000000149,-16.232861214899177327
0.356000000000000150,-16.197699333886681927
0.357000000000000151,-16.159631258757872985
0.358000000000000151,-16.118754830483563723
0.359000000000000152,-16.075166154192658041
0.360000000000000153,-16.028959588980086437
0.361000000000000154,-15.980227740476854237
0.362000000000000155,-15.929061456036716748
0.363000000000000156,-15.875549822396527233
0.364000000000000157,-15.819780165669488525
0.365000000000000158,-15.761838053534129145
0.366000000000000159,-15.701807299484539016
0.367000000000000159,-15.639769969011160455
0.368000000000000160,-15.575806387585398483
0.369000000000000161,-15.509995150324735746
0.370000000000000162,-15.442413133219508481
0.371000000000000163,-15.373135505806619250
0.372000000000000164,-15.302235745179364912
0.373000000000000165,-15.229785651227370380
0.374000000000000166,-15.155855363004514302
0.375000000000000167,-15.080513376127271385
0.376000000000000167,-15.003826561110226834
0.377000000000000168,-14.925860182549675059
0.378000000000000169,-14.846677919070558005
0.379000000000000170,-14.766341883956240366
0.380000000000000171,-14.684912646384518098
0.381000000000000172,-14.602449253197544721
0.382000000000000173,-14.519009251137024563
0.383000000000000174,-14.434648709480239148
0.384000000000000175,-14.349422243015718337
0.385000000000000175,-14.263383035301416157
0.386000000000000176,-14.176582862151601461
0.387000000000000177,-14.089072115301927823
0.388000000000000178,-14.000899826205719378
0.389000000000000179,-13.912113689917365633
0.390000000000000180,-13.822760089021887353
0.391000000000000181,-13.732884117572675464
0.392000000000000182,-13.642529605002090776
0.393000000000000183,-13.551739139972227122
0.394000000000000183,-13.460554094135877889
0.395000000000000184,-13.369014645779946804
0.396000000000000185,-13.277159803325911724
0.397000000000000186,-13.185027428664231053
0.398000000000000187,-13.092654260301440416
0.399000000000000188,-13.000075936300888202
0.400000000000000189,-12.907327016999712299
0.401000000000000190,-12.814441007486431445
0.402000000000000191,-12.721450379825403942
0.403000000000000191,-12.628386595015591354
0.404000000000000192,-12.535280124672734559
0.405000000000000193,-12.442160472425459972
0.406000000000000194,-12.349056195016880011
0.407000000000000195,-12.255994923104765348
0.408000000000000196,-12.163003381754112553
0.409000000000000197,-12.070107410617264776
0.410000000000000198,-11.977331983797594006
0.411000000000000199,-11.884701229393559885
0.412000000000000199,-11.792238448720912203
0.413000000000000200,-11.699966135211532503
0.414000000000000201,-11.607905992988076349
0.415000000000000202,-11.516078955114185334
0.416000000000000203,-11.424505201520794628
0.417000000000000204,-11.333204176609351421
0.418000000000000205,-11.242194606533473689
0.419000000000000206,-11.151494516160944670
0.420000000000000207,-11.061121245718162243
0.421000000000000207,-10.971091467119986618
0.422000000000000208,-10.881421199987608261
0.423000000000000209,-10.792125827357942569
0.424000000000000210,-10.703220111088018740
0.425000000000000211,-10.614718206957922675
0.426000000000000212,-10.526633679476546490
0.427000000000000213,-10.438979516393864344
0.428000000000000214,-10.351768142924338889
0.429000000000000214,-10.265011435685551078
0.430000000000000215,-10.178720736356620336
0.431000000000000216,-10.092906865061063826
0.432000000000000217,-10.007580133478477080
0.433000000000000218,-9.922750357689873013
0.434000000000000219,-9.838426870761262322
0.435000000000000220,-9.754618535070260776
0.436000000000000221,-9.671333754380311731
0.437000000000000222,-9.588580485667309361
0.438000000000000222,-9.506366250703237597
0.439000000000000223,-9.424698147401569415
0.440000000000000224,-9.343582860928901113
0.441000000000000225,-9.263026674587436560
0.442000000000000226,-9.183035480473002110
0.443000000000000227,-9.103614789912727545
0.444000000000000228,-9.024769743687137691
0.445000000000000229,-8.946505122040759872
0.446000000000000230,-8.868825354485565526
0.447000000000000230,-8.791734529401523446
0.448000000000000231,-8.715236403438291646
0.449000000000000232,-8.639334410722083746
0.450000000000000233,-8.564031671871763507
0.451000000000000234,-8.489331002827906758
0.452000000000000235,-8.415234923498818631
0.453000000000000236,-8.341745666226961120
0.454000000000000237,-8.268865184079718489
0.455000000000000238,-8.196595158967795669
0.456000000000000238,-8.124937009594907167
0.457000000000000239,-8.053891899241971686
0.458000000000000240,-7.983460743389326986
0.459000000000000241,-7.913644217179912843
0.460000000000000242,-7.844442762726883345
0.461000000000000243,-7.775856596268407195
0.462000000000000244,-7.707885715172953844
0.463000000000000245,-7.640529904797626060
0.464000000000000246,-7.573788745202757688
0.465000000000000246,-7.507661617725238656
0.466000000000000247,-7.442147711413451994
0.467000000000000248,-7.377246029326350651
0.468000000000000249,-7.312955394699312883
0.469000000000000250,-7.249274456979209802
0.470000000000000251,-7.186201697731182669
0.471000000000000252,-7.123735436419392109
0.472000000000000253,-7.061873836064251009
0.473000000000000254,-7.000614908778166168
0.474000000000000254,-6.939956521182168103
0.475000000000000255,-6.879896399705462962
0.476000000000000256,-6.820432135770097659
0.477000000000000257,-6.761561190862693138
0.478000000000000258,-6.703280901495285882
0.479000000000000259,-6.645588484057237899
0.480000000000000260,-6.588481039560107888
0.481000000000000261,-6.531955558277303453
0.482000000000000262,-6.476008924280402645
0.483000000000000262,-6.420637919873909638
0.484000000000000263,-6.365839229930100096
0.485000000000000264,-6.311609446125787670
0.486000000000000265,-6.257945071082614774
0.487000000000000266,-6.204842522412453931
0.488000000000000267,-6.152298136669607231
0.489000000000000268,-6.100308173211355545
0.490000000000000269,-6.048868817968293676
0.491000000000000270,-5.997976187126146996
0.492000000000000270,-5.947626330720342303
0.493000000000000271,-5.897815236144973383
0.494000000000000272,-5.848538831577445585
0.495000000000000273,-5.799792989320272873
0.496000000000000274,-5.751573529061429824
0.497000000000000275,-5.703876221054530404
0.498000000000000276,-5.656696789220246657
0.499000000000000277,-5.610030914170250682
0.500000000000000222,-5.563874236154952690
0.501000000000000334,-5.518222357936330980
0.502000000000000224,-5.473070847587154120
0.503000000000000336,-5.428415241217667386
0.504000000000000226,-5.384251045631232024
0.505000000000000338,-5.340573740909773548
0.506000000000000227,-5.297378782930613816
0.507000000000000339,-5.254661605815466707
0.508000000000000229,-5.212417624313071762
0.509000000000000341,-5.170642236116344215
0.510000000000000231,-5.129330824115452714
0.511000000000000343,-5.088478758587578810
0.512000000000000233,-5.048081399324809482
0.513000000000000345,-5.008134097700915000
0.514000000000000234,-4.968632198678469614
0.515000000000000346,-4.929571042756878185
0.516000000000000236,-4.890945967862855959
0.517000000000000348,-4.852752311183989420
0.518000000000000238,-4.814985410946716726
0.519000000000000350,-4.777640608139440026
0.520000000000000240,-4.740713248182009565
0.521000000000000352,-4.704198682542457988
0.522000000000000242,-4.668092270301936075
0.523000000000000353,-4.632389379668873985
0.524000000000000243,-4.597085389443280157
0.525000000000000355,-4.562175690432132669
0.526000000000000245,-4.527655686816834724
0.527000000000000357,-4.493520797473534500
0.528000000000000247,-4.459766457247394733
0.529000000000000359,-4.426388118181540321
0.530000000000000249,-4.393381250701723140
0.531000000000000361,-4.360741344757427918
0.532000000000000250,-4.328463910920490321
0.533000000000000362,-4.296544481441864960
0.534000000000000252,-4.264978611267560282
0.535000000000000364,-4.233761879014508622
0.536000000000000254,-4.202889887907245381
0.537000000000000366,-4.172358266676099880
0.538000000000000256,-4.142162670417944170
0.539000000000000368,-4.112298781419988281
0.540000000000000258,-4.082762309947755242
0.541000000000000369,-4.053548994997676402
0.542000000000000259,-4.024654605015402176
0.543000000000000371,-3.996074938580318925
0.544000000000000261,-3.967805825057215685
0.545000000000000373,-3.939843125215731767
0.546000000000000263,-3.912182731818431680
0.547000000000000375,-3.884820570178028731
0.548000000000000265,-3.857752598684788037
0.549000000000000377,-3.830974809304460216
0.550000000000000266,-3.804483228047749410
0.551000000000000378,-3.778273915411781925
0.552000000000000268,-3.752342966794398826
0.553000000000000380,-3.726686512881831614
0.554000000000000270,-3.701300720010548329
0.555000000000000382,-3.676181790503733282
0.556000000000000272,-3.651325962983287265
0.557000000000000384,-3.626729512657687504
0.558000000000000274,-3.602388751586651949
0.559000000000000385,-3.578300028922885900
0.560000000000000275,-3.554459731131826228
0.561000000000000387,-3.530864282189743797
0.562000000000000277,-3.507510143760893762
0.563000000000000389,-3.484393815354291490
0.564000000000000279,-3.461511834460653692
0.565000000000000391,-3.438860776670066510
0.566000000000000281,-3.416437255770932602
0.567000000000000393,-3.394237923830726977
0.568000000000000282,-3.372259471259151375
0.569000000000000394,-3.350498626854076178
0.570000000000000284,-3.328952157830944891
0.571000000000000396,-3.307616869836003559
0.572000000000000286,-3.286489606943990172
0.573000000000000398,-3.265567251640586477
0.574000000000000288,-3.244846724790304116
0.575000000000000400,-3.224324985590159454
0.576000000000000290,-3.203999031509608297
0.577000000000000401,-3.183865898217224100
0.578000000000000291,-3.163922659494556200
0.579000000000000403,-3.144166427137559783
0.580000000000000293,-3.124594350846117585
0.581000000000000405,-3.105203618101944230
0.582000000000000295,-3.085991454035426962
0.583000000000000407,-3.066955121281671914
0.584000000000000297,-3.048091919826240392
0.585000000000000409,-3.029399186840926017
0.586000000000000298,-3.010874296509972403
0.587000000000000410,-2.992514659847047565
0.588000000000000300,-2.974317724503441340
0.589000000000000412,-2.956280974567699449
0.590000000000000302,-2.938401930357186664
0.591000000000000414,-2.920678148201824698
0.592000000000000304,-2.903107220220384921
0.593000000000000416,-2.885686774089593953
0.594000000000000306,-2.868414472806502413
0.595000000000000417,-2.851288014444272712
0.596000000000000307,-2.834305131901800223
0.597000000000000419,-2.817463592647414750
0.598000000000000309,-2.800761198456995782
0.599000000000000421,-2.784195785146698299
0.600000000000000311,-2.767765222300694106
0.601000000000000423,-2.751467412994064166
0.602000000000000313,-2.735300293511236269
0.603000000000000425,-2.719261833060071964
0.604000000000000314,-2.703350033482059267
0.605000000000000426,-2.687562928958608932
0.606000000000000316,-2.671898585713938346
0.607000000000000428,-2.656355101714555911
0.608000000000000318,-2.640930606365774480
0.609000000000000430,-2.625623260205284026
0.610000000000000320,-2.610431254594165473
0.611000000000000432,-2.595352811405414517
0.612000000000000322,-2.580386182710301846
0.613000000000000433,-2.565529650462651023
0.614000000000000323,-2.550781526181335135
0.615000000000000435,-2.536140150631097878
0.616000000000000325,-2.521603893501910054
0.617000000000000437,-2.507171153087053739
0.618000000000000327,-2.492840355960091792
0.619000000000000439,-2.478609956650852375
0.620000000000000329,-2.464478437320674953
0.621000000000000441,-2.450444307436985270
0.622000000000000330,-2.436506103447414695
0.623000000000000442,-2.422662388453565629
0.624000000000000332,-2.408911751884603270
0.625000000000000444,-2.395252809170780761
0.626000000000000334,-2.381684201417062940
0.627000000000000446,-2.368204595076934371
0.628000000000000336,-2.354812681626566651
0.629000000000000448,-2.341507177239423587
0.630000000000000338,-2.328286822461460126
0.631000000000000449,-2.315150381886972752
0.632000000000000339,-2.302096643835282563
0.633000000000000451,-2.289124420028284312
0.634000000000000341,-2.276232545269015528
0.635000000000000453,-2.263419877121322976
0.636000000000000343,-2.250685295590699297
0.637000000000000455,-2.238027702806428820
0.638000000000000345,-2.225446022705096283
0.639000000000000457,-2.212939200715513088
0.640000000000000346,-2.200506203445240505
0.641000000000000458,-2.188146018368654300
0.642000000000000348,-2.175857653516749757
0.643000000000000460,-2.163640137168646671
0.644000000000000350,-2.151492517544976835
0.645000000000000462,-2.139413862503092734
0.646000000000000352,-2.127403259234283972
0.647000000000000464,-2.115459813962938362
0.648000000000000353,-2.103582651647848412
0.649000000000000465,-2.091770915685535748
0.650000000000000355,-2.080023767615839070
0.651000000000000467,-2.068340386829637279
0.652000000000000357,-2.056719970278907184
0.653000000000000469,-2.045161732189016313
0.654000000000000359,-2.033664903773432897
0.655000000000000471,-2.022228732950752228
0.656000000000000361,-2.010852484064215240
0.657000000000000473,-1.999535437603611854
0.658000000000000362,-1.988276889929744273
0.659000000000000474,-1.977076153001345649
0.660000000000000364,-1.965932554104597996
