# CNT15-COO--10_CS-270-AC
# h[nm],U(h)[kJ/mol]
0.149999999999999994,124.471049142590686643
0.150999999999999995,121.917928559436930414
0.151999999999999996,120.591039126547727278
0.152999999999999997,119.497576159167209653
0.153999999999999998,118.280635233535164730
0.154999999999999999,116.880268354354413418
0.156000000000000000,115.351086633075780696
0.157000000000000001,113.771815084150745179
0.158000000000000002,112.206588126854100551
0.159000000000000002,110.693578454257334442
0.160000000000000003,109.246632513895264083
0.161000000000000004,107.861888560605621024
0.162000000000000005,106.525194066474639953
0.163000000000000006,105.218400668655206687
0.164000000000000007,103.923882568036987095
0.165000000000000008,102.627282462723911749
0.166000000000000009,101.318785847054854798
0.167000000000000010,99.993317166745782743
0.168000000000000010,98.650037283137933741
0.169000000000000011,97.291459323808254567
0.170000000000000012,95.922422669350012825
0.171000000000000013,94.549090308289990503
0.172000000000000014,93.178071356955001647
0.173000000000000015,91.815720938640794202
0.174000000000000016,90.467633584118985368
0.175000000000000017,89.138322125592708289
0.176000000000000018,87.831059434471157488
0.177000000000000018,86.547852994928220483
0.178000000000000019,85.289520138265686455
0.179000000000000020,84.055833059417437880
0.180000000000000021,82.845706134339124560
0.181000000000000022,81.657402534212138789
0.182000000000000023,80.488741961705571271
0.183000000000000024,79.337296027704169887
0.184000000000000025,78.200562042198257018
0.185000000000000026,77.076109648139066621
0.186000000000000026,75.961697719449276178
0.187000000000000027,74.855361279293148868
0.188000000000000028,73.755469920406298456
0.189000000000000029,72.660760398429019347
0.190000000000000030,71.570346805465220541
0.191000000000000031,70.483712099958836461
0.192000000000000032,69.400684851619359961
0.193000000000000033,68.321404929841179410
0.194000000000000034,67.246281584414106192
0.195000000000000034,66.175946991539632336
0.196000000000000035,65.111207909352742718
0.197000000000000036,64.052997639029882748
0.198000000000000037,63.002330045516245605
0.199000000000000038,61.960256974135667463
0.200000000000000039,60.927830018058351413
0.201000000000000040,59.906067254135223266
0.202000000000000041,58.895925274472958222
0.203000000000000042,57.898276598898362977
0.204000000000000042,56.913892357583677040
0.205000000000000043,55.943429980518295963
0.206000000000000044,54.987425517196165003
0.207000000000000045,54.046290131283910796
0.208000000000000046,53.120310266364185736
0.209000000000000047,52.209650955369866665
0.210000000000000048,51.314361743494274037
0.211000000000000049,50.434384707968646921
0.212000000000000050,49.569564084320539621
0.213000000000000050,48.719657044192260287
0.214000000000000051,47.884345211575805479
0.215000000000000052,47.063246549926795126
0.216000000000000053,46.255927299992563917
0.217000000000000054,45.461913695651432477
0.218000000000000055,44.680703231295645139
0.219000000000000056,43.911775298288233671
0.220000000000000057,43.154601049051834138
0.221000000000000058,42.408652384906922350
0.222000000000000058,41.673409997559488716
0.223000000000000059,40.948370424007805468
0.224000000000000060,40.233052100578944987
0.225000000000000061,39.527000423911282212
0.226000000000000062,38.829791845138899475
0.227000000000000063,38.141037038533816883
0.228000000000000064,37.460383197688940982
0.229000000000000065,36.787515521266868745
0.230000000000000066,36.122157956702281467
0.231000000000000066,35.464073274329265928
0.232000000000000067,34.813062546511062578
0.233000000000000068,34.168964106763056066
0.234000000000000069,33.531652062852394636
0.235000000000000070,32.901034435681012269
0.236000000000000071,32.277050992643687266
0.237000000000000072,31.659670840308177020
0.238000000000000073,31.048889836876647053
0.239000000000000073,30.444727880123640062
0.240000000000000074,29.847226121503531715
0.241000000000000075,29.256444152010516291
0.242000000000000076,28.672457200254534371
0.243000000000000077,28.095353378177001957
0.244000000000000078,27.525231004941652202
0.245000000000000079,26.962196034852603077
0.246000000000000080,26.406359610720254949
0.247000000000000081,25.857835759944443055
0.248000000000000081,25.316739246738645619
0.249000000000000082,24.783183590391097084
0.250000000000000111,24.257279256253529098
0.251000000000000112,23.739132023269071681
0.252000000000000113,23.228841529288182244
0.253000000000000114,22.726499993171497493
0.254000000000000115,22.232191110723086069
0.255000000000000115,21.745989119826734992
0.256000000000000116,21.267958028751042576
0.257000000000000117,20.798151000430614488
0.258000000000000118,20.336609884600541420
0.259000000000000119,19.883364888940146642
0.260000000000000120,19.438434379851088352
0.261000000000000121,19.001824803135129116
0.262000000000000122,18.573530714629104210
0.263000000000000123,18.153534910782401113
0.264000000000000123,17.741808649206625148
0.265000000000000124,17.338311949374542564
0.266000000000000125,16.942993963878315355
0.267000000000000126,16.555793410963918433
0.268000000000000127,16.176639059424150702
0.269000000000000128,15.805450257347938958
0.270000000000000129,15.442137496675005792
0.271000000000000130,15.086603005985002923
0.272000000000000131,14.738741364449532867
0.273000000000000131,14.398440130385903757
0.274000000000000132,14.065580478367383677
0.275000000000000133,13.740037839359279914
0.276000000000000134,13.421682538858490830
0.277000000000000135,13.110380428513176199
0.278000000000000136,12.805993507182666491
0.279000000000000137,12.508380527865423204
0.280000000000000138,12.217397587371149115
0.281000000000000139,11.932898696039123010
0.282000000000000139,11.654736325209480441
0.283000000000000140,11.382761930534053718
0.284000000000000141,11.116826449569391144
0.285000000000000142,10.856780772425921100
0.286000000000000143,10.602476184553349725
0.287000000000000144,10.353764781024954900
0.288000000000000145,10.110499851940375038
0.289000000000000146,9.872536238801796316
0.290000000000000147,9.639730661928876287
0.291000000000000147,9.411942019168066054
0.292000000000000148,9.189031656319642138
0.293000000000000149,8.970863609854751175
0.294000000000000150,8.757304822623709128
0.295000000000000151,8.548225333368469236
0.296000000000000152,8.343498440946760297
0.297000000000000153,8.143000844254546067
0.298000000000000154,7.946612758897792617
0.299000000000000155,7.754218011715647840
0.300000000000000155,7.565704114295745519
0.301000000000000156,7.380962316649911870
0.302000000000000157,7.199887642235180962
0.303000000000000158,7.022378905513315672
0.304000000000000159,6.848338713240932130
0.305000000000000160,6.677673450674562972
0.306000000000000161,6.510293253860043095
0.307000000000000162,6.346111969155009191
0.308000000000000163,6.185047101107818968
0.309000000000000163,6.027019749785893943
0.310000000000000164,5.871954538612833119
0.311000000000000165,5.719779533736692123
0.312000000000000166,5.570426155912265642
0.313000000000000167,5.423829085838763220
0.314000000000000168,5.279926163851063947
0.315000000000000169,5.138658284818536259
0.316000000000000170,4.999969289060259392
0.317000000000000171,4.863805850040178846
0.318000000000000171,4.730117359560180645
0.319000000000000172,4.598855811123597981
0.320000000000000173,4.469975682096956504
0.321000000000000174,4.343433815253495034
0.322000000000000175,4.219189300238507023
0.323000000000000176,4.097203355454401397
0.324000000000000177,3.977439210821997140
0.325000000000000178,3.859861991834906636
0.326000000000000179,3.744438605285064003
0.327000000000000179,3.631137627000642798
0.328000000000000180,3.519929191902009702
0.329000000000000181,3.410784886647277858
0.330000000000000182,3.303677645106935845
0.331000000000000183,3.198581646875980233
0.332000000000000184,3.095472219003181813
0.333000000000000185,2.994325741089469251
0.334000000000000186,2.895119553881619900
0.335000000000000187,2.797831871463256626
0.336000000000000187,2.702441697122294872
0.337000000000000188,2.608928742953233293
0.338000000000000189,2.517273353232598154
0.339000000000000190,2.427456431587992292
0.340000000000000191,2.339459371964443424
0.341000000000000192,2.253263993376245722
0.342000000000000193,2.168852478418527241
0.343000000000000194,2.086207315499894133
0.344000000000000195,2.005311244746200039
0.345000000000000195,1.926147207514563364
0.346000000000000196,1.848698299447999460
0.347000000000000197,1.772947726992358142
0.348000000000000198,1.698878767290119329
0.349000000000000199,1.626474731359309756
0.350000000000000200,1.555718930460162852
0.351000000000000201,1.486594645547664184
0.352000000000000202,1.419085099704205266
0.353000000000000203,1.353173433443357832
0.354000000000000203,1.288842682773365667
0.355000000000000204,1.226075759907190754
0.356000000000000205,1.164855436504537156
0.357000000000000206,1.105164329330530659
0.358000000000000207,1.046984888215791720
0.359000000000000208,0.990299386202458942
0.360000000000000209,0.935089911761571413
0.361000000000000210,0.881338362968256406
0.362000000000000210,0.829026443522340784
0.363000000000000211,0.778135660503812110
0.364000000000000212,0.728647323754347487
0.365000000000000213,0.680542546778397650
0.366000000000000214,0.633802249059602252
0.367000000000000215,0.588407159690952142
0.368000000000000216,0.544337822219694067
0.369000000000000217,0.501574600611076393
0.370000000000000218,0.460097686237712022
0.371000000000000218,0.419887105804706451
0.372000000000000219,0.380922730123587960
0.373000000000000220,0.343184283651421118
0.374000000000000221,0.306651354714710223
0.375000000000000222,0.271303406341047548
0.376000000000000223,0.237119787624465422
0.377000000000000224,0.204079745554135161
0.378000000000000225,0.172162437239028493
0.379000000000000226,0.141346942464573272
0.380000000000000226,0.111612276520388742
0.381000000000000227,0.082937403241641117
0.382000000000000228,0.055301248209359978
0.383000000000000229,0.028682712058401227
0.384000000000000230,0.003060683844651635
0.385000000000000231,-0.021585945574055111
0.386000000000000232,-0.045278270185749057
0.387000000000000233,-0.068037355540776542
0.388000000000000234,-0.089884225573770585
0.389000000000000234,-0.110839849565671195
0.390000000000000235,-0.130925129277539465
0.391000000000000236,-0.150160886285544859
0.392000000000000237,-0.168567849544080911
0.393000000000000238,-0.186166643201687743
0.394000000000000239,-0.202977774692165880
0.395000000000000240,-0.219021623121268577
0.396000000000000241,-0.234318427967199566
0.397000000000000242,-0.248888278111231959
0.398000000000000242,-0.262751101212968796
0.399000000000000243,-0.275926653442834291
0.400000000000000244,-0.288434509582845056
0.401000000000000245,-0.300294053505059444
0.402000000000000246,-0.311524469035445839
0.403000000000000247,-0.322144731209703217
0.404000000000000248,-0.332173597925974895
0.405000000000000249,-0.341629601998259869
0.406000000000000250,-0.350531043612987203
0.407000000000000250,-0.358895983190214651
0.408000000000000251,-0.366742234649700349
0.409000000000000252,-0.374087359081197612
0.410000000000000253,-0.380948658817355845
0.411000000000000254,-0.387343171906702810
0.412000000000000255,-0.393287666983418327
0.413000000000000256,-0.398798638529901495
0.414000000000000257,-0.403892302527272318
0.415000000000000258,-0.408584592488588805
0.416000000000000258,-0.412891155868667981
0.417000000000000259,-0.416827350844149791
0.418000000000000260,-0.420408243456742770
0.419000000000000261,-0.423648605112322663
0.420000000000000262,-0.426562910428013642
0.421000000000000263,-0.429165335419210869
0.422000000000000264,-0.431469756017978490
0.423000000000000265,-0.433489746914191065
0.424000000000000266,-0.435238580710485212
0.425000000000000266,-0.436729227381763785
0.426000000000000267,-0.437974354030083446
0.427000000000000268,-0.438986324925384808
0.428000000000000269,-0.439777201822536323
0.429000000000000270,-0.440358744545118530
0.430000000000000271,-0.440742411826177072
0.431000000000000272,-0.440939362396345236
0.432000000000000273,-0.440960456309531845
0.433000000000000274,-0.440816256496560421
0.434000000000000274,-0.440517030537043275
0.435000000000000275,-0.440072752639925124
0.436000000000000276,-0.439493105823157371
0.437000000000000277,-0.438787484283046758
0.438000000000000278,-0.437964995943940671
0.439000000000000279,-0.437034465179046872
0.440000000000000280,-0.436004435693244985
0.441000000000000281,-0.434883173558940073
0.442000000000000282,-0.433678670396189958
0.443000000000000282,-0.432398646688350596
0.444000000000000283,-0.431050555224857024
0.445000000000000284,-0.429641584662742271
0.446000000000000285,-0.428178663198749032
0.447000000000000286,-0.426668462344174604
0.448000000000000287,-0.425117400794529476
0.449000000000000288,-0.423531648386591020
0.450000000000000289,-0.421917130135343210
0.451000000000000290,-0.420279530343703911
0.452000000000000290,-0.418624296778069727
0.453000000000000291,-0.416956644902832185
0.454000000000000292,-0.415281562167393759
0.455000000000000293,-0.413603812339250976
0.456000000000000294,-0.411927939877025140
0.457000000000000295,-0.410258274337509055
0.458000000000000296,-0.408598934810931014
0.459000000000000297,-0.406953834378962320
0.460000000000000298,-0.405326684590088970
0.461000000000000298,-0.403720999947238035
0.462000000000000299,-0.402140102402730293
0.463000000000000300,-0.400587125855780712
0.464000000000000301,-0.399065020648072533
0.465000000000000302,-0.397576558053019335
0.466000000000000303,-0.396124334754531848
0.467000000000000304,-0.394710777311396865
0.468000000000000305,-0.393338146603394834
0.469000000000000306,-0.392008542255590231
0.470000000000000306,-0.390723907037405838
0.471000000000000307,-0.389486031233115093
0.472000000000000308,-0.388296556980776142
0.473000000000000309,-0.387156982576630448
0.474000000000000310,-0.386068666742203082
0.475000000000000311,-0.385032832851518847
0.476000000000000312,-0.384050573116006266
0.477000000000000313,-0.383122852724743335
0.478000000000000314,-0.382250513937918479
0.479000000000000314,-0.381434280131528358
0.480000000000000315,-0.380674759791369222
0.481000000000000316,-0.379972450454672039
0.482000000000000317,-0.379327742597688311
0.483000000000000318,-0.378740923467809576
0.484000000000000319,-0.378212180858830738
0.485000000000000320,-0.377741606828112864
0.486000000000000321,-0.377329201354541621
0.487000000000000322,-0.376974875936244791
0.488000000000000322,-0.376678457127124222
0.489000000000000323,-0.376439690011491523
0.490000000000000324,-0.376258241615981759
0.491000000000000325,-0.376133704258203194
0.492000000000000326,-0.376065598831560155
0.493000000000000327,-0.376053378025845708
0.494000000000000328,-0.376096429483208150
0.495000000000000329,-0.376194078889264649
0.496000000000000330,-0.376345592999106249
0.497000000000000330,-0.376550182598163752
0.498000000000000331,-0.376807005397748029
0.499000000000000332,-0.377115168865422512
0.500000000000000333,-0.377473732990210475
0.501000000000000334,-0.377881712982741980
0.502000000000000335,-0.378338081910649937
0.503000000000000336,-0.378841773269352866
0.504000000000000337,-0.379391683488613296
0.505000000000000338,-0.379986674375171973
0.506000000000000338,-0.380625575491900570
0.507000000000000339,-0.381307186473893833
0.508000000000000340,-0.382030279281973972
0.509000000000000341,-0.382793600394212286
0.510000000000000342,-0.383595872935912241
0.511000000000000343,-0.384435798748770208
0.512000000000000344,-0.385312060399757239
0.513000000000000345,-0.386223323130418572
0.514000000000000346,-0.387168236747319594
0.515000000000000346,-0.388145437454262221
0.516000000000000347,-0.389153549627077933
0.517000000000000348,-0.390191187531774231
0.518000000000000349,-0.391256956986732685
0.519000000000000350,-0.392349456969861676
0.520000000000000351,-0.393467281171424987
0.521000000000000352,-0.394609019493475877
0.522000000000000353,-0.395773259496647101
0.523000000000000353,-0.396958587795226303
0.524000000000000354,-0.398163591401361316
0.525000000000000355,-0.399386859019274065
0.526000000000000356,-0.400626982290350153
0.527000000000000357,-0.401882556990060813
0.528000000000000358,-0.403152184177529904
0.529000000000000359,-0.404434471298744658
0.530000000000000360,-0.405728033244215802
0.531000000000000361,-0.407031493362094043
0.532000000000000361,-0.408343484427587389
0.533000000000000362,-0.409662649569627224
0.534000000000000363,-0.410987643155659832
0.535000000000000364,-0.412317131635525969
0.536000000000000365,-0.413649794345269051
0.537000000000000366,-0.414984324271847616
0.538000000000000367,-0.416319428779563960
0.539000000000000368,-0.417653830299227480
0.540000000000000369,-0.418986266980800770
0.541000000000000369,-0.420315493310551958
0.542000000000000370,-0.421640280693469205
0.543000000000000371,-0.422959418001902676
0.544000000000000372,-0.424271712091251474
0.545000000000000373,-0.425575988283565132
0.546000000000000374,-0.426871090819900101
0.547000000000000375,-0.428155883282279437
0.548000000000000376,-0.429429248986090362
0.549000000000000377,-0.430690091343722270
0.550000000000000377,-0.431937334200281964
0.551000000000000378,-0.433169922142150221
0.552000000000000379,-0.434386820779221972
0.553000000000000380,-0.435587017001558885
0.554000000000000381,-0.436769519211240742
0.555000000000000382,-0.437933357530214451
0.556000000000000383,-0.439077583984791686
0.557000000000000384,-0.440201272667655297
0.558000000000000385,-0.441303519877968231
0.559000000000000385,-0.442383444240401325
0.560000000000000386,-0.443440186803726433
0.561000000000000387,-0.444472911119668967
0.562000000000000388,-0.445480803302688244
0.563000000000000389,-0.446463072071398237
0.564000000000000390,-0.447418948772199010
0.565000000000000391,-0.448347687385827143
0.566000000000000392,-0.449248564517411075
0.567000000000000393,-0.450120879370679350
0.568000000000000393,-0.450963953706881138
0.569000000000000394,-0.451777131789039832
0.570000000000000395,-0.452559780312130289
0.571000000000000396,-0.453311288319678596
0.572000000000000397,-0.454031067107446340
0.573000000000000398,-0.454718550114613151
0.574000000000000399,-0.455373192803106952
0.575000000000000400,-0.455994472525507455
0.576000000000000401,-0.456581888382066203
0.577000000000000401,-0.457134961067372891
0.578000000000000402,-0.457653232707069813
0.579000000000000403,-0.458136266685130689
0.580000000000000404,-0.458583647462203925
0.581000000000000405,-0.458994980385358908
0.582000000000000406,-0.459369891489795568
0.583000000000000407,-0.459708027292839827
0.584000000000000408,-0.460009054580709731
0.585000000000000409,-0.460272660188413174
0.586000000000000409,-0.460498550773189297
0.587000000000000410,-0.460686452581885952
0.588000000000000411,-0.460836111212592658
0.589000000000000412,-0.460947291370985557
0.590000000000000413,-0.461019776621618527
0.591000000000000414,-0.461053369134600488
0.592000000000000415,-0.461047889427947610
0.593000000000000416,-0.461003176105913570
0.594000000000000417,-0.460919085593644529
0.595000000000000417,-0.460795491868481122
0.596000000000000418,-0.460632286188095486
0.597000000000000419,-0.460429376815905733
0.598000000000000420,-0.460186688743889794
0.599000000000000421,-0.459904163413181966
0.600000000000000422,-0.459581758432639653
0.601000000000000423,-0.459219447295651229
0.602000000000000424,-0.458817219095447093
0.603000000000000425,-0.458375078239119549
0.604000000000000425,-0.457893044160578799
0.605000000000000426,-0.457371151032673562
0.606000000000000427,-0.456809447478718877
0.607000000000000428,-0.456207996283505612
0.608000000000000429,-0.455566874104217256
0.609000000000000430,-0.454886171181155319
0.610000000000000431,-0.454165991048724738
0.611000000000000432,-0.453406450246664872
0.612000000000000433,-0.452607678031762717
0.613000000000000433,-0.451769816090250687
0.614000000000000434,-0.450893018250958011
