# CNT15-COO--10_CS-12814-AC
# h[nm],U(h)[kJ/mol]
0.200000000000000011,110.391292147727057227
0.201000000000000012,108.473072400188996767
0.202000000000000013,106.501160007230168958
0.203000000000000014,104.556846261953907629
0.204000000000000015,102.669579715531654074
0.205000000000000016,100.840995607978399562
0.206000000000000016,99.059913809046292954
0.207000000000000017,97.311230309773122826
0.208000000000000018,95.580778478042560664
0.209000000000000019,93.857614262044606335
0.210000000000000020,92.134727377554597183
0.211000000000000021,90.408854950870647826
0.212000000000000022,88.679842287057738304
0.213000000000000023,86.949832609354871238
0.214000000000000024,85.222455138790166984
0.215000000000000024,83.502104816209225646
0.216000000000000025,81.793356945422331705
0.217000000000000026,80.100528394966588053
0.218000000000000027,78.427378117752496678
0.219000000000000028,76.776929547048140989
0.220000000000000029,75.151392964236293892
0.221000000000000030,73.552165120076040239
0.222000000000000031,71.979884766028177978
0.223000000000000032,70.434525313955020920
0.224000000000000032,68.915508922212410425
0.225000000000000033,67.421829473032858004
0.226000000000000034,65.952174897469532766
0.227000000000000035,64.505041973880182127
0.228000000000000036,63.078839006662938971
0.229000000000000037,61.671973668091858656
0.230000000000000038,60.282924774280580493
0.231000000000000039,58.910297901867707537
0.232000000000000040,57.552865579639593818
0.233000000000000040,56.209593356759725680
0.234000000000000041,54.879653403409555779
0.235000000000000042,53.562427483987491428
0.236000000000000043,52.257501196410977684
0.237000000000000044,50.964651327164681049
0.238000000000000045,49.683828058879576872
0.239000000000000046,48.415133608731260040
0.240000000000000047,47.158798690510003837
0.241000000000000048,45.915157995475873065
0.242000000000000048,44.684625688166889290
0.243000000000000049,43.467671721306935240
0.244000000000000050,42.264799594538253302
0.245000000000000051,41.076526018544065266
0.246000000000000052,39.903362801337451060
0.247000000000000053,38.745801147930713171
0.248000000000000054,37.604298458214877598
0.249000000000000055,36.479267619946242007
0.250000000000000056,35.371068723060105299
0.251000000000000056,34.280003066622207086
0.252000000000000057,33.206309288919939604
0.253000000000000058,32.150161422763332553
0.254000000000000059,31.111668660278276377
0.255000000000000060,30.090876602678207519
0.256000000000000061,29.087769769128868802
0.257000000000000062,28.102275143442035699
0.258000000000000063,27.134266546651133467
0.259000000000000064,26.183569636387197477
0.260000000000000064,25.249967349381471138
0.261000000000000065,24.333205620515183654
0.262000000000000066,23.432999229880767444
0.263000000000000067,22.549037647718510158
0.264000000000000068,21.680990765348401084
0.265000000000000069,20.828514417942987080
0.266000000000000070,19.991255621883119886
0.267000000000000071,19.168857465278573926
0.268000000000000071,18.360963604868334897
0.269000000000000072,17.567222335838149405
0.270000000000000073,16.787290213056962784
0.271000000000000074,16.020835212826057159
0.272000000000000075,15.267539433472668620
0.273000000000000076,14.527101341050236982
0.274000000000000077,13.799237573089101261
0.275000000000000078,13.083684318853608275
0.276000000000000079,12.380198298989053995
0.277000000000000079,11.688557370874299579
0.278000000000000080,11.008560788532772534
0.279000000000000081,10.340029147684351329
0.280000000000000082,9.682804047542870052
0.281000000000000083,9.036747501364644108
0.282000000000000084,8.401741127621836114
0.283000000000000085,7.777685153090187598
0.284000000000000086,7.164497258178587735
0.285000000000000087,6.562111293561019743
0.286000000000000087,5.970475895658298171
0.287000000000000088,5.389553026819060122
0.288000000000000089,4.819316464215562590
0.289000000000000090,4.259750259545314499
0.290000000000000091,3.710847189656145240
0.291000000000000092,3.172607216220055371
0.292000000000000093,2.645035970604284081
0.293000000000000094,2.128143278147283546
0.294000000000000095,1.621941734165394777
0.295000000000000095,1.126445342207498923
0.296000000000000096,0.641668223355726375
0.297000000000000097,0.167623403746987754
0.298000000000000098,-0.295678314026989575
0.299000000000000099,-0.748229391392252419
0.300000000000000100,-1.190026503184003381
0.301000000000000101,-1.621071394186738956
0.302000000000000102,-2.041371642121939445
0.303000000000000103,-2.450941327343588050
0.304000000000000103,-2.849801610352476366
0.305000000000000104,-3.237981218990081178
0.306000000000000105,-3.615516847822327406
0.307000000000000106,-3.982453472779370340
0.308000000000000107,-4.338844584585697994
0.309000000000000108,-4.684752344899488108
0.310000000000000109,-5.020247669389602763
0.311000000000000110,-5.345410242215256957
0.312000000000000111,-5.660328466548209647
0.313000000000000111,-5.965099355890510324
0.314000000000000112,-6.259828371002842395
0.315000000000000113,-6.544629207272168792
0.316000000000000114,-6.819623537319040807
0.317000000000000115,-7.084940713579081617
0.318000000000000116,-7.340717435495548671
0.319000000000000117,-7.587097385833653895
0.320000000000000118,-7.824230840477911286
0.321000000000000119,-8.052274255904757538
0.322000000000000119,-8.271389838336997258
0.323000000000000120,-8.481745098388335791
0.324000000000000121,-8.683512394798881928
0.325000000000000122,-8.876868470646979148
0.326000000000000123,-9.061993985203553592
0.327000000000000124,-9.239073044373332877
0.328000000000000125,-9.408292732445463713
0.329000000000000126,-9.569842647655232071
0.330000000000000127,-9.723914443841227495
0.331000000000000127,-9.870701380269000680
0.332000000000000128,-10.010397881484495386
0.333000000000000129,-10.143199108859255020
0.334000000000000130,-10.269300545295187987
0.335000000000000131,-10.388897594370780197
0.336000000000000132,-10.502185195032406995
0.337000000000000133,-10.609357452765681984
0.338000000000000134,-10.710607288022020001
0.339000000000000135,-10.806126102524343580
0.340000000000000135,-10.896103463935279621
0.341000000000000136,-10.980726809238735342
0.342000000000000137,-11.060181167063401375
0.343000000000000138,-11.134648899062991489
0.344000000000000139,-11.204309460364116902
0.345000000000000140,-11.269339178996576223
0.346000000000000141,-11.329911054134175430
0.347000000000000142,-11.386194572895110610
0.348000000000000143,-11.438355545380527900
0.349000000000000143,-11.486555957566260133
0.350000000000000144,-11.530953841607303190
0.351000000000000145,-11.571703163065155451
0.352000000000000146,-11.608953724526230644
0.353000000000000147,-11.642851085042940085
0.354000000000000148,-11.673536494798991470
0.355000000000000149,-11.701146844375289291
0.356000000000000150,-11.725814627973127457
0.357000000000000151,-11.747667919936276348
0.358000000000000151,-11.766830363902787582
0.359000000000000152,-11.783421173910634039
0.360000000000000153,-11.797555146778735846
0.361000000000000154,-11.809342685084644131
0.362000000000000155,-11.818889830064502888
0.363000000000000156,-11.826298303766657583
0.364000000000000157,-11.831665559799251497
0.365000000000000158,-11.835084842023606555
0.366000000000000159,-11.836645250557568332
0.367000000000000159,-11.836431814468538093
0.368000000000000160,-11.834525570551821971
0.369000000000000161,-11.831003647607758467
0.370000000000000162,-11.825939355649875750
0.371000000000000163,-11.819402279496117103
0.372000000000000164,-11.811458376215464128
0.373000000000000165,-11.802170075923612558
0.374000000000000166,-11.791596385442815631
0.375000000000000167,-11.779792994362669134
0.376000000000000167,-11.766812383061013847
0.377000000000000168,-11.752703932266006959
0.378000000000000169,-11.737514033762504795
0.379000000000000170,-11.721286201868085897
0.380000000000000171,-11.704061185325535632
0.381000000000000172,-11.685877079280439617
0.382000000000000173,-11.666769437033201129
0.383000000000000174,-11.646771381276186830
0.384000000000000175,-11.625913714546346256
0.385000000000000175,-11.604225028643766038
0.386000000000000176,-11.581731812785907465
0.387000000000000177,-11.558458560285576056
0.388000000000000178,-11.534427873559215172
0.389000000000000179,-11.509660567288969801
0.390000000000000180,-11.484175769579294979
0.391000000000000181,-11.457991020964559681
0.392000000000000182,-11.431122371139839089
0.393000000000000183,-11.403584473301684454
0.394000000000000183,-11.375390675999836887
0.395000000000000184,-11.346553112414367703
0.396000000000000185,-11.317082786985235288
0.397000000000000186,-11.286989659333631408
0.398000000000000187,-11.256282725425746705
0.399000000000000188,-11.224970095940461690
0.400000000000000189,-11.193059071812488270
0.401000000000000190,-11.160556216932302931
0.402000000000000191,-11.127467427992851157
0.403000000000000191,-11.093798001481451010
0.404000000000000192,-11.059552697823248124
0.405000000000000193,-11.024735802689438202
0.406000000000000194,-10.989351185490539464
0.407000000000000195,-10.953402355080900321
0.408000000000000196,-10.916892512706269258
0.409000000000000197,-10.879824602231616737
0.410000000000000198,-10.842201357691049424
0.411000000000000199,-10.804025348205632540
0.412000000000000199,-10.765299020319337941
0.413000000000000200,-10.726024737806243436
0.414000000000000201,-10.686204819005595823
0.415000000000000202,-10.645841571743627441
0.416000000000000203,-10.604937325903836864
0.417000000000000204,-10.563494463709020010
0.418000000000000205,-10.521515447780377173
0.419000000000000206,-10.479002847040341351
0.420000000000000207,-10.435959360526691597
0.421000000000000207,-10.392387839186994825
0.422000000000000208,-10.348291305722215228
0.423000000000000209,-10.303672972549637876
0.424000000000000210,-10.258536257954848026
0.425000000000000211,-10.212884800502635585
0.426000000000000212,-10.166722471776898473
0.427000000000000213,-10.120053387518666455
0.428000000000000214,-10.072881917231468307
0.429000000000000214,-10.025212692322220676
0.430000000000000215,-9.977050612845243194
0.431000000000000216,-9.928400852916109187
0.432000000000000217,-9.879268864861014521
0.433000000000000218,-9.829660382166178323
0.434000000000000219,-9.779581421290828303
0.435000000000000220,-9.729038282405877425
0.436000000000000221,-9.678037549119126837
0.437000000000000222,-9.626586087246439050
0.438000000000000222,-9.574691042686961140
0.439000000000000223,-9.522359838458894998
0.440000000000000224,-9.469600170950823070
0.441000000000000225,-9.416420005442002861
0.442000000000000226,-9.362827570943672129
0.443000000000000227,-9.308831354411376324
0.444000000000000228,-9.254440094377255122
0.445000000000000229,-9.199662774049176761
0.446000000000000230,-9.144508613922059936
0.447000000000000230,-9.088987063945399569
0.448000000000000231,-9.033107795288970010
0.449000000000000232,-8.976880691747201269
0.450000000000000233,-8.920315840821450237
0.451000000000000234,-8.863423524517141772
0.452000000000000235,-8.806214209891876976
0.453000000000000236,-8.748698539388438888
0.454000000000000237,-8.690887320985705600
0.455000000000000238,-8.632791518198295933
0.456000000000000238,-8.574422239954945013
0.457000000000000239,-8.515790730383644203
0.458000000000000240,-8.456908358530547787
0.459000000000000241,-8.397786608037836942
0.460000000000000242,-8.338437066804885944
0.461000000000000243,-8.278871416655203319
0.462000000000000244,-8.219101423030863884
0.463000000000000245,-8.159138924734241627
0.464000000000000246,-8.098995823736469646
0.465000000000000246,-8.038684075069950197
0.466000000000000247,-7.978215676821851510
0.467000000000000248,-7.917602660243889368
0.468000000000000249,-7.856857079992908943
0.469000000000000250,-7.795991004515636646
0.470000000000000251,-7.735016506589881935
0.471000000000000252,-7.673945654033613728
0.472000000000000253,-7.612790500592470089
0.473000000000000254,-7.551563077015005732
0.474000000000000254,-7.490275382324611542
0.475000000000000255,-7.428939375295749770
0.476000000000000256,-7.367566966141644969
0.477000000000000257,-7.306170008419735851
0.478000000000000258,-7.244760291160305954
0.479000000000000259,-7.183349531223271356
0.480000000000000260,-7.121949365887255468
0.481000000000000261,-7.060571345674405919
0.482000000000000262,-6.999226927414009758
0.483000000000000262,-6.937927467547221561
0.484000000000000263,-6.876684215674598200
0.485000000000000264,-6.815508308347911104
0.486000000000000265,-6.754410763106885263
0.487000000000000266,-6.693402472761211364
0.488000000000000267,-6.632494199917753797
0.489000000000000268,-6.571696571752438487
0.490000000000000269,-6.511020075025787612
0.491000000000000270,-6.450475051340982091
0.492000000000000270,-6.390071692642655066
0.493000000000000271,-6.329820036954569851
0.494000000000000272,-6.269729964353946805
0.495000000000000273,-6.209811193179741728
0.496000000000000274,-6.150073276472348915
0.497000000000000275,-6.090525598641432836
0.498000000000000276,-6.031177372358821565
0.499000000000000277,-5.972037635672956313
0.500000000000000222,-5.913115249341154289
0.501000000000000334,-5.854418894376054894
0.502000000000000224,-5.795957069802142314
0.503000000000000336,-5.737738090618234921
0.504000000000000226,-5.679770085961882486
0.505000000000000338,-5.622060997470999411
0.506000000000000227,-5.564618577838738034
0.507000000000000339,-5.507450389556587389
0.508000000000000229,-5.450563803841540711
0.509000000000000341,-5.393965999742254880
0.510000000000000231,-5.337663963419954527
0.511000000000000343,-5.281664487598801472
0.512000000000000233,-5.225974171181404948
0.513000000000000345,-5.170599419024289212
0.514000000000000234,-5.115546441868888294
0.515000000000000346,-5.060821256422725511
0.516000000000000236,-5.006429685586518019
0.517000000000000348,-4.952377358821872022
0.518000000000000238,-4.898669712655213004
0.519000000000000350,-4.845311991312742705
0.520000000000000240,-4.792309247482052115
0.521000000000000352,-4.739666343195421128
0.522000000000000242,-4.687387950830258276
0.523000000000000353,-4.635478554221941216
0.524000000000000243,-4.583942449884602865
0.525000000000000355,-4.532783748335189600
0.526000000000000245,-4.482006375516490060
0.527000000000000357,-4.431614074314487617
0.528000000000000247,-4.381610406165967753
0.529000000000000359,-4.331998752751815118
0.530000000000000249,-4.282782317772051428
0.531000000000000361,-4.233964128798204385
0.532000000000000250,-4.185547039199257746
0.533000000000000362,-4.137533730136839338
0.534000000000000252,-4.089926712626047234
0.535000000000000364,-4.042728329657854225
0.536000000000000254,-3.995940758379559643
0.537000000000000366,-3.949566012329287723
0.538000000000000256,-3.903605943721399463
0.539000000000000368,-3.858062245778833610
0.540000000000000258,-3.812936455109411149
0.541000000000000369,-3.768229954122321423
0.542000000000000259,-3.723943973482014336
0.543000000000000371,-3.680079594595875303
0.544000000000000261,-3.636637752132972246
0.545000000000000373,-3.593619236570650521
0.546000000000000263,-3.551024696766243771
0.547000000000000375,-3.508854642550809810
0.548000000000000265,-3.467109447342588080
0.549000000000000377,-3.425789350777000752
0.550000000000000266,-3.384894461351105832
0.551000000000000378,-3.344424759079658749
0.552000000000000268,-3.304380098160592638
0.553000000000000380,-3.264760209647474376
0.554000000000000270,-3.225564704126796300
0.555000000000000382,-3.186793074397749503
0.556000000000000272,-3.148444698152696120
0.557000000000000384,-3.110518840655927431
0.558000000000000274,-3.073014657419220530
0.559000000000000385,-3.035931196871882509
0.560000000000000275,-2.999267403023907264
0.561000000000000387,-2.963022118120193227
0.562000000000000277,-2.927194085284412939
0.563000000000000389,-2.891781951150794949
0.564000000000000279,-2.856784268482469802
0.565000000000000391,-2.822199498774767168
0.566000000000000281,-2.788026014842251765
0.567000000000000393,-2.754262103388043226
0.568000000000000282,-2.720905967554354987
0.569000000000000394,-2.687955729452808473
0.570000000000000284,-2.655409432673700110
0.571000000000000396,-2.623265044772879584
0.572000000000000286,-2.591520459735473292
0.573000000000000398,-2.560173500415246828
0.574000000000000288,-2.529221920948954594
0.575000000000000400,-2.498663409144669778
0.576000000000000290,-2.468495588843366839
0.577000000000000401,-2.438716022252978455
0.578000000000000291,-2.409322212254287443
0.579000000000000403,-2.380311604677931125
0.580000000000000293,-2.351681590552023415
0.581000000000000405,-2.323429508319678760
0.582000000000000295,-2.295552646026154164
0.583000000000000407,-2.268048243474885872
0.584000000000000297,-2.240913494352206214
0.585000000000000409,-2.214145548320201051
0.586000000000000298,-2.187741513077487543
0.587000000000000410,-2.161698456387452616
0.588000000000000300,-2.136013408073851760
0.589000000000000412,-2.110683361983312523
0.590000000000000302,-2.085705277914745803
0.591000000000000414,-2.061076083515361201
0.592000000000000304,-2.036792676143173164
0.593000000000000416,-2.012851924695846062
0.594000000000000306,-1.989250671405919935
0.595000000000000417,-1.965985733602170216
0.596000000000000307,-1.943053905437218232
0.597000000000000419,-1.920451959581322754
0.598000000000000309,-1.898176648882409001
0.599000000000000421,-1.876224707992284468
0.600000000000000311,-1.854592854959265846
0.601000000000000423,-1.833277792787124216
0.602000000000000313,-1.812276210960636957
0.603000000000000425,-1.791584786937655549
0.604000000000000314,-1.771200187608127807
0.605000000000000426,-1.751119070719896254
0.606000000000000316,-1.731338086271781762
0.607000000000000428,-1.711853877873880325
0.608000000000000318,-1.692663084075508806
0.609000000000000430,-1.673762339660828768
0.610000000000000320,-1.655148276912581595
0.611000000000000432,-1.636817526844008608
0.612000000000000322,-1.618766720399385406
0.613000000000000433,-1.600992489623324300
0.614000000000000323,-1.583491468799228086
0.615000000000000435,-1.566260295557135640
0.616000000000000325,-1.549295611951305718
0.617000000000000437,-1.532594065507834280
0.618000000000000327,-1.516152310242685264
0.619000000000000439,-1.499967007650374162
0.620000000000000329,-1.484034827663771150
0.621000000000000441,-1.468352449585285990
0.622000000000000330,-1.452916562989830851
0.623000000000000442,-1.437723868599905419
0.624000000000000332,-1.422771079133201777
0.625000000000000444,-1.408054920123077869
0.626000000000000334,-1.393572130712288581
0.627000000000000446,-1.379319464420351249
0.628000000000000336,-1.365293689884941042
0.629000000000000448,-1.351491591577691498
0.630000000000000338,-1.337909970494824297
0.631000000000000449,-1.324545644822940682
0.632000000000000339,-1.311395450580443045
0.633000000000000451,-1.298456242234924840
0.634000000000000341,-1.285724893296965821
0.635000000000000453,-1.273198296890721393
0.636000000000000343,-1.260873366301681120
0.637000000000000455,-1.248747035502043357
0.638000000000000345,-1.236816259654087036
0.639000000000000457,-1.225078015591883007
0.640000000000000346,-1.213529302281879607
0.641000000000000458,-1.202167141262595162
0.642000000000000348,-1.190988577063966103
0.643000000000000460,-1.179990677606626459
0.644000000000000350,-1.169170534581604581
0.645000000000000462,-1.158525263810759487
0.646000000000000352,-1.148052005588413138
0.647000000000000464,-1.137747925004479743
0.648000000000000353,-1.127610212249611887
0.649000000000000465,-1.117636082902577321
0.650000000000000355,-1.107822778200416636
0.651000000000000467,-1.098167565291614967
0.652000000000000357,-1.088667737472789110
0.653000000000000469,-1.079320614409147172
0.654000000000000359,-1.070123542339198597
0.655000000000000471,-1.061073894263969253
0.656000000000000361,-1.052169070121200756
0.657000000000000473,-1.043406496944772055
0.658000000000000362,-1.034783629009818462
0.659000000000000474,-1.026297947963782375
0.660000000000000364,-1.017946962943859557
