# CNT15-COO--10_CS-61686-AC
# h[nm],U(h)[kJ/mol]
0.149999999999999994,120.836582756329974586
0.150999999999999995,119.435885046732437331
0.151999999999999996,117.452757101840759901
0.152999999999999997,115.412739537535415479
0.153999999999999998,113.479360932843718501
0.154999999999999999,111.659659590800586670
0.156000000000000000,109.909582605466042082
0.157000000000000001,108.182477966791978474
0.158000000000000002,106.446947136655623467
0.159000000000000002,104.689537905030732645
0.160000000000000003,102.911021670685244089
0.161000000000000004,101.120895184870960293
0.162000000000000005,99.332325717116361830
0.163000000000000006,97.558393551112757791
0.164000000000000007,95.809767261598594246
0.165000000000000008,94.093611939515270137
0.166000000000000009,92.413412053561003745
0.167000000000000010,90.769386358594459807
0.168000000000000010,89.159220892185004459
0.169000000000000011,87.578912643678307859
0.170000000000000012,86.023582306031158851
0.171000000000000013,84.488170885019059142
0.172000000000000014,82.967978821228626884
0.173000000000000015,81.459037759528214906
0.174000000000000016,79.958325762356622590
0.175000000000000017,78.463848749568697372
0.176000000000000018,76.974616435247128265
0.177000000000000018,75.490541967267333234
0.178000000000000019,74.012292466612706221
0.179000000000000020,72.541113961178709246
0.180000000000000021,71.078649734170824104
0.181000000000000022,69.626766500595408615
0.182000000000000023,68.187398501481197854
0.183000000000000024,66.762415806012924691
0.184000000000000025,65.353519951649118980
0.185000000000000026,63.962167558156771463
0.186000000000000026,62.589520692113545408
0.187000000000000027,61.236421467988762402
0.188000000000000028,59.903387567024573457
0.189000000000000029,58.590624946806180162
0.190000000000000030,57.298053915989058282
0.191000000000000031,56.025344880786633439
0.192000000000000032,54.771960363110864023
0.193000000000000033,53.537200286344898359
0.194000000000000034,52.320247976315968685
0.195000000000000034,51.120214795191571966
0.196000000000000035,49.936181787106576735
0.197000000000000036,48.767237146711316598
0.198000000000000037,47.612508712576278924
0.199000000000000038,46.471191028973635184
0.200000000000000039,45.342566808705555559
0.201000000000000040,44.226022866294968594
0.202000000000000041,43.121060777252679941
0.203000000000000042,42.027302659130242546
0.204000000000000042,40.944492568483511263
0.205000000000000043,39.872494070056760052
0.206000000000000044,38.811284565940098901
0.207000000000000045,37.760946978540204100
0.208000000000000046,36.721659367014552799
0.209000000000000047,35.693683027004972530
0.210000000000000048,34.677349582226618452
0.211000000000000049,33.673047527347868879
0.212000000000000050,32.681208627722028837
0.213000000000000050,31.702294525483885934
0.214000000000000051,30.736783845383701674
0.215000000000000052,29.785160039152891898
0.216000000000000053,28.847900155427975477
0.217000000000000054,27.925464674213166916
0.218000000000000055,27.018288501146930258
0.219000000000000056,26.126773177822428806
0.220000000000000057,25.251280330246835604
0.221000000000000058,24.392126348216258691
0.222000000000000058,23.549578263783722321
0.223000000000000059,22.723850776887900338
0.224000000000000060,21.915104360279560325
0.225000000000000061,21.123444363786283873
0.226000000000000062,20.348921029314688269
0.227000000000000063,19.591530322414641319
0.228000000000000064,18.851215483331536404
0.229000000000000065,18.127869199869554251
0.230000000000000066,17.421336305722274318
0.231000000000000066,16.731416910851365287
0.232000000000000067,16.057869874701147239
0.233000000000000068,15.400416538237115205
0.234000000000000069,14.758744636735722011
0.235000000000000070,14.132512321704155056
0.236000000000000071,13.521352227074748598
0.237000000000000072,12.924875521727566152
0.238000000000000073,12.342675897304888011
0.239000000000000073,11.774333447072455883
0.240000000000000074,11.219418398153941041
0.241000000000000075,10.677494665745355107
0.242000000000000076,10.148123203840905049
0.243000000000000077,9.630865132529500272
0.244000000000000078,9.125284627023038553
0.245000000000000079,8.630951558234649212
0.246000000000000080,8.147443878931833083
0.247000000000000081,7.674349753244838368
0.248000000000000081,7.211269430625795174
0.249000000000000082,6.757816868241474317
0.250000000000000111,6.313621108260631942
0.251000000000000112,5.878327418589326392
0.252000000000000113,5.451598207335836221
0.253000000000000114,5.033113722682221791
0.254000000000000115,4.622572550922377843
0.255000000000000115,4.219691926231209145
0.256000000000000116,3.824207866278192203
0.257000000000000117,3.435875148121349643
0.258000000000000118,3.054467138939723547
0.259000000000000119,2.679775496107942523
0.260000000000000120,2.311609750909926042
0.261000000000000121,1.949796789853304402
0.262000000000000122,1.594180247099989511
0.263000000000000123,1.244619820994003589
0.264000000000000123,0.900990527059475688
0.265000000000000124,0.563181899178592849
0.266000000000000125,0.231097149953375214
0.267000000000000126,-0.095347699478775277
0.268000000000000127,-0.416224710658091634
0.269000000000000128,-0.731594931284598404
0.270000000000000129,-1.041509302967538630
0.271000000000000130,-1.346009565988549372
0.272000000000000131,-1.645129154556951745
0.273000000000000131,-1.938894076747305961
0.274000000000000132,-2.227323773994674294
0.275000000000000133,-2.510431955679998328
0.276000000000000134,-2.788227404962532407
0.277000000000000135,-3.060714752606304323
0.278000000000000136,-3.327895216103228471
0.279000000000000137,-3.589767301913608044
0.280000000000000138,-3.846327469126042509
0.281000000000000139,-4.097570753284012213
0.282000000000000139,-4.343491349533751489
0.283000000000000140,-4.584083154620678613
0.284000000000000141,-4.819340267598391847
0.285000000000000142,-5.049257449417707377
0.286000000000000143,-5.273830541833871344
0.287000000000000144,-5.493056846309418262
0.288000000000000145,-5.706935463800863140
0.289000000000000146,-5.915467596498438674
0.290000000000000147,-6.118656812745074447
0.291000000000000147,-6.316509276491054869
0.292000000000000148,-6.509033942750070523
0.293000000000000149,-6.696242720608775123
0.294000000000000150,-6.878150605410256802
0.295000000000000151,-7.054775781781351895
0.296000000000000152,-7.226139699207355882
0.297000000000000153,-7.392267121876234803
0.298000000000000154,-7.553186154520203033
0.299000000000000155,-7.708928245975608995
0.300000000000000155,-7.859528172165444637
0.301000000000000156,-8.005024000181819588
0.302000000000000157,-8.145457035111816069
0.303000000000000158,-8.280871751207914855
0.304000000000000159,-8.411315708956976778
0.305000000000000160,-8.536839459548737352
0.306000000000000161,-8.657496438188131194
0.307000000000000162,-8.773342847635387187
0.308000000000000163,-8.884437533295006517
0.309000000000000163,-8.990841851109824034
0.310000000000000164,-9.092619529450510996
0.311000000000000165,-9.189836526123574600
0.312000000000000166,-9.282560881554198673
0.313000000000000167,-9.370862569132915709
0.314000000000000168,-9.454813343648998725
0.315000000000000169,-9.534486588667741458
0.316000000000000170,-9.609957163644875067
0.317000000000000171,-9.681301251508276806
0.318000000000000171,-9.748596207376314382
0.319000000000000172,-9.811920409023045409
0.320000000000000173,-9.871353109643335344
0.321000000000000174,-9.926974293416058970
0.322000000000000175,-9.978864534311115975
0.323000000000000176,-10.027104858535548004
0.324000000000000177,-10.071776610966438170
0.325000000000000178,-10.112961325872523943
0.326000000000000179,-10.150740602184104233
0.327000000000000179,-10.185195983529672148
0.328000000000000180,-10.216408843220111891
0.329000000000000181,-10.244460274325636107
0.330000000000000182,-10.269430984956940733
0.331000000000000183,-10.291401198831753305
0.332000000000000184,-10.310450561178646112
0.333000000000000185,-10.326658050003747036
0.334000000000000186,-10.340101892721678567
0.335000000000000187,-10.350859488129410479
0.336000000000000187,-10.359007333681717000
0.337000000000000188,-10.364620958007984441
0.338000000000000189,-10.367774858593879372
0.339000000000000190,-10.368542444536208436
0.340000000000000191,-10.366995984265784614
0.341000000000000192,-10.363206558121792256
0.342000000000000193,-10.357244015650335811
0.343000000000000194,-10.349176937491359141
0.344000000000000195,-10.339072601709945687
0.345000000000000195,-10.326996954422281050
0.346000000000000196,-10.313014584560571407
0.347000000000000197,-10.297188702617432909
0.348000000000000198,-10.279581123206899207
0.349000000000000199,-10.260252251276735791
0.350000000000000200,-10.239261071805511705
0.351000000000000201,-10.216665142816852452
0.352000000000000202,-10.192520591543557273
0.353000000000000203,-10.166882113574738256
0.354000000000000203,-10.139802974820474546
0.355000000000000204,-10.111335016130086117
0.356000000000000205,-10.081528660402501174
0.357000000000000206,-10.050432922029987282
0.358000000000000207,-10.018095418519084916
0.359000000000000208,-9.984562384136577151
0.360000000000000209,-9.949878685431645664
0.361000000000000210,-9.914087838489276550
0.362000000000000210,-9.877232027774436318
0.363000000000000211,-9.839352126430481960
0.364000000000000212,-9.800487717900152163
0.365000000000000213,-9.760677118741764247
0.366000000000000214,-9.719957402518183187
0.367000000000000215,-9.678364424640735209
0.368000000000000216,-9.635932848055231759
0.369000000000000217,-9.592696169661881100
0.370000000000000218,-9.548686747365996652
0.371000000000000218,-9.503935827660914271
0.372000000000000219,-9.458473573649591515
0.373000000000000220,-9.412329093415989334
0.374000000000000221,-9.365530468662125685
0.375000000000000222,-9.318104783530985813
0.376000000000000223,-9.270078153540623589
0.377000000000000224,-9.221475754558587923
0.378000000000000225,-9.172321851750561805
0.379000000000000226,-9.122639828441140963
0.380000000000000226,-9.072452214829061390
0.381000000000000227,-9.021780716502735942
0.382000000000000228,-8.970646242706417084
0.383000000000000229,-8.919068934310610430
0.384000000000000230,-8.867068191444150926
0.385000000000000231,-8.814662700749055446
0.386000000000000232,-8.761870462222240974
0.387000000000000233,-8.708708815611833742
0.388000000000000234,-8.655194466338581805
0.389000000000000234,-8.601343510916189317
0.390000000000000235,-8.547171461846847507
0.391000000000000236,-8.492693271971386793
0.392000000000000237,-8.437923358255625672
0.393000000000000238,-8.382875624997392805
0.394000000000000239,-8.327563486440590523
0.395000000000000240,-8.271999888785263266
0.396000000000000241,-8.216197331584549346
0.397000000000000242,-8.160167888521261403
0.398000000000000242,-8.103923227559054254
0.399000000000000243,-8.047474630464463985
0.400000000000000244,-7.990833011698041055
0.401000000000000245,-7.934008936674314505
0.402000000000000246,-7.877012639391542059
0.403000000000000247,-7.819854039433823623
0.404000000000000248,-7.762542758349203709
0.405000000000000249,-7.705088135408638905
0.406000000000000250,-7.647499242751697679
0.407000000000000250,-7.589784899925925643
0.408000000000000251,-7.531953687827600774
0.409000000000000252,-7.474013962052576510
0.410000000000000253,-7.415973865666424913
0.411000000000000254,-7.357841341404070867
0.412000000000000255,-7.299624143309399571
0.413000000000000256,-7.241329847826145638
0.414000000000000257,-7.182965864351585239
0.415000000000000258,-7.124539445265258841
0.416000000000000258,-7.066057695445056019
0.417000000000000259,-7.007527581283487628
0.418000000000000260,-6.948955939217166033
0.419000000000000261,-6.890349483782732598
0.420000000000000262,-6.831714815212660774
0.421000000000000263,-6.773058426584555036
0.422000000000000264,-6.714386710537470826
0.423000000000000265,-6.655705965569069349
0.424000000000000266,-6.597022401927395308
0.425000000000000266,-6.538342147110851599
0.426000000000000267,-6.479671250990215015
0.427000000000000268,-6.421015690566259870
0.428000000000000269,-6.362381374376523624
0.429000000000000270,-6.303774146564736114
0.430000000000000271,-6.245199790626067227
0.431000000000000272,-6.186664032841486360
0.432000000000000273,-6.128172545414082961
0.433000000000000274,-6.069730949320272018
0.434000000000000274,-6.011344816888292364
0.435000000000000275,-5.953019674116534432
0.436000000000000276,-5.894761002743747369
0.437000000000000277,-5.836574242083005792
0.438000000000000278,-5.778464790631156589
0.439000000000000279,-5.720438007465096675
0.440000000000000280,-5.662499213436002599
0.441000000000000281,-5.604653692172385959
0.442000000000000282,-5.546906690902590142
0.443000000000000282,-5.489263421106935326
0.444000000000000283,-5.431729059009673399
0.445000000000000284,-5.374308745920364672
0.446000000000000285,-5.317007588434123910
0.447000000000000286,-5.259830658500091793
0.448000000000000287,-5.202782993366664499
0.449000000000000288,-5.145869595412420949
0.450000000000000289,-5.089095431870773290
0.451000000000000290,-5.032465434456484310
0.452000000000000290,-4.975984498901785180
0.453000000000000291,-4.919657484409450277
0.454000000000000292,-4.863489213030097069
0.455000000000000293,-4.807484468970526059
0.456000000000000294,-4.751647997839745230
0.457000000000000295,-4.695984505839082779
0.458000000000000296,-4.640498658902353135
0.459000000000000297,-4.585195081792061700
0.460000000000000298,-4.530078357157060864
0.461000000000000298,-4.475153024557123160
0.462000000000000299,-4.420423579459429320
0.463000000000000300,-4.365894472211781618
0.464000000000000301,-4.311570106997255181
0.465000000000000302,-4.257454840774598459
0.466000000000000303,-4.203552982208480948
0.467000000000000304,-4.149868790593627565
0.468000000000000305,-4.096406474776515871
0.469000000000000306,-4.043170192078099134
0.470000000000000306,-3.990164047221028909
0.471000000000000307,-3.937392091264243277
0.472000000000000308,-3.884858320548153721
0.473000000000000309,-3.832566675652912203
0.474000000000000310,-3.780521040372520680
0.475000000000000311,-3.728725240707016830
0.476000000000000312,-3.677183043875216661
0.477000000000000313,-3.625898157349754847
0.478000000000000314,-3.574874227916612135
0.479000000000000314,-3.524114840760824929
0.480000000000000315,-3.473623518579893155
0.481000000000000316,-3.423403720726565957
0.482000000000000317,-3.373458842382174971
0.483000000000000318,-3.323792213761870951
0.484000000000000319,-3.274407099352781181
0.485000000000000320,-3.225306697186156590
0.486000000000000321,-3.176494138144300816
0.487000000000000322,-3.127972485303115224
0.488000000000000322,-3.079744733310806559
0.489000000000000323,-3.031813807803534377
0.490000000000000324,-2.984182564858216313
0.491000000000000325,-2.936853790483074711
0.492000000000000326,-2.889830200146055184
0.493000000000000327,-2.843114438341490136
0.494000000000000328,-2.796709078194999254
0.495000000000000329,-2.750616621106800608
0.496000000000000330,-2.704839496433336876
0.497000000000000330,-2.659380061207242019
0.498000000000000331,-2.614240599895373940
0.499000000000000332,-2.569423324194914038
0.500000000000000333,-2.524930372867113970
0.501000000000000334,-2.480763811608461378
0.502000000000000335,-2.436925632958926169
0.503000000000000336,-2.393417756246905448
0.504000000000000337,-2.350242027570372816
0.505000000000000338,-2.307400219813824371
0.506000000000000338,-2.264894032700490278
0.507000000000000339,-2.222725092879230147
0.508000000000000340,-2.180894954045579759
0.509000000000000341,-2.139405097096380715
0.510000000000000342,-2.098256930317246916
0.511000000000000343,-2.057451789602333214
0.512000000000000344,-2.016990938705635283
0.513000000000000345,-1.976875569523206533
0.514000000000000346,-1.937106802405522687
0.515000000000000346,-1.897685686499270163
0.516000000000000347,-1.858613200117812836
0.517000000000000348,-1.819890251139659965
0.518000000000000349,-1.781517677433979596
0.519000000000000350,-1.743496247312619207
0.520000000000000351,-1.705826660007637940
0.521000000000000352,-1.668509546173726488
0.522000000000000353,-1.631545468414608901
0.523000000000000353,-1.594934921832648289
0.524000000000000354,-1.558678334600953397
0.525000000000000355,-1.522776068557026408
0.526000000000000356,-1.487228419817274494
0.527000000000000357,-1.452035619411593315
0.528000000000000358,-1.417197833937067220
0.529000000000000359,-1.382715166230250592
0.530000000000000360,-1.348587656056988937
0.531000000000000361,-1.314815280819186860
0.532000000000000361,-1.281397956277609662
0.533000000000000362,-1.248335537290069741
0.534000000000000363,-1.215627818564128049
0.535000000000000364,-1.183274535423626039
0.536000000000000365,-1.151275364588271621
0.537000000000000366,-1.119629924965569012
0.538000000000000367,-1.088337778454299798
0.539000000000000368,-1.057398430758969443
0.540000000000000369,-1.026811332214327743
0.541000000000000369,-0.996575878619469280
0.542000000000000370,-0.966691412080669110
0.543000000000000371,-0.937157221862356726
0.544000000000000372,-0.907972545245580465
0.545000000000000373,-0.879136568393284357
0.546000000000000374,-0.850648427221743608
0.547000000000000375,-0.822507208277583723
0.548000000000000376,-0.794711949619775426
0.549000000000000377,-0.767261641705964226
0.550000000000000377,-0.740155228282561750
0.551000000000000378,-0.713391607278080597
0.552000000000000379,-0.686969631699099414
0.553000000000000380,-0.660888110528344952
0.554000000000000381,-0.635145809624336644
0.555000000000000382,-0.609741452622143520
0.556000000000000383,-0.584673721834634508
0.557000000000000384,-0.559941259153883708
0.558000000000000385,-0.535542666952111834
0.559000000000000385,-0.511476508981816957
0.560000000000000386,-0.487741311274566935
0.561000000000000387,-0.464335563038077770
0.562000000000000388,-0.441257717551118589
0.563000000000000389,-0.418506193055850961
0.564000000000000390,-0.396079373647217126
0.565000000000000391,-0.373975610158979010
0.566000000000000392,-0.352193221046041172
0.567000000000000393,-0.330730493262737346
0.568000000000000393,-0.309585683136679335
0.569000000000000394,-0.288757017237879832
0.570000000000000395,-0.268242693242835339
0.571000000000000396,-0.248040880793217455
0.572000000000000397,-0.228149722348959749
0.573000000000000398,-0.208567334035345914
0.574000000000000399,-0.189291806483971092
0.575000000000000400,-0.170321205667161218
0.576000000000000401,-0.151653573725730711
0.577000000000000401,-0.133286929789800640
0.578000000000000402,-0.115219270792417339
0.579000000000000403,-0.097448572275782103
0.580000000000000404,-0.079972789189940038
0.581000000000000405,-0.062789856683632905
0.582000000000000406,-0.045897690887218574
0.583000000000000407,-0.029294189687440592
0.584000000000000408,-0.012977233493898399
0.585000000000000409,0.003055314002941845
0.586000000000000409,0.018805605082336620
0.587000000000000410,0.034275807252581128
0.588000000000000411,0.049468102519211486
0.589000000000000412,0.064384686662157381
0.590000000000000413,0.079027768522018316
0.591000000000000414,0.093399569295518597
0.592000000000000415,0.107502321840232451
0.593000000000000416,0.121338269988709821
0.594000000000000417,0.134909667872048111
0.595000000000000417,0.148218779252936361
0.596000000000000418,0.161267876868369242
0.597000000000000419,0.174059241781905710
0.598000000000000420,0.186595162745693127
0.599000000000000421,0.198877935572171566
0.600000000000000422,0.210909862515572227
0.601000000000000423,0.222693251663197589
0.602000000000000424,0.234230416336531910
0.603000000000000425,0.245523674502184347
0.604000000000000425,0.256575348192679020
0.605000000000000426,0.267387762937126350
0.606000000000000427,0.277963247201685526
0.607000000000000428,0.288304131840002253
0.608000000000000429,0.298412749553328083
0.609000000000000430,0.308291434360649264
0.610000000000000431,0.317942521078472429
0.611000000000000432,0.327368344810491041
0.612000000000000433,0.336571240447006814
0.613000000000000433,0.345553542174037609
