# CNT15-COO--10_FURAN-AC
# h[nm],U(h)[kJ/mol]
0.200000000000000011,67.861955626660062535
0.201000000000000012,66.694634040279836995
0.202000000000000013,65.487548356325049781
0.203000000000000014,64.299633301074010205
0.204000000000000015,63.149515602695281302
0.205000000000000016,62.035410621255536512
0.206000000000000016,60.947142983580192777
0.207000000000000017,59.872952863438079874
0.208000000000000018,58.802949441652785367
0.209000000000000019,57.730493170365548394
0.210000000000000020,56.652372088143337692
0.211000000000000021,55.568341777650616109
0.212000000000000022,54.480391410358230075
0.213000000000000023,53.391955550475032055
0.214000000000000024,52.307195006316611341
0.215000000000000024,51.230406693142398922
0.216000000000000025,50.165582395559709994
0.217000000000000026,49.116112322561569670
0.218000000000000027,48.084616245188165351
0.219000000000000028,47.072879078999385172
0.220000000000000029,46.081866393060884945
0.221000000000000030,45.111796665341366008
0.222000000000000031,44.162249914536218398
0.223000000000000032,43.232295792960336200
0.224000000000000032,42.320627795441609464
0.225000000000000033,41.425693605645740547
0.226000000000000034,40.545814588618810603
0.227000000000000035,39.679289967904331604
0.228000000000000036,38.824483281431980686
0.229000000000000037,37.979890315182913696
0.230000000000000038,37.144188911984045376
0.231000000000000039,36.316271899740826257
0.232000000000000040,35.495264937014916029
0.233000000000000040,34.680531390338288134
0.234000000000000041,33.871666488682734553
0.235000000000000042,33.068482991681761973
0.236000000000000043,32.270990498540264468
0.237000000000000044,31.479370346512258294
0.238000000000000045,30.693947827662647398
0.239000000000000046,29.915163211080674444
0.240000000000000047,29.143542810634563978
0.241000000000000048,28.379671097464314045
0.242000000000000048,27.624164629955810568
0.243000000000000049,26.877648367361860693
0.244000000000000050,26.140734749738932408
0.245000000000000051,25.414005767895339716
0.246000000000000052,24.697998112742240551
0.247000000000000053,23.993191382966614356
0.248000000000000054,23.299999241814226991
0.249000000000000055,22.618763346044080009
0.250000000000000056,21.949749820614933071
0.251000000000000056,21.293148019102432045
0.252000000000000057,20.649071289937200646
0.253000000000000058,20.017559460100322610
0.254000000000000059,19.398582748841032952
0.255000000000000060,18.792046832400256307
0.256000000000000061,18.197798794922654508
0.257000000000000062,17.615633719214841335
0.258000000000000063,17.045301692448262543
0.259000000000000064,16.486515025197171269
0.260000000000000064,15.938955506409007157
0.261000000000000065,15.402281541260117947
0.262000000000000066,14.876135042735091574
0.263000000000000067,14.360147970705597231
0.264000000000000068,13.853948433908380267
0.265000000000000069,13.357166290274694376
0.266000000000000070,12.869438199372410736
0.267000000000000071,12.390412097187944340
0.268000000000000071,11.919751078062045480
0.269000000000000072,11.457136681311121507
0.270000000000000073,11.002271590966223869
0.271000000000000074,10.554881766224344375
0.272000000000000075,10.114718027734364014
0.273000000000000076,9.681557130851320636
0.274000000000000077,9.255202361614365714
0.275000000000000078,8.835483694570729796
0.276000000000000079,8.422257553813578212
0.277000000000000079,8.015406219858764558
0.278000000000000080,7.614836925384833144
0.279000000000000081,7.220480682522468996
0.280000000000000082,6.832290883422653671
0.281000000000000083,6.450241714362556777
0.282000000000000084,6.074326421765314343
0.283000000000000085,5.704555466303804501
0.284000000000000086,5.340954598809274145
0.285000000000000087,4.983562889088143599
0.286000000000000087,4.632430736024432782
0.287000000000000088,4.287617884569250748
0.288000000000000089,3.949191472438402517
0.289000000000000090,3.617224126595119493
0.290000000000000091,3.291792126921423201
0.291000000000000092,2.972973651904191605
0.292000000000000093,2.660847118704988024
0.293000000000000094,2.355489627660846796
0.294000000000000095,2.056975519090406213
0.295000000000000095,1.765375048263128521
0.296000000000000096,1.480753182535936352
0.297000000000000097,1.203168522971475918
0.298000000000000098,0.932672351226791263
0.299000000000000099,0.669307801136866498
0.300000000000000100,0.413109153211095037
0.301000000000000101,0.164101249205343414
0.302000000000000102,-0.077700976976799424
0.303000000000000103,-0.312292856573201105
0.304000000000000103,-0.539680236604579644
0.305000000000000104,-0.759879629552789870
0.306000000000000105,-0.972918268171191869
0.307000000000000106,-1.178834071830076713
0.308000000000000107,-1.377675531014567856
0.309000000000000108,-1.569501516721399037
0.310000000000000109,-1.754381021554552778
0.311000000000000110,-1.932392839304160503
0.312000000000000111,-2.103625189719340760
0.313000000000000111,-2.268175295057832663
0.314000000000000112,-2.426148914823749614
0.315000000000000113,-2.577659844894173879
0.316000000000000114,-2.722829386992999368
0.317000000000000115,-2.861785794201543442
0.318000000000000116,-2.994663697906094324
0.319000000000000117,-3.121603521276797188
0.320000000000000118,-3.242750884055213056
0.321000000000000119,-3.358256003103382348
0.322000000000000119,-3.468273092838478622
0.323000000000000120,-3.572959769347816117
0.324000000000000121,-3.672476461652024682
0.325000000000000122,-3.766985833261324412
0.326000000000000123,-3.856652216853977855
0.327000000000000124,-3.941641064598576882
0.328000000000000125,-4.022118416344576453
0.329000000000000126,-4.098250387619268409
0.330000000000000127,-4.170202679095925014
0.331000000000000127,-4.238140108937237471
0.332000000000000128,-4.302226169171502690
0.333000000000000129,-4.362622607026525934
0.334000000000000130,-4.419489031928017120
0.335000000000000131,-4.472982548666071700
0.336000000000000132,-4.523257417044010076
0.337000000000000133,-4.570464738149746964
0.338000000000000134,-4.614752167229527302
0.339000000000000135,-4.656263652997380653
0.340000000000000135,-4.695139203081235557
0.341000000000000136,-4.731514675186711649
0.342000000000000137,-4.765521593452810123
0.343000000000000138,-4.797286989378712896
0.344000000000000139,-4.826933266617794871
0.345000000000000140,-4.854578088862476548
0.346000000000000141,-4.880334289981812290
0.347000000000000142,-4.904309805521433141
0.348000000000000143,-4.926607624632881155
0.349000000000000143,-4.947325761464813176
0.350000000000000144,-4.966557245022545253
0.351000000000000145,-4.984390126483383199
0.352000000000000146,-5.000907502943386262
0.353000000000000147,-5.016187556565410155
0.354000000000000148,-5.030303608098394719
0.355000000000000149,-5.043324183743176370
0.356000000000000150,-5.055313094350071701
0.357000000000000151,-5.066329525947798729
0.358000000000000151,-5.076428140621349172
0.359000000000000152,-5.085659186777757412
0.360000000000000153,-5.094068617863204196
0.361000000000000154,-5.101698218621601555
0.362000000000000155,-5.108585738014023825
0.363000000000000156,-5.114765027949223608
0.364000000000000157,-5.120266187007805669
0.365000000000000158,-5.125115708376592139
0.366000000000000159,-5.129336631243910816
0.367000000000000159,-5.132948694942268908
0.368000000000000160,-5.135968495160375014
0.369000000000000161,-5.138409641582641463
0.370000000000000162,-5.140282916350339626
0.371000000000000163,-5.141596432774596437
0.372000000000000164,-5.142355793767044325
0.373000000000000165,-5.142564249489281814
0.374000000000000166,-5.142222853757028922
0.375000000000000167,-5.141330618768797045
0.376000000000000167,-5.139884667762393278
0.377000000000000168,-5.137880385234891989
0.378000000000000169,-5.135311564393242989
0.379000000000000170,-5.132170551533384639
0.380000000000000171,-5.128448387075035697
0.381000000000000172,-5.124134943007997656
0.382000000000000173,-5.119219056532897660
0.383000000000000174,-5.113688659705781347
0.384000000000000175,-5.107530904920722925
0.385000000000000175,-5.100732286088645040
0.386000000000000176,-5.093278755393324531
0.387000000000000177,-5.085155835526783186
0.388000000000000178,-5.076348727327141930
0.389000000000000179,-5.066842412760640180
0.390000000000000180,-5.056621753208171199
0.391000000000000181,-5.045671583033249696
0.392000000000000182,-5.033976798424430577
0.393000000000000183,-5.021522441519872260
0.394000000000000183,-5.008293779835594428
0.395000000000000184,-4.994276381031639289
0.396000000000000185,-4.979456183062157315
0.397000000000000186,-4.963819559766214695
0.398000000000000187,-4.947353381966020258
0.399000000000000188,-4.930045074148281969
0.400000000000000189,-4.911882666812499743
0.401000000000000190,-4.892854844577414930
0.402000000000000191,-4.872950990143359640
0.403000000000000191,-4.852161224214027513
0.404000000000000192,-4.830476441486373673
0.405000000000000193,-4.807888342821675209
0.406000000000000194,-4.784389463714726176
0.407000000000000195,-4.759973199181215975
0.408000000000000196,-4.734633825185978750
0.409000000000000197,-4.708366516736933072
0.410000000000000198,-4.681167362771178730
0.411000000000000199,-4.653033377960584360
0.412000000000000199,-4.623962511565187228
0.413000000000000200,-4.593953653462786058
0.414000000000000201,-4.563006637483057126
0.415000000000000202,-4.531122242173978520
0.416000000000000203,-4.498302189127722173
0.417000000000000204,-4.464549138991836585
0.418000000000000205,-4.429866685290337891
0.419000000000000206,-4.394259346177681991
0.420000000000000207,-4.357732554246579681
0.421000000000000207,-4.320292644508812785
0.422000000000000208,-4.281946840665648679
0.423000000000000209,-4.242703239782327884
0.424000000000000210,-4.202570795478314913
0.425000000000000211,-4.161559299742380702
0.426000000000000212,-4.119679363478855549
0.427000000000000213,-4.076942395888273118
0.428000000000000214,-4.033360582782917980
0.429000000000000214,-3.988946863934454079
0.430000000000000215,-3.943714909547878733
0.431000000000000216,-3.897679095952886197
0.432000000000000217,-3.850854480600374163
0.433000000000000218,-3.803256776448821874
0.434000000000000219,-3.754902325821929843
0.435000000000000220,-3.705808073815762604
0.436000000000000221,-3.655991541330342987
0.437000000000000222,-3.605470797797516447
0.438000000000000222,-3.554264433673752333
0.439000000000000223,-3.502391532763348803
0.440000000000000224,-3.449871644434435503
0.441000000000000225,-3.396724755787060790
0.442000000000000226,-3.342971263829799256
0.443000000000000227,-3.288631947718065440
0.444000000000000228,-3.233727941104693748
0.445000000000000229,-3.178280704650343402
0.446000000000000230,-3.122311998738457994
0.447000000000000230,-3.065843856436990755
0.448000000000000231,-3.008898556746222752
0.449000000000000232,-2.951498598169479237
0.450000000000000233,-2.893666672641222792
0.451000000000000234,-2.835425639844187717
0.452000000000000235,-2.776798501945275000
0.453000000000000236,-2.717808378777231137
0.454000000000000237,-2.658478483491284017
0.455000000000000238,-2.598832098703418136
0.456000000000000238,-2.538892553155220888
0.457000000000000239,-2.478683198907941865
0.458000000000000240,-2.418227389086821333
0.459000000000000241,-2.357548456190444952
0.460000000000000242,-2.296669690978704104
0.461000000000000243,-2.235614321950597727
0.462000000000000244,-2.174405495422129686
0.463000000000000245,-2.113066256212342786
0.464000000000000246,-2.051619528944709003
0.465000000000000246,-1.990088099969167912
0.466000000000000247,-1.928494599909012397
0.467000000000000248,-1.866861486835470263
0.468000000000000249,-1.805211030071705691
0.469000000000000250,-1.743565294626623796
0.470000000000000251,-1.681946126258015539
0.471000000000000252,-1.620375137163311052
0.472000000000000253,-1.558873692295497992
0.473000000000000254,-1.497462896300594259
0.474000000000000254,-1.436163581072421369
0.475000000000000255,-1.374996293919478196
0.476000000000000256,-1.313981286338049559
0.477000000000000257,-1.253138503385011315
0.478000000000000258,-1.192487573642974530
0.479000000000000259,-1.132047799770082630
0.480000000000000260,-1.071838149625988112
0.481000000000000261,-1.011877247965081938
0.482000000000000262,-0.952183368687720688
0.483000000000000262,-0.892774427639560386
0.484000000000000263,-0.833667975948844786
0.485000000000000264,-0.774881193891146736
0.486000000000000265,-0.716430885270677775
0.487000000000000266,-0.658333472307064627
0.488000000000000267,-0.600604991016205014
0.489000000000000268,-0.543261087073664939
0.490000000000000269,-0.486317012148758387
0.491000000000000270,-0.429787620697504757
0.492000000000000270,-0.373687367202270304
0.493000000000000271,-0.318030303846067564
0.494000000000000272,-0.262830078609211981
0.495000000000000273,-0.208099933775988205
0.496000000000000274,-0.153852704839176152
0.497000000000000275,-0.100100819789897960
0.498000000000000276,-0.046856298780602865
0.499000000000000277,0.005869245851138905
0.500000000000000222,0.058064609210374797
0.501000000000000334,0.109718993136103338
0.502000000000000224,0.160822005168383297
0.503000000000000336,0.211363657203332445
0.504000000000000226,0.261334363847716411
0.505000000000000338,0.310724940485263446
0.506000000000000227,0.359526601065984164
0.507000000000000339,0.407730955630467296
0.508000000000000229,0.455330007580145968
0.509000000000000341,0.502316150705145459
0.510000000000000231,0.548682165980372005
0.511000000000000343,0.594421218141184760
0.512000000000000233,0.639526852048959649
0.513000000000000345,0.683992988857418105
0.514000000000000234,0.727813921989702850
0.515000000000000346,0.770984312936754845
0.516000000000000236,0.813499186886499026
0.517000000000000348,0.855353928193932633
0.518000000000000238,0.896544275701347204
0.519000000000000350,0.937066317918259784
0.520000000000000240,0.976916488069896949
0.521000000000000352,1.016091559023307500
0.522000000000000242,1.054588638099618780
0.523000000000000353,1.092405161781024869
0.524000000000000243,1.129538890320556321
0.525000000000000355,1.165987902262815235
0.526000000000000245,1.201750588883262472
0.527000000000000357,1.236825648553852242
0.528000000000000247,1.271212081042083941
0.529000000000000359,1.304909181750874225
0.530000000000000249,1.337916535905917081
0.531000000000000361,1.370234012697412851
0.532000000000000250,1.401861759382475592
0.533000000000000362,1.432800195354672734
0.534000000000000252,1.463050006186548124
0.535000000000000364,1.492612137651175841
0.536000000000000254,1.521487789728189099
0.537000000000000366,1.549678410599951484
0.538000000000000256,1.577185690642852745
0.539000000000000368,1.604011556419041806
0.540000000000000258,1.630158164673168653
0.541000000000000369,1.655627896339088467
0.542000000000000259,1.680423350560697582
0.543000000000000371,1.704547338731446926
0.544000000000000261,1.728002878556454291
0.545000000000000373,1.750793188141253953
0.546000000000000263,1.772921680110840725
0.547000000000000375,1.794391955762725699
0.548000000000000265,1.815207799257215981
0.549000000000000377,1.835373171848394325
0.550000000000000266,1.854892206158701651
0.551000000000000378,1.873769200500170040
0.552000000000000268,1.892008613245027560
0.553000000000000380,1.909615057248348791
0.554000000000000270,1.926593294325174455
0.555000000000000382,1.942948229784541514
0.556000000000000272,1.958684907022499644
0.557000000000000384,1.973808502176332080
0.558000000000000274,1.988324318841779625
0.559000000000000385,2.002237782855206039
0.560000000000000275,2.015554437142286215
0.561000000000000387,2.028279936634870939
0.562000000000000277,2.040420043257437310
0.563000000000000389,2.051980620984477088
0.564000000000000279,2.062967630970046429
0.565000000000000391,2.073387126750613429
0.566000000000000281,2.083245249522223119
0.567000000000000393,2.092548223492900483
0.568000000000000282,2.101302351311093108
0.569000000000000394,2.109514009570953696
0.570000000000000284,2.117189644395025550
0.571000000000000396,2.124335767094958971
0.572000000000000286,2.130958949910654709
0.573000000000000398,2.137065821828342482
0.574000000000000288,2.142663064477790869
0.575000000000000400,2.147757408108950550
0.576000000000000290,2.152355627648225855
0.577000000000000401,2.156464538834409694
0.578000000000000291,2.160090994434363587
0.579000000000000403,2.163241880538426365
0.580000000000000293,2.165924112935413870
0.581000000000000405,2.168144633567099966
0.582000000000000295,2.169910407061982127
0.583000000000000407,2.171228417348044726
0.584000000000000297,2.172105664344255782
0.585000000000000409,2.172549160730386841
0.586000000000000298,2.172565928794839785
0.587000000000000410,2.172162997359932124
0.588000000000000300,2.171347398784252203
0.589000000000000412,2.170126166041498550
0.590000000000000302,2.168506329875282468
0.591000000000000414,2.166494916029219731
0.592000000000000304,2.164098942551811344
0.593000000000000416,2.161325417175313568
0.594000000000000306,2.158181334767989679
0.595000000000000417,2.154673674858976984
0.596000000000000307,2.150809399235092290
0.597000000000000419,2.146595449608693862
0.598000000000000309,2.142038745355885787
0.599000000000000421,2.137146181324262706
0.600000000000000311,2.131924625709280097
0.601000000000000423,2.126380917998459630
0.602000000000000313,2.120521866982540082
0.603000000000000425,2.114354248832694960
0.604000000000000314,2.107884805242889126
0.605000000000000426,2.101120241636489805
0.606000000000000316,2.094067225436201163
0.607000000000000428,2.086732384396369877
0.608000000000000318,2.079122304996738002
0.609000000000000430,2.071243530896658136
0.610000000000000320,2.063102561448870720
0.611000000000000432,2.054705850271771439
0.612000000000000322,2.046059803879340500
0.613000000000000433,2.037170780367604461
0.614000000000000323,2.028045088156779752
0.615000000000000435,2.018688984788013840
0.616000000000000325,2.009108675773828345
0.617000000000000437,1.999310313501207137
0.618000000000000327,1.989299996186391528
0.619000000000000439,1.979083766880375794
0.620000000000000329,1.968667612524138688
0.621000000000000441,1.958057463052595093
0.622000000000000330,1.947259190546354546
0.623000000000000442,1.936278608430221482
0.624000000000000332,1.925121470717585437
0.625000000000000444,1.913793471299588989
0.626000000000000334,1.902300243278279179
0.627000000000000446,1.890647358342623319
0.628000000000000336,1.878840326186576037
0.629000000000000448,1.866884593968162420
0.630000000000000338,1.854785545808705693
0.631000000000000449,1.842548502331200933
0.632000000000000339,1.830178720237012779
0.633000000000000451,1.817681391919865774
0.634000000000000341,1.805061645116351254
0.635000000000000453,1.792324542591904102
0.636000000000000343,1.779475081861561891
0.637000000000000455,1.766518194944388664
0.638000000000000345,1.753458748150934055
0.639000000000000457,1.740301541902671500
0.640000000000000346,1.727051310582729204
0.641000000000000458,1.713712722416921297
0.642000000000000348,1.700290379384420181
0.643000000000000460,1.686788817157073295
0.644000000000000350,1.673212505066739242
0.645000000000000462,1.659565846099666064
0.646000000000000352,1.645853176917309924
0.647000000000000464,1.632078767902645833
0.648000000000000353,1.618246823231373144
0.649000000000000465,1.604361480967093856
0.650000000000000355,1.590426813179910415
0.651000000000000467,1.576446826087531949
0.652000000000000357,1.562425460218324957
0.653000000000000469,1.548366590595480652
0.654000000000000359,1.534274026941707447
0.655000000000000471,1.520151513903685192
0.656000000000000361,1.506002731295676300
0.657000000000000473,1.491831294361556592
0.658000000000000362,1.477640754054714289
0.659000000000000474,1.463434597335096177
0.660000000000000364,1.449216247482834286
0.661000000000000476,1.434989064427775851
0.662000000000000366,1.420756345094421835
0.663000000000000478,1.406521323761531717
0.664000000000000368,1.392287172435988873
0.665000000000000480,1.378057001240184709
0.666000000000000369,1.363833858812524280
0.667000000000000481,1.349620732720372196
