# CNT15-COO--10_CS-30663-AC
# h[nm],U(h)[kJ/mol]
0.149999999999999994,123.554454522086004431
0.150999999999999995,121.541979202768061441
0.151999999999999996,119.875965038738769408
0.152999999999999997,118.295674432010542887
0.153999999999999998,116.695265639070868247
0.154999999999999999,115.048200192540349462
0.156000000000000000,113.363312586576881813
0.157000000000000001,111.660789978448491411
0.158000000000000002,109.960271888324513156
0.159000000000000002,108.276005186308424300
0.160000000000000003,106.615840955956940661
0.161000000000000004,104.982098802503514889
0.162000000000000005,103.373138364663958555
0.163000000000000006,101.785000660236420345
0.164000000000000007,100.212807700014423062
0.165000000000000008,98.651803507038650309
0.166000000000000009,97.098028968155972507
0.167000000000000010,95.548678080057968032
0.168000000000000010,94.002205200992037248
0.169000000000000011,92.458255823230700798
0.170000000000000012,90.917486149489349145
0.171000000000000013,89.381325029986186337
0.172000000000000014,87.851718973030159532
0.173000000000000015,86.330888866719661223
0.174000000000000016,84.821116671208628190
0.175000000000000017,83.324571996133641960
0.176000000000000018,81.843182154321539201
0.177000000000000018,80.378544781649551965
0.178000000000000019,78.931879150018872338
0.179000000000000020,77.504010570127277902
0.180000000000000021,76.095381491932556628
0.181000000000000022,74.706082805652087586
0.182000000000000023,73.335899208376076785
0.183000000000000024,71.984363156689184393
0.184000000000000025,70.650812739379915683
0.185000000000000026,69.334449676355419001
0.186000000000000026,68.034394509436282306
0.187000000000000027,66.749736850615491335
0.188000000000000028,65.479579265015729561
0.189000000000000029,64.223073974632285399
0.190000000000000030,62.979452070741459124
0.191000000000000031,61.748045320503990752
0.192000000000000032,60.528300954427265879
0.193000000000000033,59.319790036399901112
0.194000000000000034,58.122210158789883394
0.195000000000000034,56.935383283748933536
0.196000000000000035,55.759249580167747240
0.197000000000000036,54.593858094601841913
0.198000000000000037,53.439355053737983781
0.199000000000000038,52.295970534133481067
0.200000000000000039,51.164004159281901707
0.201000000000000040,50.043810400522758641
0.202000000000000041,48.935783971738302967
0.203000000000000042,47.840345721924492750
0.204000000000000042,46.757929347408726528
0.205000000000000043,45.688969168744598903
0.206000000000000044,44.633889147488019944
0.207000000000000045,43.593093255955295717
0.208000000000000046,42.566957259032776051
0.209000000000000047,41.555821921157964027
0.210000000000000048,40.559987613469218104
0.211000000000000049,39.579710265380739997
0.212000000000000050,38.615198580903125958
0.213000000000000050,37.666612422246068093
0.214000000000000051,36.734062250905267888
0.215000000000000052,35.817609508849066913
0.216000000000000053,34.917267818883360064
0.217000000000000054,34.033004883126885431
0.218000000000000055,33.164744961153843406
0.219000000000000056,32.312371814190257169
0.220000000000000057,31.475732008272451878
0.221000000000000058,30.654638477043249623
0.222000000000000058,29.848874253470835782
0.223000000000000059,29.058196288897260473
0.224000000000000060,28.282339287164678154
0.225000000000000061,27.521019490895650250
0.226000000000000062,26.773938366124031774
0.227000000000000063,26.040786140235859136
0.228000000000000064,25.321245156468147997
0.229000000000000065,24.614993015942136623
0.230000000000000066,23.921705485321844264
0.231000000000000066,23.241059154650717034
0.232000000000000067,22.572733835716469741
0.233000000000000068,21.916414696426205211
0.234000000000000069,21.271794131154003082
0.235000000000000070,20.638573370876706292
0.236000000000000071,20.016463840170210631
0.237000000000000072,19.405188270835726172
0.238000000000000073,18.804481584105122494
0.239000000000000073,18.214091555079825469
0.240000000000000074,17.633779274330084519
0.241000000000000075,17.063319422471110443
0.242000000000000076,16.502500374077506251
0.243000000000000077,15.951124147543310983
0.244000000000000078,15.409006217481058698
0.245000000000000079,14.875975206017418628
0.246000000000000080,14.351872468921834880
0.247000000000000081,13.836551591928515137
0.248000000000000081,13.329877811914141006
0.249000000000000082,12.831727376798784945
0.250000000000000111,12.341986857170420322
0.251000000000000112,11.860552421716965554
0.252000000000000113,11.387329087600477351
0.253000000000000114,10.922229955947006630
0.254000000000000115,10.465175441661106248
0.255000000000000115,10.016092505824005343
0.256000000000000116,9.574913898004883350
0.257000000000000117,9.141577414916344679
0.258000000000000118,8.716025180984322773
0.259000000000000119,8.298202955583745322
0.260000000000000120,7.888059470918830307
0.261000000000000121,7.485545803804688703
0.262000000000000122,7.090614783934424459
0.263000000000000123,6.703220440596770580
0.264000000000000123,6.323317489241190970
0.265000000000000124,5.950860858771801709
0.266000000000000125,5.585805259985892057
0.267000000000000126,5.228104795157032747
0.268000000000000127,4.877712608393319549
0.269000000000000128,4.534580576078389491
0.270000000000000129,4.198659036421821256
0.271000000000000130,3.869896556904906415
0.272000000000000131,3.548239738205862803
0.273000000000000131,3.233633053020663173
0.274000000000000132,2.926018718061234480
0.275000000000000133,2.625336597407513572
0.276000000000000134,2.331524135312057044
0.277000000000000135,2.044516316503431685
0.278000000000000136,1.764245652003124665
0.279000000000000137,1.490642188460229223
0.280000000000000138,1.223633539015185789
0.281000000000000139,0.963144933725603503
0.282000000000000139,0.709099287623616847
0.283000000000000140,0.461417284521317694
0.284000000000000141,0.220017474738444518
0.285000000000000142,-0.015183615007971562
0.286000000000000143,-0.244271361239836005
0.287000000000000144,-0.467332914489836049
0.288000000000000145,-0.684457062737146349
0.289000000000000146,-0.895734088949324381
0.290000000000000147,-1.101255624086510121
0.291000000000000147,-1.301114496834989254
0.292000000000000148,-1.495404581249404119
0.293000000000000149,-1.684220643394008787
0.294000000000000150,-1.867658187986866114
0.295000000000000151,-2.045813305964987006
0.296000000000000152,-2.218782523805074902
0.297000000000000153,-2.386662655353336771
0.298000000000000154,-2.549550656839659535
0.299000000000000155,-2.707543485676012551
0.300000000000000155,-2.860737963566999387
0.301000000000000156,-3.009230644391632570
0.302000000000000157,-3.153117687250586165
0.303000000000000158,-3.292494735011257667
0.304000000000000159,-3.427456798625438061
0.305000000000000160,-3.558098147439827219
0.306000000000000161,-3.684512205669202789
0.307000000000000162,-3.806791455155109638
0.308000000000000163,-3.925027344489183001
0.309000000000000163,-4.039310204540443650
0.310000000000000164,-4.149729170389218957
0.311000000000000165,-4.256372109636749279
0.312000000000000166,-4.359325557029548825
0.313000000000000167,-4.458674655310116641
0.314000000000000168,-4.554503102181277185
0.315000000000000169,-4.646893103249820633
0.316000000000000170,-4.735925330796165511
0.317000000000000171,-4.821678888199945057
0.318000000000000171,-4.904231279837405921
0.319000000000000172,-4.983658386254417039
0.320000000000000173,-5.060034444408699983
0.321000000000000174,-5.133432032766861219
0.322000000000000175,-5.203922061035505919
0.323000000000000176,-5.271573764300820031
0.324000000000000177,-5.336454701347937757
0.325000000000000178,-5.398630756929344798
0.326000000000000179,-5.458166147751351893
0.327000000000000179,-5.515123431947793087
0.328000000000000180,-5.569563521812000317
0.329000000000000181,-5.621545699560672738
0.330000000000000182,-5.671127635906318964
0.331000000000000183,-5.718365411219531680
0.332000000000000184,-5.763313539066710511
0.333000000000000185,-5.806024991914464195
0.334000000000000186,-5.846551228797672195
0.335000000000000187,-5.884942224754457385
0.336000000000000187,-5.921246501838075993
0.337000000000000188,-5.955511161522282215
0.338000000000000189,-5.987781918324432517
0.339000000000000190,-6.018103134477465588
0.340000000000000191,-6.046517855489464743
0.341000000000000192,-6.073067846437282924
0.342000000000000193,-6.097793628847934855
0.343000000000000194,-6.120734518029473215
0.344000000000000195,-6.141928660720084920
0.345000000000000195,-6.161413072932363733
0.346000000000000196,-6.179223677876424681
0.347000000000000197,-6.195395343853304482
0.348000000000000198,-6.209961922017129154
0.349000000000000199,-6.222956283911463160
0.350000000000000200,-6.234410358692269227
0.351000000000000201,-6.244355169956452123
0.352000000000000202,-6.252820872101477967
0.353000000000000203,-6.259836786147838339
0.354000000000000203,-6.265431434962254187
0.355000000000000204,-6.269632577825070108
0.356000000000000205,-6.272467244291307864
0.357000000000000206,-6.273961767299971903
0.358000000000000207,-6.274141815491253382
0.359000000000000208,-6.273032424696508791
0.360000000000000209,-6.270658028570336384
0.361000000000000210,-6.267042488338547379
0.362000000000000210,-6.262209121640137433
0.363000000000000211,-6.256180730445281668
0.364000000000000212,-6.248979628035230327
0.365000000000000213,-6.240627665033371407
0.366000000000000214,-6.231146254480328217
0.367000000000000215,-6.220556395948710460
0.368000000000000216,-6.208878698696528531
0.369000000000000217,-6.196133403860517141
0.370000000000000218,-6.182340405693554253
0.371000000000000218,-6.167519271852359708
0.372000000000000219,-6.151689262744094222
0.373000000000000220,-6.134869349942344563
0.374000000000000221,-6.117078233684749122
0.375000000000000222,-6.098334359466212717
0.376000000000000223,-6.078655933743313255
0.377000000000000224,-6.058060938766618442
0.378000000000000225,-6.036567146558970975
0.379000000000000226,-6.014192132058871820
0.380000000000000226,-5.990953285449170274
0.381000000000000227,-5.966867823691710981
0.382000000000000228,-5.941952801289884789
0.383000000000000229,-5.916225120301134233
0.384000000000000230,-5.889701539622169690
0.385000000000000231,-5.862398683570257951
0.386000000000000232,-5.834333049783833935
0.387000000000000233,-5.805521016466384410
0.388000000000000234,-5.775978848997305626
0.389000000000000234,-5.745722705933934193
0.390000000000000235,-5.714768644428529498
0.391000000000000236,-5.683132625084329703
0.392000000000000237,-5.650830516274407245
0.393000000000000238,-5.617878097947117233
0.394000000000000239,-5.584291064941495186
0.395000000000000240,-5.550085029835901018
0.396000000000000241,-5.515275525352839381
0.397000000000000242,-5.479878006342417507
0.398000000000000242,-5.443907851366828865
0.399000000000000243,-5.407380363907513754
0.400000000000000244,-5.370310773216408151
0.401000000000000245,-5.332714234832304889
0.402000000000000246,-5.294605830782614930
0.403000000000000247,-5.256000569490558050
0.404000000000000248,-5.216913385407218939
0.405000000000000249,-5.177359138387371829
0.406000000000000250,-5.137352612827401188
0.407000000000000250,-5.096908516583209092
0.408000000000000251,-5.056041479685310591
0.409000000000000252,-5.014766052867888568
0.410000000000000253,-4.973096705927892103
0.411000000000000254,-4.931047825929813833
0.412000000000000255,-4.888633715271115676
0.413000000000000256,-4.845868589622801537
0.414000000000000257,-4.802766575758933953
0.415000000000000258,-4.759341709288568367
0.416000000000000258,-4.715607932302724237
0.417000000000000259,-4.671579090948716484
0.418000000000000260,-4.627268932943518820
0.419000000000000261,-4.582691105037275392
0.420000000000000262,-4.537859150437604683
0.421000000000000263,-4.492786506204835995
0.422000000000000264,-4.447486500627718442
0.423000000000000265,-4.401972350588709837
0.424000000000000266,-4.356257158927570927
0.425000000000000266,-4.310353911811222183
0.426000000000000267,-4.264275476117711960
0.427000000000000268,-4.218034596841402362
0.428000000000000269,-4.171643894526202878
0.429000000000000270,-4.125115862733241379
0.430000000000000271,-4.078462865548805105
0.431000000000000272,-4.031697135138205823
0.432000000000000273,-3.984830769350614865
0.433000000000000274,-3.937875729379725076
0.434000000000000274,-3.890843837484511791
0.435000000000000275,-3.843746774774266406
0.436000000000000276,-3.796596079061548501
0.437000000000000277,-3.749403142786376097
0.438000000000000278,-3.702179211014808402
0.439000000000000279,-3.654935379514638871
0.440000000000000280,-3.607682592910600672
0.441000000000000281,-3.560431642921339623
0.442000000000000282,-3.513193166680075308
0.443000000000000282,-3.465977645140490004
0.444000000000000283,-3.418795401569413972
0.445000000000000284,-3.371656600127376002
0.446000000000000285,-3.324571244537935399
0.447000000000000286,-3.277549176846734191
0.448000000000000287,-3.230600076270510268
0.449000000000000288,-3.183733458136713601
0.450000000000000289,-3.136958672913646495
0.451000000000000290,-3.090284905331273535
0.452000000000000290,-3.043721173592473406
0.453000000000000291,-2.997276328674377321
0.454000000000000292,-2.950959053719401926
0.455000000000000293,-2.904777863515275005
0.456000000000000294,-2.858741104063390548
0.457000000000000295,-2.812856952234629837
0.458000000000000296,-2.767133415511623173
0.459000000000000297,-2.721578331816485452
0.460000000000000298,-2.676199369422739949
0.461000000000000298,-2.631004026950289898
0.462000000000000299,-2.585999633442027879
0.463000000000000300,-2.541193348520651707
0.464000000000000301,-2.496592162624284850
0.465000000000000302,-2.452202897319303965
0.466000000000000303,-2.408032205688718452
0.467000000000000304,-2.364086572794546370
0.468000000000000305,-2.320372316212417907
0.469000000000000306,-2.276895586636629165
0.470000000000000306,-2.233662368554002242
0.471000000000000307,-2.190678480984513676
0.472000000000000308,-2.147949578287092542
0.473000000000000309,-2.105481151028508968
0.474000000000000310,-2.063278526913644662
0.475000000000000311,-2.021346871775051124
0.476000000000000312,-1.979691190620150421
0.477000000000000313,-1.938316328733849847
0.478000000000000314,-1.897226972834867187
0.479000000000000314,-1.856427652283784369
0.480000000000000315,-1.815922740340830233
0.481000000000000316,-1.775716455471587185
0.482000000000000317,-1.735812862698594028
0.483000000000000318,-1.696215874997035300
0.484000000000000319,-1.656929254732527168
0.485000000000000320,-1.617956615139230836
0.486000000000000321,-1.579301421836312169
0.487000000000000322,-1.540966994381004040
0.488000000000000322,-1.502956507856313184
0.489000000000000323,-1.465272994491739977
0.490000000000000324,-1.427919345315067146
0.491000000000000325,-1.390898311833546064
0.492000000000000326,-1.354212507742678984
0.493000000000000327,-1.317864410660980257
0.494000000000000328,-1.281856363888937311
0.495000000000000329,-1.246190578190586651
0.496000000000000330,-1.210869133596028879
0.497000000000000330,-1.175893981223360196
0.498000000000000331,-1.141266945118327047
0.499000000000000332,-1.106989724110364781
0.500000000000000333,-1.073063893683346093
0.501000000000000334,-1.039490907859634827
0.502000000000000335,-1.006272101096045812
0.503000000000000336,-0.973408690190276760
0.504000000000000337,-0.940901776196429451
0.505000000000000338,-0.908752346348323359
0.506000000000000338,-0.876961275989288525
0.507000000000000339,-0.845529330507155508
0.508000000000000340,-0.814457167273216043
0.509000000000000341,-0.783745337584021540
0.510000000000000342,-0.753394288604739115
0.511000000000000343,-0.723404365313041420
0.512000000000000344,-0.693775812442370743
0.513000000000000345,-0.664508776423548664
0.514000000000000346,-0.635603307323714284
0.515000000000000346,-0.607059360781546764
0.516000000000000347,-0.578876799937839470
0.517000000000000348,-0.551055397360563637
0.518000000000000349,-0.523594836963359289
0.519000000000000350,-0.496494715916788287
0.520000000000000351,-0.469754546551349961
0.521000000000000352,-0.443373758251580596
0.522000000000000353,-0.417351699340390681
0.523000000000000353,-0.391687638952904482
0.524000000000000354,-0.366380768899172371
0.525000000000000355,-0.341430205514952623
0.526000000000000356,-0.316834991499999774
0.527000000000000357,-0.292594097743255233
0.528000000000000358,-0.268706425134196847
0.529000000000000359,-0.245170806360017840
0.530000000000000360,-0.221986007687851566
0.531000000000000361,-0.199150730731719128
0.532000000000000361,-0.176663614203580177
0.533000000000000362,-0.154523235648126034
0.534000000000000363,-0.132728113160797856
0.535000000000000364,-0.111276707088668034
0.536000000000000365,-0.090167421713772483
0.537000000000000366,-0.069398606918555331
0.538000000000000367,-0.048968559833012584
0.539000000000000368,-0.028875526463352008
0.540000000000000369,-0.009117703301678702
0.541000000000000369,0.010306761083365359
0.542000000000000370,0.029399764475433476
0.543000000000000371,0.048163249458929254
0.544000000000000372,0.066599201887302575
0.545000000000000373,0.084709649371413079
0.546000000000000374,0.102496659788146663
0.547000000000000375,0.119962339809419019
0.548000000000000376,0.137108833451705520
0.549000000000000377,0.153938320646267612
0.550000000000000377,0.170453015830167615
0.551000000000000378,0.186655166558140961
0.552000000000000379,0.202547052135447464
0.553000000000000380,0.218130982271734164
0.554000000000000381,0.233409295756007162
0.555000000000000382,0.248384359152663325
0.556000000000000383,0.263058565518734522
0.557000000000000384,0.277434333142209166
0.558000000000000385,0.291514104301562382
0.559000000000000385,0.305300344046384287
0.560000000000000386,0.318795538999139150
0.561000000000000387,0.332002196177988762
0.562000000000000388,0.344922841840654582
0.563000000000000389,0.357560020349236674
0.564000000000000390,0.369916293055947032
0.565000000000000391,0.381994237209664300
0.566000000000000392,0.393796444883240948
0.567000000000000393,0.405325521921428511
0.568000000000000393,0.416584086909377871
0.569000000000000394,0.427574770161557871
0.570000000000000395,0.438300212730981076
0.571000000000000396,0.448763065438638642
0.572000000000000397,0.458965987922952845
0.573000000000000398,0.468911647709198576
0.574000000000000399,0.478602719298626078
0.575000000000000400,0.488041883277273492
0.576000000000000401,0.497231825444196918
0.577000000000000401,0.506175235958989500
0.578000000000000402,0.514874808508460347
0.579000000000000403,0.523333239492270841
0.580000000000000404,0.531553227227310909
0.581000000000000405,0.539537471170721039
0.582000000000000406,0.547288671161298756
0.583000000000000407,0.554809526679138298
0.584000000000000408,0.562102736123303193
0.585000000000000409,0.569170996107336014
0.586000000000000409,0.576017000772399923
0.587000000000000410,0.582643441117856709
0.588000000000000411,0.589053004349088694
0.589000000000000412,0.595248373242321493
0.590000000000000413,0.601232225526293074
0.591000000000000414,0.607007233280513869
0.592000000000000415,0.612576062349913908
0.593000000000000416,0.617941371775690973
0.594000000000000417,0.623105813242123996
0.595000000000000417,0.628072030539097215
0.596000000000000418,0.632842659040228961
0.597000000000000419,0.637420325196240589
0.598000000000000420,0.641807646043478619
0.599000000000000421,0.646007228727284999
0.600000000000000422,0.650021670040032973
0.601000000000000423,0.653853555973601286
0.602000000000000424,0.657505461286070347
0.603000000000000425,0.660979949082407647
0.604000000000000425,0.664279570408939035
0.605000000000000426,0.667406863861391697
0.606000000000000427,0.670364355206225171
0.607000000000000428,0.673154557015186450
0.608000000000000429,0.675779968312625323
0.609000000000000430,0.678243074235656995
0.610000000000000431,0.680546345706652178
0.611000000000000432,0.682692239118068755
0.612000000000000433,0.684683196029308716
0.613000000000000433,0.686521642875366656
0.614000000000000434,0.688209990687126849
0.615000000000000435,0.689750634823059983
