# CNT15-COO--10_CYTOSINE
# h[nm],U(h)[kJ/mol]
0.149999999999999994,120.198410612551725762
0.150999999999999995,118.432215089055802082
0.151999999999999996,116.138729731600591322
0.152999999999999997,113.810056041521647785
0.153999999999999998,111.603103098760513490
0.154999999999999999,109.526874394961922121
0.156000000000000000,107.539878553030050057
0.157000000000000001,105.595955439645450724
0.158000000000000002,103.661955898170759838
0.159000000000000002,101.721209611919817917
0.160000000000000003,99.770744604162601377
0.161000000000000004,97.816555850449248055
0.162000000000000005,95.869036598719333142
0.163000000000000006,93.939438148858101840
0.164000000000000007,92.037553750577657752
0.165000000000000008,90.170498157842217779
0.166000000000000009,88.342328875565186763
0.167000000000000010,86.554236623535331319
0.168000000000000010,84.805065696517914375
0.169000000000000011,83.091977650392976784
0.170000000000000012,81.411126619295458795
0.171000000000000013,79.758263004666133611
0.172000000000000014,78.129220945118134978
0.173000000000000015,76.520273452015175053
0.174000000000000016,74.928358420030036768
0.175000000000000017,73.351190539432337800
0.176000000000000018,71.787280208227571165
0.177000000000000018,70.235882489185513577
0.178000000000000019,68.696898348164125991
0.179000000000000020,67.170747930916348878
0.180000000000000021,65.658232300403767567
0.181000000000000022,64.160396444885464007
0.182000000000000023,62.678402865496039453
0.183000000000000024,61.213421897351864231
0.184000000000000025,59.766542235228179436
0.185000000000000026,58.338702968733016974
0.186000000000000026,56.930646774279161093
0.187000000000000027,55.542892720160821796
0.188000000000000028,54.175726356338159917
0.189000000000000029,52.829204314028061162
0.190000000000000030,51.503170463362891951
0.191000000000000031,50.197280705942020518
0.192000000000000032,48.911033655776435580
0.193000000000000033,47.643804737907004210
0.194000000000000034,46.394881568477806866
0.195000000000000034,45.163498841153412400
0.196000000000000035,43.948871307940699182
0.197000000000000036,42.750223789804351782
0.198000000000000037,41.566817471661281047
0.199000000000000038,40.397972019740663541
0.200000000000000039,39.243083302917646904
0.201000000000000040,38.101636702322046801
0.202000000000000041,36.973216156240361840
0.203000000000000042,35.857509212507238772
0.204000000000000042,34.754308451624019938
0.205000000000000043,33.663509704719807303
0.206000000000000044,32.585107525399344297
0.207000000000000045,31.519188387725865397
0.208000000000000046,30.465922078126055794
0.209000000000000047,29.425551730649704751
0.210000000000000048,28.398382926187281328
0.211000000000000049,27.384772239961971962
0.212000000000000050,26.385115580470152707
0.213000000000000050,25.399836619251395575
0.214000000000000051,24.429375566229207806
0.215000000000000052,23.474178501337288338
0.216000000000000053,22.534687430858308943
0.217000000000000054,21.611331197198417442
0.218000000000000055,20.704517334294642694
0.219000000000000056,19.814624927889564532
0.220000000000000057,18.941998510709346704
0.221000000000000058,18.086942997221139962
0.222000000000000058,17.249719641058362640
0.223000000000000059,16.430542980261389374
0.224000000000000060,15.629578720970368266
0.225000000000000061,14.846942498878600958
0.226000000000000062,14.082699449325406960
0.227000000000000063,13.336864511076731432
0.228000000000000064,12.609403385306791279
0.229000000000000065,11.900234069749696886
0.230000000000000066,11.209228888150335024
0.231000000000000066,10.536216936725260496
0.232000000000000067,9.880986872095261830
0.233000000000000068,9.243289968829882852
0.234000000000000069,8.622843379138135589
0.235000000000000070,8.019333532155737743
0.236000000000000071,7.432419615549338054
0.237000000000000072,6.861737087631969878
0.238000000000000073,6.306901173739055011
0.239000000000000073,5.767510306141637066
0.240000000000000074,5.243149472183167958
0.241000000000000075,4.733393440551274978
0.242000000000000076,4.237809840575058828
0.243000000000000077,3.755962074130994033
0.244000000000000078,3.287412044115010534
0.245000000000000079,2.831722687473190003
0.246000000000000080,2.388460304468365880
0.247000000000000081,1.957196679187668931
0.248000000000000081,1.537510989272453887
0.249000000000000082,1.128991505481386604
0.250000000000000111,0.731237083992465675
0.251000000000000112,0.343858456325788098
0.252000000000000113,-0.033520676558950149
0.253000000000000114,-0.401262738044362521
0.254000000000000115,-0.759715548445035527
0.255000000000000115,-1.109211766446266623
0.256000000000000116,-1.450068488768400554
0.257000000000000117,-1.782586996966986970
0.258000000000000118,-2.107052639990524945
0.259000000000000119,-2.423734840988288397
0.260000000000000120,-2.732887216870033775
0.261000000000000121,-3.034747799248727063
0.262000000000000122,-3.329539345631319147
0.263000000000000123,-3.617469730042560450
0.264000000000000123,-3.898732402660533669
0.265000000000000124,-4.173506908493942902
0.266000000000000125,-4.441959455629968190
0.267000000000000126,-4.704243524114358976
0.268000000000000127,-4.960500507084566912
0.269000000000000128,-5.210860376350513690
0.270000000000000129,-5.455442365200384280
0.271000000000000130,-5.694355661792733336
0.272000000000000131,-5.927700107074601377
0.273000000000000131,-6.155566891734343571
0.274000000000000132,-6.378039247252148769
0.275000000000000133,-6.595193126647693305
0.276000000000000134,-6.807097871040080683
0.277000000000000135,-7.013816858626833906
0.278000000000000136,-7.215408133156714143
0.279000000000000137,-7.411925009411572951
0.280000000000000138,-7.603416653626029920
0.281000000000000139,-7.789928637160239866
0.282000000000000139,-7.971503462098699977
0.283000000000000140,-8.148181057778966618
0.284000000000000141,-8.319999247557039013
0.285000000000000142,-8.486994185392868317
0.286000000000000143,-8.649200762089948924
0.287000000000000144,-8.806652981248253909
0.288000000000000145,-8.959384305191797182
0.289000000000000146,-9.107427971309920878
0.290000000000000147,-9.250817279409059068
0.291000000000000147,-9.389585850807323553
0.292000000000000148,-9.523767860022051224
0.293000000000000149,-9.653398239998761454
0.294000000000000150,-9.778512861912824761
0.295000000000000151,-9.899148690641663251
0.296000000000000152,-10.015343917057737855
0.297000000000000153,-10.127138068332161680
0.298000000000000154,-10.234572097465935769
0.299000000000000155,-10.337688453282652290
0.300000000000000155,-10.436531132123128884
0.301000000000000156,-10.531145712480514121
0.302000000000000157,-10.621579373804836521
0.303000000000000158,-10.707880900689049852
0.304000000000000159,-10.790100673626294991
0.305000000000000160,-10.868290647499852852
0.306000000000000161,-10.942504318935153407
0.307000000000000162,-11.012796683607046333
0.308000000000000163,-11.079224184555920729
0.309000000000000163,-11.141844652524735437
0.310000000000000164,-11.200717239284905702
0.311000000000000165,-11.255902344873629062
0.312000000000000166,-11.307461539618751445
0.313000000000000167,-11.355457481780078410
0.314000000000000168,-11.399953831588488740
0.315000000000000169,-11.441015162416800166
0.316000000000000170,-11.478706869769276011
0.317000000000000171,-11.513095078729817189
0.318000000000000171,-11.544246550463210355
0.319000000000000172,-11.572228588319051212
0.320000000000000173,-11.597108944044085987
0.321000000000000174,-11.618955724566351506
0.322000000000000175,-11.637837299773584832
0.323000000000000176,-11.653822211668716236
0.324000000000000177,-11.666979085247472625
0.325000000000000178,-11.677376541406530919
0.326000000000000179,-11.685083112156444685
0.327000000000000179,-11.690167158380226908
0.328000000000000180,-11.692696790347374858
0.329000000000000181,-11.692739791163861085
0.330000000000000182,-11.690363543310271055
0.331000000000000183,-11.685634958394839344
0.332000000000000184,-11.678620410223052417
0.333000000000000185,-11.669385671263155402
0.334000000000000186,-11.657995852565402828
0.335000000000000187,-11.644515347173427955
0.336000000000000187,-11.629007777047856820
0.337000000000000188,-11.611535943505545632
0.338000000000000189,-11.592161781162776180
0.339000000000000190,-11.570946315356579248
0.340000000000000191,-11.547949623005678177
0.341000000000000192,-11.523230796861506420
0.342000000000000193,-11.496847913088945603
0.343000000000000194,-11.468858002107982230
0.344000000000000195,-11.439317022618599395
0.345000000000000195,-11.408279838725110977
0.346000000000000196,-11.375800200069145163
0.347000000000000197,-11.341930724875748382
0.348000000000000198,-11.306722885812625634
0.349000000000000199,-11.270226998558580789
0.350000000000000200,-11.232492212974769075
0.351000000000000201,-11.193566506769668578
0.352000000000000202,-11.153496681547348857
0.353000000000000203,-11.112328361127412180
0.354000000000000203,-11.070105992024576125
0.355000000000000204,-11.026872845975573156
0.356000000000000205,-10.982671024401673421
0.357000000000000206,-10.937541464695982540
0.358000000000000207,-10.891523948225351859
0.359000000000000208,-10.844657109938850681
0.360000000000000209,-10.796978449476068107
0.361000000000000210,-10.748524343670741388
0.362000000000000210,-10.699330060347357119
0.363000000000000211,-10.649429773310954417
0.364000000000000212,-10.598856578432968689
0.365000000000000213,-10.547642510738597821
0.366000000000000214,-10.495818562404311436
0.367000000000000215,-10.443414701576916315
0.368000000000000216,-10.390459891928944813
0.369000000000000217,-10.336982112867946881
0.370000000000000218,-10.283008380320929120
0.371000000000000218,-10.228564768017921693
0.372000000000000219,-10.173676429202338056
0.373000000000000220,-10.118367618698870913
0.374000000000000221,-10.062661715272900764
0.375000000000000222,-10.006581244218619275
0.376000000000000223,-9.950147900116444788
0.377000000000000224,-9.893382569703295104
0.378000000000000225,-9.836305354802387768
0.379000000000000226,-9.778935595262442604
0.380000000000000226,-9.721291891859159762
0.381000000000000227,-9.663392129114509288
0.382000000000000228,-9.605253497992686462
0.383000000000000229,-9.546892518433997665
0.384000000000000230,-9.488325061690748186
0.385000000000000231,-9.429566372432066856
0.386000000000000232,-9.370631090586787337
0.387000000000000233,-9.311533272896223679
0.388000000000000234,-9.252286414150910687
0.389000000000000234,-9.192903468087898489
0.390000000000000235,-9.133396867926938612
0.391000000000000236,-9.073778546526607869
0.392000000000000237,-9.014059956142801866
0.393000000000000238,-8.954252087774587920
0.394000000000000239,-8.894365490083654180
0.395000000000000240,-8.834410287875851253
0.396000000000000241,-8.774396200134697565
0.397000000000000242,-8.714332557598314821
0.398000000000000242,-8.654228319873016773
0.399000000000000243,-8.594092092077886491
0.400000000000000244,-8.533932141016119743
0.401000000000000245,-8.473756410870418421
0.402000000000000246,-8.413572538420497793
0.403000000000000247,-8.353387867782176457
0.404000000000000248,-8.293209464668539255
0.405000000000000249,-8.233044130174539177
0.406000000000000250,-8.172898414087358177
0.407000000000000250,-8.112778627725754532
0.408000000000000251,-8.052690856312304746
0.409000000000000252,-7.992640970883305052
0.410000000000000253,-7.932634639741590554
0.411000000000000254,-7.872677339458337364
0.412000000000000255,-7.812774365430310120
0.413000000000000256,-7.752930841999665645
0.414000000000000257,-7.693151732143687305
0.415000000000000258,-7.633441846742554659
0.416000000000000258,-7.573805853433223767
0.417000000000000259,-7.514248285058199528
0.418000000000000260,-7.454773547718017035
0.419000000000000261,-7.395385928436584599
0.420000000000000262,-7.336089602448787161
0.421000000000000263,-7.276888640119929974
0.422000000000000264,-7.217787013506589133
0.423000000000000265,-7.158788602568813886
0.424000000000000266,-7.099897201043603445
0.425000000000000266,-7.041116521989455812
0.426000000000000267,-6.982450203012204426
0.427000000000000268,-6.923901811182029853
0.428000000000000269,-6.865474847651697132
0.429000000000000270,-6.807172751986085402
0.430000000000000271,-6.748998906212785087
0.431000000000000272,-6.690956638603845263
0.432000000000000273,-6.633049227198284825
0.433000000000000274,-6.575279903075260002
0.434000000000000274,-6.517651853387272709
0.435000000000000275,-6.460168224163086670
0.436000000000000276,-6.402832122889636324
0.437000000000000277,-6.345646620882024358
0.438000000000000278,-6.288614755450812055
0.439000000000000279,-6.231739531875429172
0.440000000000000280,-6.175023925192364871
0.441000000000000281,-6.118470881806754136
0.442000000000000282,-6.062083320935752973
0.443000000000000282,-6.005864135891735955
0.444000000000000283,-5.949816195213476711
0.445000000000000284,-5.893942343653002069
0.446000000000000285,-5.838245403025667635
0.447000000000000286,-5.782728172931055788
0.448000000000000287,-5.727393431351589292
0.449000000000000288,-5.672243935136167536
0.450000000000000289,-5.617282420375330432
0.451000000000000290,-5.562511602674737432
0.452000000000000290,-5.507934177333251746
0.453000000000000291,-5.453552819431776832
0.454000000000000292,-5.399370183838935411
0.455000000000000293,-5.345388905139192737
0.456000000000000294,-5.291611597489161767
0.457000000000000295,-5.238040854407364222
0.458000000000000296,-5.184679248502627402
0.459000000000000297,-5.131529331146181150
0.460000000000000298,-5.078593632092117893
0.461000000000000298,-5.025874659050961313
0.462000000000000299,-4.973374897220655733
0.463000000000000300,-4.921096808779242160
0.464000000000000301,-4.869042832343319027
0.465000000000000302,-4.817215382396136114
0.466000000000000303,-4.765616848689015583
0.467000000000000304,-4.714249595619666167
0.468000000000000305,-4.663115961590792224
0.469000000000000306,-4.612218258352132061
0.470000000000000306,-4.561558770329134482
0.471000000000000307,-4.511139753940965669
0.472000000000000308,-4.460963436910839519
0.473000000000000309,-4.411032017571096198
0.474000000000000310,-4.361347664165617921
0.475000000000000311,-4.311912514151806874
0.476000000000000312,-4.262728673504532217
0.477000000000000313,-4.213798216023819876
0.478000000000000314,-4.165123182648476252
0.479000000000000314,-4.116705580777411555
0.480000000000000315,-4.068547383600271239
0.481000000000000316,-4.020650529439130594
0.482000000000000317,-3.973016921102588750
0.483000000000000318,-3.925648425253759566
0.484000000000000319,-3.878546871793334905
0.485000000000000320,-3.831714053259015262
0.486000000000000321,-3.785151724242288740
0.487000000000000322,-3.738861600823617515
0.488000000000000322,-3.692845360026856927
0.489000000000000323,-3.647104639293888617
0.490000000000000324,-3.601641035980029493
0.491000000000000325,-3.556456106871009215
0.492000000000000326,-3.511551367722005601
0.493000000000000327,-3.466928292819388524
0.494000000000000328,-3.422588314565474743
0.495000000000000329,-3.378532823086820347
0.496000000000000330,-3.334763165866250656
0.497000000000000330,-3.291280647399034365
0.498000000000000331,-3.248086528873232570
0.499000000000000332,-3.205182027874595718
0.500000000000000333,-3.162568318115946298
0.501000000000000334,-3.120246529191159635
0.502000000000000335,-3.078217746353788531
0.503000000000000336,-3.036483010320288667
0.504000000000000337,-2.995043317097741742
0.505000000000000338,-2.953899617836010627
0.506000000000000338,-2.913052818704179536
0.507000000000000339,-2.872503780791066941
0.508000000000000340,-2.832253320029625598
0.509000000000000341,-2.792302207145049842
0.510000000000000342,-2.752651167626191331
0.511000000000000343,-2.713300881720131841
0.512000000000000344,-2.674251984449478758
0.513000000000000345,-2.635505065652137713
0.514000000000000346,-2.597060670043169317
0.515000000000000346,-2.558919297298317908
0.516000000000000347,-2.521081402158845020
0.517000000000000348,-2.483547394557325649
0.518000000000000349,-2.446317639763804230
0.519000000000000350,-2.409392458552081173
0.520000000000000351,-2.372772127385503360
0.521000000000000352,-2.336456878621918865
0.522000000000000353,-2.300446900737266098
0.523000000000000353,-2.264742338567284019
0.524000000000000354,-2.229343293566979689
0.525000000000000355,-2.194249824087210587
0.526000000000000356,-2.159461945667973115
0.527000000000000357,-2.124979631347927889
0.528000000000000358,-2.090802811989492138
0.529000000000000359,-2.056931376619229646
0.530000000000000360,-2.023365172782801924
0.531000000000000361,-1.990104006914138690
0.532000000000000361,-1.957147644718192137
0.533000000000000362,-1.924495811566876879
0.534000000000000363,-1.892148192907590287
0.535000000000000364,-1.860104434683863106
0.536000000000000365,-1.828364143767624572
0.537000000000000366,-1.796926888402583744
0.538000000000000367,-1.765792198658181489
0.539000000000000368,-1.734959566893744753
0.540000000000000369,-1.704428448232159665
0.541000000000000369,-1.674198261042799896
0.542000000000000370,-1.644268387433049039
0.543000000000000371,-1.614638173748032868
0.544000000000000372,-1.585306931078098724
0.545000000000000373,-1.556273935773547556
0.546000000000000374,-1.527538429966164291
0.547000000000000375,-1.499099622097114226
0.548000000000000376,-1.470956687450799105
0.549000000000000377,-1.443108768694168154
0.550000000000000377,-1.415554976421089073
0.551000000000000378,-1.388294389701394183
0.552000000000000379,-1.361326056634153403
0.553000000000000380,-1.334648994904782393
0.554000000000000381,-1.308262192345573949
0.555000000000000382,-1.282164607499351350
0.556000000000000383,-1.256355170185700754
0.557000000000000384,-1.230832782069630760
0.558000000000000385,-1.205596317232081605
0.559000000000000385,-1.180644622742109462
0.560000000000000386,-1.155976519230285993
0.561000000000000387,-1.131590801463045803
0.562000000000000388,-1.107486238917619881
0.563000000000000389,-1.083661576357252354
0.564000000000000390,-1.060115534406398385
0.565000000000000391,-1.036846810125584772
0.566000000000000392,-1.013854077585657265
0.567000000000000393,-0.991135988441139815
0.568000000000000393,-0.968691172502401221
0.569000000000000394,-0.946518238306384374
0.570000000000000395,-0.924615773685662390
0.571000000000000396,-0.902982346335507557
0.572000000000000397,-0.881616504378823884
0.573000000000000398,-0.860516776928605509
0.574000000000000399,-0.839681674647816068
0.575000000000000400,-0.819109690306339955
0.576000000000000401,-0.798799299334907564
0.577000000000000401,-0.778748960375759136
0.578000000000000402,-0.758957115829815954
0.579000000000000403,-0.739422192400205902
0.580000000000000404,-0.720142601632002721
0.581000000000000405,-0.701116740447924047
0.582000000000000406,-0.682342991679895983
0.583000000000000407,-0.663819724596291350
0.584000000000000408,-0.645545295424710952
0.585000000000000409,-0.627518047870150752
0.586000000000000409,-0.609736313628428062
0.587000000000000410,-0.592198412894747284
0.588000000000000411,-0.574902654867249896
0.589000000000000412,-0.557847338245485824
0.590000000000000413,-0.541030751723632575
0.591000000000000414,-0.524451174478408721
0.592000000000000415,-0.508106876651581163
0.593000000000000416,-0.491996119826929257
0.594000000000000417,-0.476117157501615540
0.595000000000000417,-0.460468235551931393
0.596000000000000418,-0.445047592693191718
0.597000000000000419,-0.429853460933913412
0.598000000000000420,-0.414884066024016840
0.599000000000000421,-0.400137627897144021
0.600000000000000422,-0.385612361106939083
0.601000000000000423,-0.371306475257301261
0.602000000000000424,-0.357218175426525508
0.603000000000000425,-0.343345662585324340
0.604000000000000425,-0.329687134008668503
0.605000000000000426,-0.316240783681417892
0.606000000000000427,-0.303004802697775522
0.607000000000000428,-0.289977379654379697
0.608000000000000429,-0.277156701037277242
0.609000000000000430,-0.264540951602445618
0.610000000000000431,-0.252128314750163340
0.611000000000000432,-0.239916972892983971
