# CNT15-COO--10_TANNIC-CENTRAL-AC
# h[nm],U(h)[kJ/mol]
0.149999999999999994,153.231191434159569553
0.150999999999999995,151.516919678708120500
0.151999999999999996,149.015911089016583446
0.152999999999999997,146.391817494363777996
0.153999999999999998,143.885832121128686367
0.154999999999999999,141.539489782429114939
0.156000000000000000,139.315876584260223581
0.157000000000000001,137.160593511890766649
0.158000000000000002,135.028427031132764569
0.159000000000000002,132.891631226719653114
0.160000000000000003,130.739264442406863509
0.161000000000000004,128.572945983023316785
0.162000000000000005,126.401886668103685452
0.163000000000000006,124.238548414907540973
0.164000000000000007,122.095433212745291485
0.165000000000000008,119.983046687553809306
0.166000000000000009,117.908866790362282018
0.167000000000000010,115.877071992813554857
0.168000000000000010,113.888781810016297413
0.169000000000000011,111.942596576392404017
0.170000000000000012,110.035270429376652146
0.171000000000000013,108.162398916902745327
0.172000000000000014,106.319044373856897323
0.173000000000000015,104.500255811161238739
0.174000000000000016,102.701465250537211205
0.175000000000000017,100.918760030580969556
0.176000000000000018,99.149041883634396299
0.177000000000000018,97.390089920209888419
0.178000000000000019,95.640547350162805174
0.179000000000000020,93.899851927701533327
0.180000000000000021,92.168128630147762692
0.181000000000000022,90.446060661789843493
0.182000000000000023,88.734752024743784204
0.183000000000000024,87.035591975477217375
0.184000000000000025,85.350128922822406707
0.185000000000000026,83.679958860839846579
0.186000000000000026,82.026631338091391399
0.187000000000000027,80.391574264795650606
0.188000000000000028,78.776037539015717925
0.189000000000000029,77.181054499986018413
0.190000000000000030,75.607419547198929877
0.191000000000000031,74.055679849601887099
0.192000000000000032,72.526138861838091998
0.193000000000000033,71.018869318406586899
0.194000000000000034,69.533733451091208622
0.195000000000000034,68.070408334644497472
0.196000000000000035,66.628414480894036842
0.197000000000000036,65.207146048102003988
0.198000000000000037,63.805901291618475568
0.199000000000000038,62.423912139270747446
0.200000000000000039,61.060372020091605805
0.201000000000000040,59.714461300783852948
0.202000000000000041,58.385369886307344700
0.203000000000000042,57.072316716864193609
0.204000000000000042,55.774566042693606960
0.205000000000000043,54.491440481050332778
0.206000000000000044,53.222330957975358956
0.207000000000000045,51.966703713006971554
0.208000000000000046,50.724104600199879656
0.209000000000000047,49.494160956262881257
0.210000000000000048,48.276581328861162490
0.211000000000000049,47.071153367651518806
0.212000000000000050,45.877740179771805629
0.213000000000000050,44.696275442449760362
0.214000000000000051,43.526757550055499735
0.215000000000000052,42.369243053004801425
0.216000000000000053,41.223839622890182000
0.217000000000000054,40.090698753316502234
0.218000000000000055,38.970008380179280039
0.219000000000000056,37.861985579382732681
0.220000000000000057,36.766869474906563653
0.221000000000000058,35.684914466211850481
0.222000000000000058,34.616383861581880410
0.223000000000000059,33.561543983393512747
0.224000000000000060,32.520658792655360969
0.225000000000000061,31.493985063513406431
0.226000000000000062,30.481768123822586603
0.227000000000000063,29.484238165276586585
0.228000000000000064,28.501607115898913491
0.229000000000000065,27.534066058815426459
0.230000000000000066,26.581783174029038008
0.231000000000000066,25.644902174253388694
0.232000000000000067,24.723541201590741423
0.233000000000000068,23.817792148805420283
0.234000000000000069,22.927720367000866020
0.235000000000000070,22.053364720510771235
0.236000000000000071,21.194737949626471618
0.237000000000000072,20.351827302271740194
0.238000000000000073,19.524595396788356538
0.239000000000000073,18.712981279499466325
0.240000000000000074,17.916901642572433673
0.241000000000000075,17.136252169827958625
0.242000000000000076,16.370908980452849590
0.243000000000000077,15.620730143007019564
0.244000000000000078,14.885557234612416977
0.245000000000000079,14.165216922721569404
0.246000000000000080,13.459522549348090337
0.247000000000000081,12.768275700062821087
0.248000000000000081,12.091267742394308016
0.249000000000000082,11.428281320496910922
0.250000000000000111,10.779091795048344693
0.251000000000000112,10.143468619300715972
0.252000000000000113,9.521176644024617275
0.253000000000000114,8.911977345755975222
0.254000000000000115,8.315629974271171676
0.255000000000000115,7.731892616586636180
0.256000000000000116,7.160523176001623469
0.257000000000000117,6.601280265785466561
0.258000000000000118,6.053924018058969736
0.259000000000000119,5.518216809238795761
0.260000000000000120,4.993923904113236389
0.261000000000000121,4.480814021206017905
0.262000000000000122,3.978659822567765847
0.263000000000000123,3.487238331524433299
0.264000000000000123,3.006331282213194900
0.265000000000000124,2.535725404960464502
0.266000000000000125,2.075212651709745781
0.267000000000000126,1.624590365798078917
0.268000000000000127,1.183661400414711462
0.269000000000000128,0.752234190063890029
0.270000000000000129,0.330122779298936520
0.271000000000000130,-0.082853187095183897
0.272000000000000131,-0.486868508412827805
0.273000000000000131,-0.882092502918982668
0.274000000000000132,-1.268689109571812690
0.275000000000000133,-1.646817013007666031
0.276000000000000134,-2.016629788411832713
0.277000000000000135,-2.378276063097975346
0.278000000000000136,-2.731899691825752097
0.279000000000000137,-3.077639943093992692
0.280000000000000138,-3.415631693855109230
0.281000000000000139,-3.746005630304027445
0.282000000000000139,-4.068888452597485994
0.283000000000000140,-4.384403081558630788
0.284000000000000141,-4.692668865613590867
0.285000000000000142,-4.993801786392110031
0.286000000000000143,-5.287914661601346822
0.287000000000000144,-5.575117343950235060
0.288000000000000145,-5.855516915062108474
0.289000000000000146,-6.129217873462304844
0.290000000000000147,-6.396322315869527486
0.291000000000000147,-6.656930111149760521
0.292000000000000148,-6.911139066414227372
0.293000000000000149,-7.159045084854172458
0.294000000000000150,-7.400742315009075867
0.295000000000000151,-7.636323291258511503
0.296000000000000152,-7.865879065413460935
0.297000000000000153,-8.089499329359728819
0.298000000000000154,-8.307272528775424547
0.299000000000000155,-8.519285968005608112
0.300000000000000155,-8.725625906231709195
0.301000000000000156,-8.926377645120314952
0.302000000000000157,-9.121625608177641453
0.303000000000000158,-9.311453412070344271
0.304000000000000159,-9.495943930203445404
0.305000000000000160,-9.675179348870134532
0.306000000000000161,-9.849241216308072921
0.307000000000000162,-10.018210485012186695
0.308000000000000163,-10.182167547664921159
0.309000000000000163,-10.341192267052985443
0.310000000000000164,-10.495364000343867517
0.311000000000000165,-10.644761618096918454
0.312000000000000166,-10.789463518382671481
0.313000000000000167,-10.929547636380611664
0.314000000000000168,-11.065091449819986380
0.315000000000000169,-11.196171980621020481
0.316000000000000170,-11.322865793085060915
0.317000000000000171,-11.445248988971775006
0.318000000000000171,-11.563397199790284020
0.319000000000000172,-11.677385576619094820
0.320000000000000173,-11.787288777756272040
0.321000000000000174,-11.893180954487979406
0.322000000000000175,-11.995135735249466080
0.323000000000000176,-12.093226208438162317
0.324000000000000177,-12.187524904124149572
0.325000000000000178,-12.278103774888396771
0.326000000000000179,-12.365034176005151423
0.327000000000000179,-12.448386845169727266
0.328000000000000180,-12.528231881959179361
0.329000000000000181,-12.604638727199178660
0.330000000000000182,-12.677676142396487435
0.331000000000000183,-12.747412189383540593
0.332000000000000184,-12.813914210308164243
0.333000000000000185,-12.877248808089367671
0.334000000000000186,-12.937481827447820493
0.335000000000000187,-12.994678336608188829
0.336000000000000187,-13.048902609759622351
0.337000000000000188,-13.100218110349533873
0.338000000000000189,-13.148687475276588543
0.339000000000000190,-13.194372500038856089
0.340000000000000191,-13.237334124883986419
0.341000000000000192,-13.277632422000371193
0.342000000000000193,-13.315326583779793168
0.343000000000000194,-13.350474912175110731
0.344000000000000195,-13.383134809169078494
0.345000000000000195,-13.413362768364819999
0.346000000000000196,-13.441214367701599386
0.347000000000000197,-13.466744263294913253
0.348000000000000198,-13.490006184394335520
0.349000000000000199,-13.511052929448279514
0.350000000000000200,-13.529936363260670618
0.351000000000000201,-13.546707415220589965
0.352000000000000202,-13.561416078582700706
0.353000000000000203,-13.574111410773365805
0.354000000000000203,-13.584841534694513498
0.355000000000000204,-13.593653640994924459
0.356000000000000205,-13.600593991276866745
0.357000000000000206,-13.605707922204160809
0.358000000000000207,-13.609039850475955546
0.359000000000000208,-13.610633278629851617
0.360000000000000209,-13.610530801636738119
0.361000000000000210,-13.608774114248863185
0.362000000000000210,-13.605404019062433463
0.363000000000000211,-13.600460435255419256
0.364000000000000212,-13.593982407961359371
0.365000000000000213,-13.586008118239618625
0.366000000000000214,-13.576574893603076788
0.367000000000000215,-13.565719219064197532
0.368000000000000216,-13.553476748661159590
0.369000000000000217,-13.539882317425881553
0.370000000000000218,-13.524969953756862395
0.371000000000000218,-13.508772892159985446
0.372000000000000219,-13.491323586321664507
0.373000000000000220,-13.472653722479368099
0.374000000000000221,-13.452794233055524131
0.375000000000000222,-13.431775310521709699
0.376000000000000223,-13.409626421461368295
0.377000000000000224,-13.386376320799982409
0.378000000000000225,-13.362053066173023907
0.379000000000000226,-13.336684032402857270
0.380000000000000226,-13.310295926057412075
0.381000000000000227,-13.282914800063803540
0.382000000000000228,-13.254566068352186647
0.383000000000000229,-13.225274520505484688
0.384000000000000230,-13.195064336392245963
0.385000000000000231,-13.163959100761061904
0.386000000000000232,-13.131981817775841392
0.387000000000000233,-13.099154925472623390
0.388000000000000234,-13.065500310119665173
0.389000000000000234,-13.031039320463705167
0.390000000000000235,-12.995792781846208896
0.391000000000000236,-12.959781010174722837
0.392000000000000237,-12.923023825735322490
0.393000000000000238,-12.885540566833265430
0.394000000000000239,-12.847350103249800313
0.395000000000000240,-12.808470849504288935
0.396000000000000241,-12.768920777911541009
0.397000000000000242,-12.728717431425046414
0.398000000000000242,-12.687877936258241007
0.399000000000000243,-12.646419014275860349
0.400000000000000244,-12.604356995149158749
0.401000000000000245,-12.561707828269003784
0.402000000000000246,-12.518487094411707261
0.403000000000000247,-12.474710017153267216
0.404000000000000248,-12.430391474028345655
0.405000000000000249,-12.385546007430937365
0.406000000000000250,-12.340187835254182502
0.407000000000000250,-12.294330861267711796
0.408000000000000251,-12.247988685231064210
0.409000000000000252,-12.201174612742546444
0.410000000000000253,-12.153901664823250073
0.411000000000000254,-12.106182587236521186
0.412000000000000255,-12.058029859543450968
0.413000000000000256,-12.009455703895714151
0.414000000000000257,-11.960472093566941965
0.415000000000000258,-11.911090761224816248
0.416000000000000258,-11.861323206945849407
0.417000000000000259,-11.811180705975518279
0.418000000000000260,-11.760674316236494619
0.419000000000000261,-11.709814885588125222
0.420000000000000262,-11.658613058840419541
0.421000000000000263,-11.607079284526282237
0.422000000000000264,-11.555223821435539833
0.423000000000000265,-11.503056744914905707
0.424000000000000266,-11.450587952938040104
0.425000000000000266,-11.397827171949838743
0.426000000000000267,-11.344783962489573881
0.427000000000000268,-11.291467724597314515
0.428000000000000269,-11.237887703008318852
0.429000000000000270,-11.184052992140227190
0.430000000000000271,-11.129972540877707488
0.431000000000000272,-11.075655157159653541
0.432000000000000273,-11.021109512373680417
0.433000000000000274,-10.966344145563081014
0.434000000000000274,-10.911367467451057678
0.435000000000000275,-10.856187764287398068
0.436000000000000276,-10.800813201522618812
0.437000000000000277,-10.745251827314437065
0.438000000000000278,-10.689511575871815552
0.439000000000000279,-10.633600270641412777
0.440000000000000280,-10.577525627341490377
0.441000000000000281,-10.521295256848105737
0.442000000000000282,-10.464916667938668482
0.443000000000000282,-10.408397269897472270
0.444000000000000283,-10.351744374988195219
0.445000000000000284,-10.294965200797985716
0.446000000000000285,-10.238066872457780576
0.447000000000000286,-10.181056424743626820
0.448000000000000287,-10.123940804063302323
0.449000000000000288,-10.066726870332887600
0.450000000000000289,-10.009421398747548437
0.451000000000000290,-9.952031081450867234
0.452000000000000290,-9.894562529106954329
0.453000000000000291,-9.837022272379414289
0.454000000000000292,-9.779416763321250983
0.455000000000000293,-9.721752376679628327
0.456000000000000294,-9.664035411119362706
0.457000000000000295,-9.606272090368937810
0.458000000000000296,-9.548468564292607041
0.459000000000000297,-9.490630909892331601
0.460000000000000298,-9.432765132242845851
0.461000000000000298,-9.374877165363434628
0.462000000000000299,-9.316972873029552460
0.463000000000000300,-9.259058049527542522
0.464000000000000301,-9.201138420355620795
0.465000000000000302,-9.143219642874061748
0.466000000000000303,-9.085307306907500546
0.467000000000000304,-9.027406935302233038
0.468000000000000305,-8.969523984441199360
0.469000000000000306,-8.911663844719278416
0.470000000000000306,-8.853831840981584378
0.471000000000000307,-8.796033232926927070
0.472000000000000308,-8.738273215479193112
0.473000000000000309,-8.680556919128632032
0.474000000000000310,-8.622889410245360153
0.475000000000000311,-8.565275691367215671
0.476000000000000312,-8.507720701464027258
0.477000000000000313,-8.450229316180141836
0.478000000000000314,-8.392806348057144206
0.479000000000000314,-8.335456546738669203
0.480000000000000315,-8.278184599158775470
0.481000000000000316,-8.220995129715852556
0.482000000000000317,-8.163892700433311944
0.483000000000000318,-8.106881811108815228
0.484000000000000319,-8.049966899453304237
0.485000000000000320,-7.993152341221313684
0.486000000000000321,-7.936442450333788479
0.487000000000000322,-7.879841478994686454
0.488000000000000322,-7.823353617802422555
0.489000000000000323,-7.766982995857523164
0.490000000000000324,-7.710733680867233097
0.491000000000000325,-7.654609679248292942
0.492000000000000326,-7.598614936228647032
0.493000000000000327,-7.542753335949210047
0.494000000000000328,-7.487028701566207367
0.495000000000000329,-7.431444795355170996
0.496000000000000330,-7.376005318817083101
0.497000000000000330,-7.320713912787555344
0.498000000000000331,-7.265574157549440137
0.499000000000000332,-7.210589572949766435
0.500000000000000333,-7.155763618521301161
0.501000000000000334,-7.101099693609318919
0.502000000000000335,-7.046601137504103107
0.503000000000000336,-6.992271229579598568
0.504000000000000337,-6.938113189438526618
0.505000000000000338,-6.884130177064411882
0.506000000000000338,-6.830325292980835350
0.507000000000000339,-6.776701578418142802
0.508000000000000340,-6.723262015487915910
0.509000000000000341,-6.670009527365517776
0.510000000000000342,-6.616946978480726216
0.511000000000000343,-6.564077174716826946
0.512000000000000344,-6.511402863618158676
0.513000000000000345,-6.458926734606350806
0.514000000000000346,-6.406651419205338982
0.515000000000000346,-6.354579491275126557
0.516000000000000347,-6.302713467254486446
0.517000000000000348,-6.251055806412622928
0.518000000000000349,-6.199608911109647735
0.519000000000000350,-6.148375127066158186
0.520000000000000351,-6.097356743641574539
0.521000000000000352,-6.046555994121499467
0.522000000000000353,-5.995975056013831406
0.523000000000000353,-5.945616051353627363
0.524000000000000354,-5.895481047016756015
0.525000000000000355,-5.845572055042044468
0.526000000000000356,-5.795891032961941747
0.527000000000000357,-5.746439884141638643
0.528000000000000358,-5.697220458126278864
0.529000000000000359,-5.648234550996463099
0.530000000000000360,-5.599483905731577060
0.531000000000000361,-5.550970212581009200
0.532000000000000361,-5.502695109442990784
0.533000000000000362,-5.454660182250931300
0.534000000000000363,-5.406866965367049360
0.535000000000000364,-5.359316941983117033
0.536000000000000365,-5.312011544528163931
0.537000000000000366,-5.264952155082909258
0.538000000000000367,-5.218140105800694428
0.539000000000000368,-5.171576679334872750
0.540000000000000369,-5.125263109272184536
0.541000000000000369,-5.079200580572198476
0.542000000000000370,-5.033390230012390276
0.543000000000000371,-4.987833146638733339
0.544000000000000372,-4.942530372221614954
0.545000000000000373,-4.897482901716811554
0.546000000000000374,-4.852691683731290340
0.547000000000000375,-4.808157620993672055
0.548000000000000376,-4.763881570829129330
0.549000000000000377,-4.719864345638469239
0.550000000000000377,-4.676106713381178892
0.551000000000000378,-4.632609398062237815
0.552000000000000379,-4.589373080222520329
0.553000000000000380,-4.546398397432462879
0.554000000000000381,-4.503685944788856865
0.555000000000000382,-4.461236275414595553
0.556000000000000383,-4.419049900960998478
0.557000000000000384,-4.377127292112723111
0.558000000000000385,-4.335468879094844574
0.559000000000000385,-4.294075052182045660
0.560000000000000386,-4.252946162209644498
0.561000000000000387,-4.212082521086269793
0.562000000000000388,-4.171484402307971351
0.563000000000000389,-4.131152041473608705
0.564000000000000390,-4.091085636801272685
0.565000000000000391,-4.051285349645577405
0.566000000000000392,-4.011751305015628155
0.567000000000000393,-3.972483592093512872
0.568000000000000393,-3.933482264753042301
0.569000000000000394,-3.894747342078647367
0.570000000000000395,-3.856278808884272991
0.571000000000000396,-3.818076616231967257
0.572000000000000397,-3.780140681950173054
0.573000000000000398,-3.742470891151396195
0.574000000000000399,-3.705067096749226074
0.575000000000000400,-3.667929119974412622
0.576000000000000401,-3.631056750889956497
0.577000000000000401,-3.594449748905054864
0.578000000000000402,-3.558107843287659389
0.579000000000000403,-3.522030733675570957
0.580000000000000404,-3.486218090586005847
0.581000000000000405,-3.450669555923309595
0.582000000000000406,-3.415384743484883412
0.583000000000000407,-3.380363239465035807
0.584000000000000408,-3.345604602956760765
0.585000000000000409,-3.311108366451233742
0.586000000000000409,-3.276874036334918916
0.587000000000000410,-3.242901093384263245
0.588000000000000411,-3.209188993257699796
0.589000000000000412,-3.175737166985049598
0.590000000000000413,-3.142545021454025367
0.591000000000000414,-3.109611939893892618
0.592000000000000415,-3.076937282356133174
0.593000000000000416,-3.044520386191959638
0.594000000000000417,-3.012360566526674166
0.595000000000000417,-2.980457116730837352
0.596000000000000418,-2.948809308887902159
0.597000000000000419,-2.917416394258638412
0.598000000000000420,-2.886277603741857600
0.599000000000000421,-2.855392148331687086
0.600000000000000422,-2.824759219571131297
0.601000000000000423,-2.794377990001929213
0.602000000000000424,-2.764247613610658849
0.603000000000000425,-2.734367226270961737
0.604000000000000425,-2.704735946181898498
0.605000000000000426,-2.675352874302332928
0.606000000000000427,-2.646217094781381896
0.607000000000000428,-2.617327675384662378
0.608000000000000429,-2.588683667916649167
0.609000000000000430,-2.560284108638684053
