# CNT15-COO--10_HISTIDINEZWITTER
# h[nm],U(h)[kJ/mol]
0.149999999999999994,146.219854330914927232
0.150999999999999995,142.144425522249235883
0.151999999999999996,139.541190851518990712
0.152999999999999997,137.259564418931688579
0.153999999999999998,134.895228437449304693
0.154999999999999999,132.383535041495008500
0.156000000000000000,129.785227060699384083
0.157000000000000001,127.183273867374126098
0.158000000000000002,124.640930446721426961
0.159000000000000002,122.191208884030132253
0.160000000000000003,119.840604688344981810
0.161000000000000004,117.577718394711695282
0.162000000000000005,115.382081913835577325
0.163000000000000006,113.231186457955999458
0.164000000000000007,111.105168580640338405
0.165000000000000008,108.989331742922473723
0.166000000000000009,106.874974458752376449
0.167000000000000010,104.759056913623837204
0.168000000000000010,102.643183956732258366
0.169000000000000011,100.532282384159941557
0.170000000000000012,98.433242380748836808
0.171000000000000013,96.353695834634805806
0.172000000000000014,94.301025734712112580
0.173000000000000015,92.281642479784778743
0.174000000000000016,90.300522917769811215
0.175000000000000017,88.360983156203403155
0.176000000000000018,86.464643168226430703
0.177000000000000018,84.611536710267586159
0.178000000000000019,82.800321296404050031
0.179000000000000020,81.028547725488763831
0.180000000000000021,79.292955256706648015
0.181000000000000022,77.589765778519932837
0.182000000000000023,75.914957408067110123
0.183000000000000024,74.264504393305301733
0.184000000000000025,72.634575699145216277
0.185000000000000026,71.021689136952687704
0.186000000000000026,69.422821351296789771
0.187000000000000027,67.835476486472842339
0.188000000000000028,66.257718035547071622
0.189000000000000029,64.688169361373851984
0.190000000000000030,63.125988809350680242
0.191000000000000031,61.570825335113070764
0.192000000000000032,60.022760263004919068
0.193000000000000033,58.482240272747411325
0.194000000000000034,56.950006064916252058
0.195000000000000034,55.427020446636689144
0.196000000000000035,53.914398858098685707
0.197000000000000036,52.413344665433058367
0.198000000000000037,50.925090902079972466
0.199000000000000038,49.450849565517351891
0.200000000000000039,47.991769078040917407
0.201000000000000040,46.548900102303477411
0.202000000000000041,45.123169563282289118
0.203000000000000042,43.715362463907169399
0.204000000000000042,42.326110885344775170
0.205000000000000043,40.955889427277959669
0.206000000000000044,39.605016260238045334
0.207000000000000045,38.273658922871092614
0.208000000000000046,36.961843993941840836
0.209000000000000047,35.669469794424237818
0.210000000000000048,34.396321322405654541
0.211000000000000049,33.142086686718023714
0.212000000000000050,31.906374378984644125
0.213000000000000050,30.688730803723405671
0.214000000000000051,29.488657568610630477
0.215000000000000052,28.305628119044872193
0.216000000000000053,27.139103380449238756
0.217000000000000054,25.988546146578034524
0.218000000000000055,24.853434021211921134
0.219000000000000056,23.733270783218820554
0.220000000000000057,22.627596100556136349
0.221000000000000058,21.535993567232157631
0.222000000000000058,20.458097078569409177
0.223000000000000059,19.393595594575202767
0.224000000000000060,18.342236369180081823
0.225000000000000061,17.303826745027301115
0.226000000000000062,16.278234629911217723
0.227000000000000063,15.265387782433581521
0.228000000000000064,14.265272041553760829
0.229000000000000065,13.277928638020787488
0.230000000000000066,12.303450725754476736
0.231000000000000066,11.341979268610383969
0.232000000000000067,10.393698413119016877
0.233000000000000068,9.458830471181382649
0.234000000000000069,8.537630628745194628
0.235000000000000070,7.630381487543631991
0.236000000000000071,6.737387537377261815
0.237000000000000072,5.858969646436722023
0.238000000000000073,4.995459647044336648
0.239000000000000073,4.147195084137634602
0.240000000000000074,3.314514183990152851
0.241000000000000075,2.497751091208279206
0.242000000000000076,1.697231413055752425
0.243000000000000077,0.913268101722896963
0.244000000000000078,0.146157697334390768
0.245000000000000079,-0.603823052688341466
0.246000000000000080,-1.336420188802084352
0.247000000000000081,-2.051405145783177009
0.248000000000000081,-2.748576972331679080
0.249000000000000082,-3.427764170251843545
0.250000000000000111,-4.088826163512475631
0.251000000000000112,-4.731654410782533127
0.252000000000000113,-5.356173177769099070
0.253000000000000114,-5.962339987888377379
0.254000000000000115,-6.550145771524522154
0.255000000000000115,-7.119614735408378081
0.256000000000000116,-7.670803974527069968
0.257000000000000117,-8.203802849493083471
0.258000000000000118,-8.718732152498869681
0.259000000000000119,-9.215743084900539728
0.260000000000000120,-9.695016069147538218
0.261000000000000121,-10.156759417238273357
0.262000000000000122,-10.601207877170496729
0.263000000000000123,-11.028621077996175970
0.264000000000000123,-11.439281893115438749
0.265000000000000124,-11.833494740375611443
0.266000000000000125,-12.211583836404276582
0.267000000000000126,-12.573891421419839176
0.268000000000000127,-12.920775969548515150
0.269000000000000128,-13.252610398447847828
0.270000000000000129,-13.569780290810211199
0.271000000000000130,-13.872682139106638388
0.272000000000000131,-14.161721623741494014
0.273000000000000131,-14.437311933633248273
0.274000000000000132,-14.699872137120342686
0.275000000000000133,-14.949825610023243172
0.276000000000000134,-15.187598526675689214
0.277000000000000135,-15.413618418775479668
0.278000000000000136,-15.628312806000682400
0.279000000000000137,-15.832107901490690693
0.280000000000000138,-16.025427394505641132
0.281000000000000139,-16.208691311852280847
0.282000000000000139,-16.382314958997898913
0.283000000000000140,-16.546707941186774349
0.284000000000000141,-16.702273264323537205
0.285000000000000142,-16.849406514893409792
0.286000000000000143,-16.988495117748335872
0.287000000000000144,-17.119917670198105952
0.288000000000000145,-17.244043350505190659
0.289000000000000146,-17.361231398586177477
0.290000000000000147,-17.471830666472452975
0.291000000000000147,-17.576179235870846185
0.292000000000000148,-17.674604099993569406
0.293000000000000149,-17.767420906687725335
0.294000000000000150,-17.854933759790736048
0.295000000000000151,-17.937435075562028430
0.296000000000000152,-18.015205490993196236
0.297000000000000153,-18.088513820775805385
0.298000000000000154,-18.157617059704161733
0.299000000000000155,-18.222760427309601994
0.300000000000000155,-18.284177451559195049
0.301000000000000156,-18.342090088503628209
0.302000000000000157,-18.396708874825485225
0.303000000000000158,-18.448233110316220262
0.304000000000000159,-18.496851067398576873
0.305000000000000160,-18.542740224907127811
0.306000000000000161,-18.586067523443432492
0.307000000000000162,-18.626989639731437620
0.308000000000000163,-18.665653277512138430
0.309000000000000163,-18.702195472633547979
0.310000000000000164,-18.736743910111371747
0.311000000000000165,-18.769417251055656948
0.312000000000000166,-18.800325467480249131
0.313000000000000167,-18.829570183131899341
0.314000000000000168,-18.857245018595701680
0.315000000000000169,-18.883435939051480545
0.316000000000000170,-18.908221603171643466
0.317000000000000171,-18.931673711764315016
0.318000000000000171,-18.953857354875751184
0.319000000000000172,-18.974831356173542218
0.320000000000000173,-18.994648613535240145
0.321000000000000174,-19.013356434866899747
0.322000000000000175,-19.030996868271909506
0.323000000000000176,-19.047607025782177459
0.324000000000000177,-19.063219399951169208
0.325000000000000178,-19.077862172691634868
0.326000000000000179,-19.091559515819884751
0.327000000000000179,-19.104331882843119672
0.328000000000000180,-19.116196291596793344
0.329000000000000181,-19.127166597405366844
0.330000000000000182,-19.137253756501543478
0.331000000000000183,-19.146466079497631796
0.332000000000000184,-19.154809474756099519
0.333000000000000185,-19.162287681557053531
0.334000000000000186,-19.168902493006463317
0.335000000000000187,-19.174653968671762527
0.336000000000000187,-19.179540636971019296
0.337000000000000188,-19.183559687377019998
0.338000000000000189,-19.186707152531180753
0.339000000000000190,-19.188978080391212444
0.340000000000000191,-19.190366696562943361
0.341000000000000192,-19.190866556991245773
0.342000000000000193,-19.190470691205330667
0.343000000000000194,-19.189171736333157980
0.344000000000000195,-19.186962062115149763
0.345000000000000195,-19.183833887162510479
0.346000000000000196,-19.179779386716326428
0.347000000000000197,-19.174790792174626120
0.348000000000000198,-19.168860482662122280
0.349000000000000199,-19.161981068924141880
0.350000000000000200,-19.154145469831295401
0.351000000000000201,-19.145346981784523877
0.352000000000000202,-19.135579341312652701
0.353000000000000203,-19.124836781155309495
0.354000000000000203,-19.113114080123832395
0.355000000000000204,-19.100406607031363393
0.356000000000000205,-19.086710358981413549
0.357000000000000206,-19.072021994300900616
0.358000000000000207,-19.056338860399620216
0.359000000000000208,-19.039659016834107774
0.360000000000000209,-19.021981253848238680
0.361000000000000210,-19.003305106657297330
0.362000000000000210,-18.983630865736465410
0.363000000000000211,-18.962959583367638317
0.364000000000000212,-18.941293076691820829
0.365000000000000213,-18.918633927507293890
0.366000000000000214,-18.894985479045910637
0.367000000000000215,-18.870351829952618061
0.368000000000000216,-18.844737825685381694
0.369000000000000217,-18.818149047544650898
0.370000000000000218,-18.790591799533867601
0.371000000000000218,-18.762073093244129751
0.372000000000000219,-18.732600630948347487
0.373000000000000220,-18.702182787082289650
0.374000000000000221,-18.670828588281768390
0.375000000000000222,-18.638547692137283462
0.376000000000000223,-18.605350364820235853
0.377000000000000224,-18.571247457726293817
0.378000000000000225,-18.536250383274666120
0.379000000000000226,-18.500371089994182228
0.380000000000000226,-18.463622037020307687
0.381000000000000227,-18.426016168119431882
0.382000000000000228,-18.387566885350729251
0.383000000000000229,-18.348288022468512537
0.384000000000000230,-18.308193818161740296
0.385000000000000231,-18.267298889221088132
0.386000000000000232,-18.225618203717743881
0.387000000000000233,-18.183167054272189489
0.388000000000000234,-18.139961031485604792
0.389000000000000234,-18.096015997601050174
0.390000000000000235,-18.051348060456071210
0.391000000000000236,-18.005973547783685973
0.392000000000000237,-17.959908981913443426
0.393000000000000238,-17.913171054920010050
0.394000000000000239,-17.865776604261814242
0.395000000000000240,-17.817742588948419780
0.396000000000000241,-17.769086066271196245
0.397000000000000242,-17.719824169127711855
0.398000000000000242,-17.669974083967094458
0.399000000000000243,-17.619553029379623865
0.400000000000000244,-17.568578235350980066
0.401000000000000245,-17.517066923198274964
0.402000000000000246,-17.465036286201890192
0.403000000000000247,-17.412503470944852069
0.404000000000000248,-17.359485559368341256
0.405000000000000249,-17.305999551549966498
0.406000000000000250,-17.252062349208877379
0.407000000000000250,-17.197690739939634597
0.408000000000000251,-17.142901382175089964
0.409000000000000252,-17.087710790876339928
0.410000000000000253,-17.032135323946199890
0.411000000000000254,-16.976191169361221966
0.412000000000000255,-16.919894333015609078
0.413000000000000256,-16.863260627269159642
0.414000000000000257,-16.806305660190091089
0.415000000000000258,-16.749044825482481968
0.416000000000000258,-16.691493293087127370
0.417000000000000259,-16.633666000443518840
0.418000000000000260,-16.575577644399931643
0.419000000000000261,-16.517242673757980498
0.420000000000000262,-16.458675282437045695
0.421000000000000263,-16.399889403243701480
0.422000000000000264,-16.340898702230603590
0.423000000000000265,-16.281716573628777667
0.424000000000000266,-16.222356135337363980
0.425000000000000266,-16.162830224953772529
0.426000000000000267,-16.103151396327724854
0.427000000000000268,-16.043331916622072697
0.428000000000000269,-15.983383763863162841
0.429000000000000270,-15.923318624963622270
0.430000000000000271,-15.863147894200150034
0.431000000000000272,-15.802882672129191732
0.432000000000000273,-15.742533764923061668
0.433000000000000274,-15.682111684109562688
0.434000000000000274,-15.621626646697873042
0.435000000000000275,-15.561088575673881707
0.436000000000000276,-15.500507100848272657
0.437000000000000277,-15.439891560040729601
0.438000000000000278,-15.379251000583957776
0.439000000000000279,-15.318594181131626186
0.440000000000000280,-15.257929573754088537
0.441000000000000281,-15.197265366306680789
0.442000000000000282,-15.136609465055240520
0.443000000000000282,-15.075969497543805886
0.444000000000000283,-15.015352815690150123
0.445000000000000284,-14.954766499094665377
0.446000000000000285,-14.894217358548747399
0.447000000000000286,-14.833711939729260720
0.448000000000000287,-14.773256527065550259
0.449000000000000288,-14.712857147766523980
0.450000000000000289,-14.652519575995039958
0.451000000000000290,-14.592249337177602087
0.452000000000000290,-14.532051712437723978
0.453000000000000291,-14.471931743141334792
0.454000000000000292,-14.411894235543581289
0.455000000000000293,-14.351943765526087304
0.456000000000000294,-14.292084683414639557
0.457000000000000295,-14.232321118867394816
0.458000000000000296,-14.172656985823987696
0.459000000000000297,-14.113095987506572015
0.460000000000000298,-14.053641621463848210
0.461000000000000298,-13.994297184649804322
0.462000000000000299,-13.935065778529018843
0.463000000000000300,-13.875950314200753866
0.464000000000000301,-13.816953517534580342
0.465000000000000302,-13.758077934310417589
0.466000000000000303,-13.699325935356238659
0.467000000000000304,-13.640699721677105316
0.468000000000000305,-13.582201329569423720
0.469000000000000306,-13.523832635714622796
0.470000000000000306,-13.465595362246904898
0.471000000000000307,-13.407491081789661536
0.472000000000000308,-13.349521222455972946
0.473000000000000309,-13.291687072808311854
0.474000000000000310,-13.233989786773278752
0.475000000000000311,-13.176430388507210267
0.476000000000000312,-13.119009777209010181
0.477000000000000313,-13.061728731876366183
0.478000000000000314,-13.004587916002298797
0.479000000000000314,-12.947587882208878796
0.480000000000000315,-12.890729076815109266
0.481000000000000316,-12.834011844336647101
0.482000000000000317,-12.777436431914608761
0.483000000000000318,-12.721002993671456593
0.484000000000000319,-12.664711594991892696
0.485000000000000320,-12.608562216726911132
0.486000000000000321,-12.552554759319383137
0.487000000000000322,-12.496689046849743576
0.488000000000000322,-12.440964831000304258
0.489000000000000323,-12.385381794937384115
0.490000000000000324,-12.329939557109952375
0.491000000000000325,-12.274637674964157696
0.492000000000000326,-12.219475648572917237
0.493000000000000327,-12.164452924180206850
0.494000000000000328,-12.109568897659382714
0.495000000000000329,-12.054822917885509526
0.496000000000000330,-12.000214290021245844
0.497000000000000330,-11.945742278716524609
0.498000000000000331,-11.891406111221728636
0.499000000000000332,-11.837204980414885114
0.500000000000000333,-11.783138047742822252
0.501000000000000334,-11.729204446076741064
0.502000000000000335,-11.675403282482649914
0.503000000000000336,-11.621733640907164542
0.504000000000000337,-11.568194584779188716
0.505000000000000338,-11.514785159528155845
0.506000000000000338,-11.461504395019632696
0.507000000000000339,-11.408351307908970895
0.508000000000000340,-11.355324903913851742
0.509000000000000341,-11.302424180006775956
0.510000000000000342,-11.249648126528196457
0.511000000000000343,-11.196995729221589144
0.512000000000000344,-11.144465971191214848
0.513000000000000345,-11.092057834783874526
0.514000000000000346,-11.039770303395744833
0.515000000000000346,-10.987602363205329681
0.516000000000000347,-10.935553004833815649
0.517000000000000348,-10.883621224934151073
0.518000000000000349,-10.831806027709786733
0.519000000000000350,-10.780106426364698180
0.520000000000000351,-10.728521444485700442
0.521000000000000352,-10.677050117358557912
0.522000000000000353,-10.625691493219061812
0.523000000000000353,-10.574444634440421709
0.524000000000000354,-10.523308618658482771
0.525000000000000355,-10.472282539835862991
0.526000000000000356,-10.421365509266539817
0.527000000000000357,-10.370556656522236239
0.528000000000000358,-10.319855130341853311
0.529000000000000359,-10.269260099465487457
0.530000000000000360,-10.218770753414226249
0.531000000000000361,-10.168386303217218369
0.532000000000000361,-10.118105982087302053
0.533000000000000362,-10.067929046046547370
0.534000000000000363,-10.017854774503124560
0.535000000000000364,-9.967882470780761395
0.536000000000000365,-9.918011462602146722
0.537000000000000366,-9.868241102527647968
0.538000000000000367,-9.818570768350550537
0.539000000000000368,-9.768999863450279264
0.540000000000000369,-9.719527817104678391
0.541000000000000369,-9.670154084762845770
0.542000000000000370,-9.620878148279603082
0.543000000000000371,-9.571699516112934347
0.544000000000000372,-9.522617723485637953
0.545000000000000373,-9.473632332512330834
0.546000000000000374,-9.424742932293074915
0.547000000000000375,-9.375949138974725372
0.548000000000000376,-9.327250595781283238
0.549000000000000377,-9.278646973014279098
0.550000000000000377,-9.230137968024360262
0.551000000000000378,-9.181723305155170323
0.552000000000000379,-9.133402735660681060
0.553000000000000380,-9.085176037596927046
0.554000000000000381,-9.037043015689230074
0.555000000000000382,-8.989003501176117794
0.556000000000000383,-8.941057351630533390
0.557000000000000384,-8.893204450759837343
0.558000000000000385,-8.845444708185141280
0.559000000000000385,-8.797778059201169398
0.560000000000000386,-8.750204464517489455
0.561000000000000387,-8.702723909982022832
0.562000000000000388,-8.655336406287718276
0.563000000000000389,-8.608041988663313049
0.564000000000000390,-8.560840716548918650
0.565000000000000391,-8.513732673257376149
0.566000000000000392,-8.466717965622086339
0.567000000000000393,-8.419796723632204660
0.568000000000000393,-8.372969100055858149
0.569000000000000394,-8.326235270052155357
0.570000000000000395,-8.279595430772891618
0.571000000000000396,-8.233049800954294284
0.572000000000000397,-8.186598620499884404
0.573000000000000398,-8.140242150054877612
0.574000000000000399,-8.093980670572845426
0.575000000000000400,-8.047814482875304876
0.576000000000000401,-8.001743907204744488
0.577000000000000401,-7.955769282771868234
0.578000000000000402,-7.909890967297388720
0.579000000000000403,-7.864109336549148566
0.580000000000000404,-7.818424783874998063
0.581000000000000405,-7.772837719731941597
0.582000000000000406,-7.727348571212171002
0.583000000000000407,-7.681957781566294052
0.584000000000000408,-7.636665809724446419
0.585000000000000409,-7.591473129815573984
0.586000000000000409,-7.546380230685386437
0.587000000000000410,-7.501387615413460885
0.588000000000000411,-7.456495800829793907
0.589000000000000412,-7.411705317031350937
0.590000000000000413,-7.367016706898780853
0.591000000000000414,-7.322430525613897956
0.592000000000000415,-7.277947340178141822
0.593000000000000416,-7.233567728932342789
0.594000000000000417,-7.189292281078168756
0.595000000000000417,-7.145121596201666314
0.596000000000000418,-7.101056283798852675
0.597000000000000419,-7.057096962804154217
0.598000000000000420,-7.013244261121424294
0.599000000000000421,-6.969498815158256200
0.600000000000000422,-6.925861269363521089
0.601000000000000423,-6.882332275768563434
0.602000000000000424,-6.838912493532170345
0.603000000000000425,-6.795602588489589202
0.604000000000000425,-6.752403232705754377
0.605000000000000426,-6.709315104032933519
0.606000000000000427,-6.666338885673070536
