# CNT15-COO--10_BSAIV12
# h[nm],U(h)[kJ/mol]
0.149999999999999994,128.902493821605418134
0.150999999999999995,127.429727470015066615
0.151999999999999996,125.192106285621633788
0.152999999999999997,122.804435391411089995
0.153999999999999998,120.507077653357058011
0.154999999999999999,118.354911110341930680
0.156000000000000000,116.323967952741355703
0.157000000000000001,114.367710975625328729
0.158000000000000002,112.443569924539062299
0.159000000000000002,110.522771961917669614
0.160000000000000003,108.591486255121594695
0.161000000000000004,106.648042086241318316
0.162000000000000005,104.698901805458874037
0.163000000000000006,102.754779523067810487
0.164000000000000007,100.827522818073120447
0.165000000000000008,98.927933909298360504
0.166000000000000009,97.064475056640432626
0.167000000000000010,95.242698510746123475
0.168000000000000010,93.465210741357637403
0.169000000000000011,91.731989935838583961
0.170000000000000012,90.040903816200639653
0.171000000000000013,88.388309166071877598
0.172000000000000014,86.769648105934976456
0.173000000000000015,85.179985608603743685
0.174000000000000016,83.614456633544108399
0.175000000000000017,82.068609433566621192
0.176000000000000018,80.538644560398040539
0.177000000000000018,79.021557672303487152
0.178000000000000019,77.515199313783114121
0.179000000000000020,76.018267240768111037
0.180000000000000021,74.530247349952020386
0.181000000000000022,73.051318458141651035
0.182000000000000023,71.582234560049769811
0.183000000000000024,70.124196147004369095
0.184000000000000025,68.678719969513934984
0.185000000000000026,67.247514464530553369
0.186000000000000026,65.832366067802922771
0.187000000000000027,64.435039865705704187
0.188000000000000028,63.057196543992191096
0.189000000000000029,61.700326370451783475
0.190000000000000030,60.365699993415056213
0.191000000000000031,59.054335125748977475
0.192000000000000032,57.766977685244697227
0.193000000000000033,56.504095645176640517
0.194000000000000034,55.265883681260881133
0.195000000000000034,54.052276652839864823
0.196000000000000035,52.862969999177245484
0.197000000000000036,51.697445241867129084
0.198000000000000037,50.554998940673854690
0.199000000000000038,49.434773635247765355
0.200000000000000039,48.335789505034455260
0.201000000000000040,47.256975683234493602
0.202000000000000041,46.197200359461753294
0.203000000000000042,45.155298993662881912
0.204000000000000042,44.130100136686962742
0.205000000000000043,43.120448508017794609
0.206000000000000044,42.125225117240049144
0.207000000000000045,41.143364332451966447
0.208000000000000046,40.173867896452463810
0.209000000000000047,39.215815971058759715
0.210000000000000048,38.268375352676351042
0.211000000000000049,37.330805049802506801
0.212000000000000050,36.402459447183879604
0.213000000000000050,35.482789303601734332
0.214000000000000051,34.571340842422387141
0.215000000000000052,33.667753197763168771
0.216000000000000053,32.771754475907492576
0.217000000000000054,31.883156682855780417
0.218000000000000055,31.001849755878549075
0.219000000000000056,30.127794920758230290
0.220000000000000057,29.261017578030941166
0.221000000000000058,28.401599901805575143
0.222000000000000058,27.549673314331592167
0.223000000000000059,26.705410978996646065
0.224000000000000060,25.869020434316098545
0.225000000000000061,25.040736472101368548
0.226000000000000062,24.220814344638732507
0.227000000000000063,23.409523368578586400
0.228000000000000064,22.607140977465469689
0.229000000000000065,21.813947260511501014
0.230000000000000066,21.030220012370737237
0.231000000000000066,20.256230307303109583
0.232000000000000067,19.492238601198653924
0.233000000000000068,18.738491356405614141
0.234000000000000069,17.995218177101790502
0.235000000000000070,17.262629436979494812
0.236000000000000071,16.540914376189043367
0.237000000000000072,15.830239640702874482
0.238000000000000073,15.130748234424453713
0.239000000000000073,14.442558852371721656
0.240000000000000074,13.765765562012997947
0.241000000000000075,13.100437799235191250
0.242000000000000076,12.446620645385138459
0.243000000000000077,11.804335352262199876
0.244000000000000078,11.173580082777304412
0.245000000000000079,10.554330836155759954
0.246000000000000080,9.946542527986228066
0.247000000000000081,9.350150197043474165
0.248000000000000081,8.765070312589624990
0.249000000000000082,8.191202157737917489
0.250000000000000111,7.628429266405016840
0.251000000000000112,7.076620893348133379
0.252000000000000113,6.535633498749025883
0.253000000000000114,6.005312230748041991
0.254000000000000115,5.485492391219496611
0.255000000000000115,4.976000871904906475
0.256000000000000116,4.476657549763855215
0.257000000000000117,3.987276632055885894
0.258000000000000118,3.507667943222925633
0.259000000000000119,3.037638147093324470
0.260000000000000120,2.576991899274049924
0.261000000000000121,2.125532925835796672
0.262000000000000122,1.683065025524850045
0.263000000000000123,1.249392993759960380
0.264000000000000123,0.824323467591857595
0.265000000000000124,0.407665691623168069
0.266000000000000125,-0.000767794389932264
0.267000000000000126,-0.401160544900389104
0.268000000000000127,-0.793691672997915654
0.269000000000000128,-1.178535387536363555
0.270000000000000129,-1.555860600206411926
0.271000000000000130,-1.925830599479573024
0.272000000000000131,-2.288602788093565543
0.273000000000000131,-2.644328480552988303
0.274000000000000132,-2.993152756975541173
0.275000000000000133,-3.335214369519402311
0.276000000000000134,-3.670645697575579014
0.277000000000000135,-3.999572747895079772
0.278000000000000136,-4.322115195842090252
0.279000000000000137,-4.638386464014007338
0.280000000000000138,-4.948493834544732906
0.281000000000000139,-5.252538591505830468
0.282000000000000139,-5.550616189935640321
0.283000000000000140,-5.842816448158212772
0.284000000000000141,-6.129223760197301196
0.285000000000000142,-6.409917325244211206
0.286000000000000143,-6.684971391298956789
0.287000000000000144,-6.954455510269683671
0.288000000000000145,-7.218434801984962235
0.289000000000000146,-7.476970224743001658
0.290000000000000147,-7.730118850193218982
0.291000000000000147,-7.977934140513720074
0.292000000000000148,-8.220466226015499700
0.293000000000000149,-8.457762181466133455
0.294000000000000150,-8.689866299585130349
0.295000000000000151,-8.916820360315856675
0.296000000000000152,-9.138663894627111262
0.297000000000000153,-9.355434441738758267
0.298000000000000154,-9.567167798801150980
0.299000000000000155,-9.773898262186403230
0.300000000000000155,-9.975658859670915035
0.301000000000000156,-10.172481572903004476
0.302000000000000157,-10.364397549656919395
0.303000000000000158,-10.551437305474586026
0.304000000000000159,-10.733630914389795663
0.305000000000000160,-10.911008188515808115
0.306000000000000161,-11.083598846357073597
0.307000000000000162,-11.251432669778779427
0.308000000000000163,-11.414539649634642515
0.309000000000000163,-11.572950120113778993
0.310000000000000164,-11.726694881922579583
0.311000000000000165,-11.875805314466017393
0.312000000000000166,-12.020313477237069222
0.313000000000000167,-12.160252200661108901
0.314000000000000168,-12.295655166676148440
0.315000000000000169,-12.426556979358974075
0.316000000000000170,-12.552993225932354449
0.317000000000000171,-12.675000528509315245
0.318000000000000171,-12.792616586947859858
0.319000000000000172,-12.905880213203564821
0.320000000000000173,-13.014831357577772764
0.321000000000000174,-13.119511127267108108
0.322000000000000175,-13.219961797624904420
0.323000000000000176,-13.316226816547796830
0.324000000000000177,-13.408350802400965662
0.325000000000000178,-13.496379535893547441
0.326000000000000179,-13.580359946312720254
0.327000000000000179,-13.660340092519097865
0.328000000000000180,-13.736369139099746661
0.329000000000000181,-13.808497328067227627
0.330000000000000182,-13.876775946483515867
0.331000000000000183,-13.941257290378214151
0.332000000000000184,-14.001994625318880949
0.333000000000000185,-14.059042143980098771
0.334000000000000186,-14.112454921045531009
0.335000000000000187,-14.162288865764409707
0.336000000000000187,-14.208600672471158433
0.337000000000000188,-14.251447769362874496
0.338000000000000189,-14.290888265816601432
0.339000000000000190,-14.326980898514175777
0.340000000000000191,-14.359784976628716890
0.341000000000000192,-14.389360326313592964
0.342000000000000193,-14.415767234720586742
0.343000000000000194,-14.439066393761105900
0.344000000000000195,-14.459318843810303079
0.345000000000000195,-14.476585917541978432
0.346000000000000196,-14.490929184068221502
0.347000000000000197,-14.502410393546274037
0.348000000000000198,-14.511091422402454754
0.349000000000000199,-14.517034219311209853
0.350000000000000200,-14.520300752056243709
0.351000000000000201,-14.520952955389395456
0.352000000000000202,-14.519052679992238808
0.353000000000000203,-14.514661642635541483
0.354000000000000203,-14.507841377621494061
0.355000000000000204,-14.498653189584370438
0.356000000000000205,-14.487158107716382460
0.357000000000000206,-14.473416841477021677
0.358000000000000207,-14.457489737835583554
0.359000000000000208,-14.439436740089476530
0.360000000000000209,-14.419317348293237302
0.361000000000000210,-14.397190581326299252
0.362000000000000210,-14.373114940621139368
0.363000000000000211,-14.347148375567325473
0.364000000000000212,-14.319348250601219519
0.365000000000000213,-14.289771313985681900
0.366000000000000214,-14.258473668279233237
0.367000000000000215,-14.225510742489399618
0.368000000000000216,-14.190937265900705810
0.369000000000000217,-14.154807243563748642
0.370000000000000218,-14.117173933428196264
0.371000000000000218,-14.078089825099088017
0.372000000000000219,-14.037606620192779161
0.373000000000000220,-13.995775214266263475
0.374000000000000221,-13.952645680290711283
0.375000000000000222,-13.908267253638038952
0.376000000000000223,-13.862688318547407462
0.377000000000000224,-13.815956396036412457
0.378000000000000225,-13.768118133220420773
0.379000000000000226,-13.719219294001996801
0.380000000000000226,-13.669304751091370775
0.381000000000000227,-13.618418479317540459
0.382000000000000228,-13.566603550189295646
0.383000000000000229,-13.513902127664337627
0.384000000000000230,-13.460355465084370863
0.385000000000000231,-13.406003903233827401
0.386000000000000232,-13.350886869479305474
0.387000000000000233,-13.295042877947121696
0.388000000000000234,-13.238509530695974803
0.389000000000000234,-13.181323519842303327
0.390000000000000235,-13.123520630595706393
0.391000000000000236,-13.065135745162473668
0.392000000000000237,-13.006202847475375250
0.393000000000000238,-12.946755028708718527
0.394000000000000239,-12.886824493537677228
0.395000000000000240,-12.826442567102171566
0.396000000000000241,-12.765639702635720454
0.397000000000000242,-12.704445489720640694
0.398000000000000242,-12.642888663131762073
0.399000000000000243,-12.580997112231514734
0.400000000000000244,-12.518797890880208001
0.401000000000000245,-12.456317227826152916
0.402000000000000246,-12.393580537541126319
0.403000000000000247,-12.330612431467681489
0.404000000000000248,-12.267436729645760707
0.405000000000000249,-12.204076472686953281
0.406000000000000250,-12.140553934065742681
0.407000000000000250,-12.076890632698097150
0.408000000000000251,-12.013107345778703205
0.409000000000000252,-11.949224121849153946
0.410000000000000253,-11.885260294070345566
0.411000000000000254,-11.821234493673406618
0.412000000000000255,-11.757164663564310558
0.413000000000000256,-11.693068072058540707
0.414000000000000257,-11.628961326722791370
0.415000000000000258,-11.564860388302026450
0.416000000000000258,-11.500780584710851073
0.417000000000000259,-11.436736625069219286
0.418000000000000260,-11.372742613763445974
0.419000000000000261,-11.308812064514258466
0.420000000000000262,-11.244957914434627000
0.421000000000000263,-11.181192538060965802
0.422000000000000264,-11.117527761341973402
0.423000000000000265,-11.053974875570499847
0.424000000000000266,-10.990544651244395169
0.425000000000000266,-10.927247351843142553
0.426000000000000267,-10.864092747507919867
0.427000000000000268,-10.801090128613394015
0.428000000000000269,-10.738248319220268456
0.429000000000000270,-10.675575690398465767
0.430000000000000271,-10.613080173411228557
0.431000000000000272,-10.550769272751388428
0.432000000000000273,-10.488650079021446970
0.433000000000000274,-10.426729281649912195
0.434000000000000274,-10.365013181436779632
0.435000000000000275,-10.303507702921738343
0.436000000000000276,-10.242218406569225664
0.437000000000000277,-10.181150500764855948
0.438000000000000278,-10.120308853618469769
0.439000000000000279,-10.059698004569408880
0.440000000000000280,-9.999322175790112510
0.441000000000000281,-9.939185283384539105
0.442000000000000282,-9.879290948378621096
0.443000000000000282,-9.819642507499898088
0.444000000000000283,-9.760243023744358482
0.445000000000000284,-9.701095296728578177
0.446000000000000285,-9.642201872825697961
0.447000000000000286,-9.583565055084301676
0.448000000000000287,-9.525186912929150651
0.449000000000000288,-9.467069291643634088
0.450000000000000289,-9.409213821633501951
0.451000000000000290,-9.351621927472150375
0.452000000000000290,-9.294294836727853948
0.453000000000000291,-9.237233588573444010
0.454000000000000292,-9.180439042179482811
0.455000000000000293,-9.123911884891864332
0.456000000000000294,-9.067652640195237979
0.457000000000000295,-9.011661675463788157
0.458000000000000296,-8.955939209500877851
0.459000000000000297,-8.900485319869627432
0.460000000000000298,-8.845299950016272561
0.461000000000000298,-8.790382916188587359
0.462000000000000299,-8.735733914151554202
0.463000000000000300,-8.681352525702774159
0.464000000000000301,-8.627238224990190218
0.465000000000000302,-8.573390384634699046
0.466000000000000303,-8.519808281660441907
0.467000000000000304,-8.466491103235599169
0.468000000000000305,-8.413437952226662020
0.469000000000000306,-8.360647852569048410
0.470000000000000306,-8.308119754457305106
0.471000000000000307,-8.255852539357798392
0.472000000000000308,-8.203845024847272072
0.473000000000000309,-8.152095969280306775
0.474000000000000310,-8.100604076289046773
0.475000000000000311,-8.049367999118377526
0.476000000000000312,-7.998386344800000991
0.477000000000000313,-7.947657678168558171
0.478000000000000314,-7.897180525723226374
0.479000000000000314,-7.846953379338228451
0.480000000000000315,-7.796974699825364397
0.481000000000000316,-7.747242920352237938
0.482000000000000317,-7.697756449719217464
0.483000000000000318,-7.648513675498709752
0.484000000000000319,-7.599512967039936839
0.485000000000000320,-7.550752678342627533
0.486000000000000321,-7.502231150802826321
0.487000000000000322,-7.453946715834215198
0.488000000000000322,-7.405897697368020616
0.489000000000000323,-7.358082414234989876
0.490000000000000324,-7.310499182432384835
0.491000000000000325,-7.263146317279317365
0.492000000000000326,-7.216022135463451725
0.493000000000000327,-7.169124956982275698
0.494000000000000328,-7.122453106981927462
0.495000000000000329,-7.076004917496605984
0.496000000000000330,-7.029778729091535006
0.497000000000000330,-6.983772892412510203
0.498000000000000331,-6.937985769644709144
0.499000000000000332,-6.892415735883892225
0.500000000000000333,-6.847061180422580939
0.501000000000000334,-6.801920507954005934
0.502000000000000335,-6.756992139696635036
0.503000000000000336,-6.712274514441844531
0.504000000000000337,-6.667766089527381368
0.505000000000000338,-6.623465341739136036
0.506000000000000338,-6.579370768143848913
0.507000000000000339,-6.535480886855064675
0.508000000000000340,-6.491794237734834105
0.509000000000000341,-6.448309383033586251
0.510000000000000342,-6.405024907970312320
0.511000000000000343,-6.361939421255506488
0.512000000000000344,-6.319051555558919731
0.513000000000000345,-6.276359967924405758
0.514000000000000346,-6.233863340133939168
0.515000000000000346,-6.191560379022811311
0.516000000000000347,-6.149449816748057351
0.517000000000000348,-6.107530411012165317
0.518000000000000349,-6.065800945243760012
0.519000000000000350,-6.024260228737377432
0.520000000000000351,-5.982907096753957710
0.521000000000000352,-5.941740410583962628
0.522000000000000353,-5.900759057574729738
0.523000000000000353,-5.859961951123771939
0.524000000000000354,-5.819348030639760694
0.525000000000000355,-5.778916261472568650
0.526000000000000356,-5.738665634814083205
0.527000000000000357,-5.698595167571263609
0.528000000000000358,-5.658703902212751657
0.529000000000000359,-5.618990906590676460
0.530000000000000360,-5.579455273738790133
0.531000000000000361,-5.540096121648420358
0.532000000000000361,-5.500912593023436159
0.533000000000000362,-5.461903855015507681
0.534000000000000363,-5.423069098940844768
0.535000000000000364,-5.384407539979598312
0.536000000000000365,-5.345918416859014144
0.537000000000000366,-5.307600991521498557
0.538000000000000367,-5.269454548778504943
0.539000000000000368,-5.231478395951500993
0.540000000000000369,-5.193671862500680803
0.541000000000000369,-5.156034299642689334
0.542000000000000370,-5.118565079958010244
0.543000000000000371,-5.081263596989051834
0.544000000000000372,-5.044129264829729564
0.545000000000000373,-5.007161517707373832
0.546000000000000374,-4.970359809557692188
0.547000000000000375,-4.933723613593619994
0.548000000000000376,-4.897252421868762085
0.549000000000000377,-4.860945744836088878
0.550000000000000377,-4.824803110902570857
0.551000000000000378,-4.788824065980409550
0.552000000000000379,-4.753008173035484063
0.553000000000000380,-4.717355011633562967
0.554000000000000381,-4.681864177484861500
0.555000000000000382,-4.646535281987558719
0.556000000000000383,-4.611367951770607654
0.557000000000000384,-4.576361828236574780
0.558000000000000385,-4.541516567104734392
0.559000000000000385,-4.506831837955061815
0.560000000000000386,-4.472307323773430099
0.561000000000000387,-4.437942720498464055
0.562000000000000388,-4.403737736570435324
0.563000000000000389,-4.369692092482539536
0.564000000000000390,-4.335805520334949925
0.565000000000000391,-4.302077763391920051
0.566000000000000392,-4.268508575642277592
0.567000000000000393,-4.235097721363617396
0.568000000000000393,-4.201844974690442491
0.569000000000000394,-4.168750119186479530
0.570000000000000395,-4.135812947421557695
0.571000000000000396,-4.103033260553052841
0.572000000000000397,-4.070410867912364949
0.573000000000000398,-4.037945586596398684
0.574000000000000399,-4.005637241064426313
0.575000000000000400,-3.973485662740356528
0.576000000000000401,-3.941490689620656074
0.577000000000000401,-3.909652165888100050
0.578000000000000402,-3.877969941531368647
0.579000000000000403,-3.846443871970709694
0.580000000000000404,-3.815073817689821567
0.581000000000000405,-3.783859643873907608
0.582000000000000406,-3.752801220054170273
0.583000000000000407,-3.721898419758686849
0.584000000000000408,-3.691151120169855027
0.585000000000000409,-3.660559201788389228
0.586000000000000409,-3.630122548103964952
0.587000000000000410,-3.599841045272575535
0.588000000000000411,-3.569714581800583098
0.589000000000000412,-3.539743048235582279
0.590000000000000413,-3.509926336864008789
0.591000000000000414,-3.480264341415573170
0.592000000000000415,-3.450756956774555739
0.593000000000000416,-3.421404078697857898
0.594000000000000417,-3.392205603539912406
0.595000000000000417,-3.363161427984485918
0.596000000000000418,-3.334271448783125980
0.597000000000000419,-3.305535562500591773
0.598000000000000420,-3.276953665266893800
0.599000000000000421,-3.248525652536184971
0.600000000000000422,-3.220251418852295267
0.601000000000000423,-3.192130857620980589
0.602000000000000424,-3.164163860888786317
0.603000000000000425,-3.136350319128506037
0.604000000000000425,-3.108690121031184361
0.605000000000000426,-3.081183153304594136
0.606000000000000427,-3.053829300478217323
0.607000000000000428,-3.026628444714460020
0.608000000000000429,-2.999580465626383141
0.609000000000000430,-2.972685240101488713
