# CNT15-COO--10_LEU-AC
# h[nm],U(h)[kJ/mol]
0.149999999999999994,156.236377291751125540
0.150999999999999995,153.656218006723463532
0.151999999999999996,151.314067136683547687
0.152999999999999997,149.043979078323161502
0.153999999999999998,146.786419792521598993
0.154999999999999999,144.530519718831641285
0.156000000000000000,142.283536732304071393
0.157000000000000001,140.056092045811453772
0.158000000000000002,137.856130647875176010
0.159000000000000002,135.687379990425995402
0.160000000000000003,133.549864273368029899
0.161000000000000004,131.441134746619809448
0.162000000000000005,129.357539664100784194
0.163000000000000006,127.295241244174960116
0.164000000000000007,125.250896890562259500
0.165000000000000008,123.222026719963835717
0.166000000000000009,121.207133082462632956
0.167000000000000010,119.205647789551420601
0.168000000000000010,117.217775978319849628
0.169000000000000011,115.244291807667195826
0.170000000000000012,113.286325992567029175
0.171000000000000013,111.345171324984363537
0.172000000000000014,109.422120987263994607
0.173000000000000015,107.518345907981782261
0.174000000000000016,105.634811438968881703
0.175000000000000017,103.772229831502585284
0.176000000000000018,101.931042886094019195
0.177000000000000018,100.111428293053180028
0.178000000000000019,98.313323180666913004
0.179000000000000020,96.536458929716317812
0.180000000000000021,94.780402156440601402
0.181000000000000022,93.044597735985078657
0.182000000000000023,91.328410714831221640
0.183000000000000024,89.631164867149820452
0.184000000000000025,87.952176442888116981
0.185000000000000026,86.290782315042861228
0.186000000000000026,84.646362256843644900
0.187000000000000027,83.018355474019770668
0.188000000000000028,81.406271796793390649
0.189000000000000029,79.809698117667863926
0.190000000000000030,78.228300762260658985
0.191000000000000031,76.661824518551242136
0.192000000000000032,75.110089040655182657
0.193000000000000033,73.572983300265974549
0.194000000000000034,72.050458693742584160
0.195000000000000034,70.542521334793278243
0.196000000000000035,69.049223979146844954
0.197000000000000036,67.570657944028511110
0.198000000000000037,66.106945305637538013
0.199000000000000038,64.658231584828541827
0.200000000000000039,63.224679066448722153
0.201000000000000040,61.806460842073519757
0.202000000000000041,60.403755619378692643
0.203000000000000042,59.016743303804140908
0.204000000000000042,57.645601328891345361
0.205000000000000043,56.290501689915515726
0.206000000000000044,54.951608620261048088
0.207000000000000045,53.629076840457443609
0.208000000000000046,52.323050304951244982
0.209000000000000047,51.033661370642825261
0.210000000000000048,49.761030313138789438
0.211000000000000049,48.505265120821505320
0.212000000000000050,47.266461502566656350
0.213000000000000050,46.044703051702562391
0.214000000000000051,44.840061516130433006
0.215000000000000052,43.652597132046864203
0.216000000000000053,42.482358986126158129
0.217000000000000054,41.329385378108398186
0.218000000000000055,40.193704162331307828
0.219000000000000056,39.075333052732503347
0.220000000000000057,37.974279881157094962
0.221000000000000058,36.890542803414831496
0.222000000000000058,35.824110451420693835
0.223000000000000059,34.774962032960395675
0.224000000000000060,33.743067383169069728
0.225000000000000061,32.728386973755405620
0.226000000000000062,31.730871887395657893
0.227000000000000063,30.750463765625550394
0.228000000000000064,29.787094739036113822
0.229000000000000065,28.840687348691211866
0.230000000000000066,27.911154467495425280
0.231000000000000066,26.998399229802760857
0.232000000000000067,26.102314976927022627
0.233000000000000068,25.222785225438382639
0.234000000000000069,24.359683664252948176
0.235000000000000070,23.512874185580692199
0.236000000000000071,22.682210953825141075
0.237000000000000072,21.867538515551643741
0.238000000000000073,21.068691952687252922
0.239000000000000073,20.285497080200407538
0.240000000000000074,19.517770688646031374
0.241000000000000075,18.765320831168530447
0.242000000000000076,18.027947153833178362
0.243000000000000077,17.305441267514833470
0.244000000000000078,16.597587159013208691
0.245000000000000079,15.904161638587126504
0.246000000000000080,15.224934820705973593
0.247000000000000081,14.559670634499990882
0.248000000000000081,13.908127360152715113
0.249000000000000082,13.270058187310732833
0.250000000000000111,12.645211791484253894
0.251000000000000112,12.033332924372228234
0.252000000000000113,11.434163014058654539
0.253000000000000114,10.847440771092800915
0.254000000000000115,10.272902796570523520
0.255000000000000115,9.710284188479601397
0.256000000000000116,9.159319142746706888
0.257000000000000117,8.619741545625510426
0.258000000000000118,8.091285554288768722
0.259000000000000119,7.573686162725562276
0.260000000000000120,7.066679750295604023
0.261000000000000121,6.570004610551329449
0.262000000000000122,6.083401458200134115
0.263000000000000123,5.606613912342949924
0.264000000000000123,5.139388954385414543
0.265000000000000124,4.681477359274500927
0.266000000000000125,4.232634098962196667
0.267000000000000126,3.792618717238467330
0.268000000000000127,3.361195675304915031
0.269000000000000128,2.938134667679552781
0.270000000000000129,2.523210908228378013
0.271000000000000130,2.116205386311316161
0.272000000000000131,1.716905093209123878
0.273000000000000131,1.325103219161325896
0.274000000000000132,0.940599321495621199
0.275000000000000133,0.563199464464244626
0.276000000000000134,0.192716331524035084
0.277000000000000135,-0.171030689094873900
0.278000000000000136,-0.528215444593903571
0.279000000000000137,-0.879004982565136261
0.280000000000000138,-1.223559539616780212
0.281000000000000139,-1.562032552521335216
0.282000000000000139,-1.894570690696848247
0.283000000000000140,-2.221313908797621028
0.284000000000000141,-2.542395518165738277
0.285000000000000142,-2.857942275879556071
0.286000000000000143,-3.168074490128387488
0.287000000000000144,-3.472906140643267747
0.288000000000000145,-3.772545012922514651
0.289000000000000146,-4.067092845004229851
0.290000000000000147,-4.356645485559397457
0.291000000000000147,-4.641293062103821754
0.292000000000000148,-4.921120158158045932
0.293000000000000149,-5.196205998217690691
0.294000000000000150,-5.466624639434753519
0.295000000000000151,-5.732445168950524916
0.296000000000000152,-5.993731905863661780
0.297000000000000153,-6.250544606861582864
0.298000000000000154,-6.502938674589918477
0.299000000000000155,-6.750965367881853751
0.300000000000000155,-6.994672013017610546
0.301000000000000156,-7.234102215232527833
0.302000000000000157,-7.469296069741564459
0.303000000000000158,-7.700290371595788663
0.304000000000000159,-7.927118823735229469
0.305000000000000160,-8.149812242649563387
0.306000000000000161,-8.368398761104913319
0.307000000000000162,-8.582904027440857675
0.308000000000000163,-8.793351400985967459
0.309000000000000163,-8.999762143183620111
0.310000000000000164,-9.202155604061740490
0.311000000000000165,-9.400549403720205532
0.312000000000000166,-9.594959608548794705
0.313000000000000167,-9.785400901925404682
0.314000000000000168,-9.971886749179944331
0.315000000000000169,-10.154429556643041366
0.316000000000000170,-10.333040824630955967
0.317000000000000171,-10.507731294248152665
0.318000000000000171,-10.678511087917783584
0.319000000000000172,-10.845389843577514455
0.320000000000000173,-11.008376842502816118
0.321000000000000174,-11.167481130743871276
0.322000000000000175,-11.322711634183947993
0.323000000000000176,-11.474077267247478673
0.324000000000000177,-11.621587035304935753
0.325000000000000178,-11.765250130838477816
0.326000000000000179,-11.905076023448847522
0.327000000000000179,-12.041074543797495977
0.328000000000000180,-12.173255961591612717
0.329000000000000181,-12.301631057731228225
0.330000000000000182,-12.426211190747734392
0.331000000000000183,-12.547008357673060885
0.332000000000000184,-12.664035249486229162
0.333000000000000185,-12.777305301291482564
0.334000000000000186,-12.886832737388095538
0.335000000000000187,-12.992632611397031184
0.336000000000000187,-13.094720841613959550
0.337000000000000188,-13.193114241761069394
0.338000000000000189,-13.287830547313131291
0.339000000000000190,-13.378888437574843806
0.340000000000000191,-13.466307553687283161
0.341000000000000192,-13.550108512742355060
0.342000000000000193,-13.630312918183363990
0.343000000000000194,-13.706943366669758433
0.344000000000000195,-13.780023451581985938
0.345000000000000195,-13.849577763342036718
0.346000000000000196,-13.915631886721808286
0.347000000000000197,-13.978212395309990157
0.348000000000000198,-14.037346843304803201
0.349000000000000199,-14.093063754797011455
0.350000000000000200,-14.145392610704297098
0.351000000000000201,-14.194363833514298534
0.352000000000000202,-14.240008769989845661
0.353000000000000203,-14.282359671985995320
0.354000000000000203,-14.321449675524263512
0.355000000000000204,-14.357312778264894604
0.356000000000000205,-14.389983815513932797
0.357000000000000206,-14.419498434897425554
0.358000000000000207,-14.445893069829855548
0.359000000000000208,-14.469204911900202859
0.360000000000000209,-14.489471882293788241
0.361000000000000210,-14.506732602363516804
0.362000000000000210,-14.521026363459650810
0.363000000000000211,-14.532393096122437015
0.364000000000000212,-14.540873338737458909
0.365000000000000213,-14.546508205748901688
0.366000000000000214,-14.549339355521482275
0.367000000000000215,-14.549408957937282949
0.368000000000000216,-14.546759661809559816
0.369000000000000217,-14.541434562190906021
0.370000000000000218,-14.533477167649431649
0.371000000000000218,-14.522931367581966455
0.372000000000000219,-14.509841399629706871
0.373000000000000220,-14.494251817257628900
0.374000000000000221,-14.476207457555034352
0.375000000000000222,-14.455753409311000723
0.376000000000000223,-14.432934981415019848
0.377000000000000224,-14.407797671629349878
0.378000000000000225,-14.380387135776317109
0.379000000000000226,-14.350749157380553456
0.380000000000000226,-14.318929617803187071
0.381000000000000227,-14.284974466901303458
0.382000000000000228,-14.248929694243997801
0.383000000000000229,-14.210841300912690599
0.384000000000000230,-14.170755271911099626
0.385000000000000231,-14.128717549207660653
0.386000000000000232,-14.084774005430451993
0.387000000000000233,-14.038970418232665338
0.388000000000000234,-13.991352445343917310
0.389000000000000234,-13.941965600321177376
0.390000000000000235,-13.890855229010307781
0.391000000000000236,-13.838066486727919724
0.392000000000000237,-13.783644316170835964
0.393000000000000238,-13.727633426059194122
0.394000000000000239,-13.670078270517047159
0.395000000000000240,-13.611023029193242806
0.396000000000000241,-13.550511588123566042
0.397000000000000242,-13.488587521333723629
0.398000000000000242,-13.425294073181717636
0.399000000000000243,-13.360674141436613027
0.400000000000000244,-13.294770261089675856
0.401000000000000245,-13.227624588892956226
0.402000000000000246,-13.159278888619050818
0.403000000000000247,-13.089774517035078105
0.404000000000000248,-13.019152410583092916
0.405000000000000249,-12.947453072758204229
0.406000000000000250,-12.874716562174963741
0.407000000000000250,-12.800982481312050965
0.408000000000000251,-12.726289965924518555
0.409000000000000252,-12.650677675112413922
0.410000000000000253,-12.574183782034008772
0.411000000000000254,-12.496845965251482724
0.412000000000000255,-12.418701400696440018
0.413000000000000256,-12.339786754242414446
0.414000000000000257,-12.260138174870911953
0.415000000000000258,-12.179791288417714412
0.416000000000000258,-12.098781191885482400
0.417000000000000259,-12.017142448308808511
0.418000000000000260,-11.934909082157581395
0.419000000000000261,-11.852114575264412366
0.420000000000000262,-11.768791863261835573
0.421000000000000263,-11.684973332514850597
0.422000000000000264,-11.600690817534383470
0.423000000000000265,-11.515975598857204787
0.424000000000000266,-11.430858401377992806
0.425000000000000266,-11.345369393118982515
0.426000000000000267,-11.259538184423053764
0.427000000000000268,-11.173393827555853974
0.428000000000000269,-11.086964816702920444
0.429000000000000270,-11.000279088347811651
0.430000000000000271,-10.913364022017137955
0.431000000000000272,-10.826246441379053564
0.432000000000000273,-10.738952615681323977
0.433000000000000274,-10.651508261515841625
0.434000000000000274,-10.563938544896055660
0.435000000000000275,-10.476268083634582950
0.436000000000000276,-10.388520950008024002
0.437000000000000277,-10.300720673696321938
0.438000000000000278,-10.212890244984393462
0.439000000000000279,-10.125052118213890395
0.440000000000000280,-10.037228215472961068
0.441000000000000281,-9.949439930512573582
0.442000000000000282,-9.861708132877851085
0.443000000000000282,-9.774053172243126753
0.444000000000000283,-9.686494882939992834
0.445000000000000284,-9.599052588667486674
0.446000000000000285,-9.511745107373917207
0.447000000000000286,-9.424590756300515793
0.448000000000000287,-9.337607357176448630
0.449000000000000288,-9.250812241556070958
0.450000000000000289,-9.164222256288599766
0.451000000000000290,-9.077853769111296600
0.452000000000000290,-8.991722674357266243
0.453000000000000291,-8.905844398769056980
0.454000000000000292,-8.820233907409953389
0.455000000000000293,-8.734905709664591456
0.456000000000000294,-8.649873865321172417
0.457000000000000295,-8.565151990727667197
0.458000000000000296,-8.480753265014437048
0.459000000000000297,-8.396690436376463396
0.460000000000000298,-8.312975828407914491
0.461000000000000298,-8.229621346482733912
0.462000000000000299,-8.146638484174605566
0.463000000000000300,-8.064038329710150776
0.464000000000000301,-7.981831572449432421
0.465000000000000302,-7.900028509388052456
0.466000000000000303,-7.818639051675125629
0.467000000000000304,-7.737672731142069438
0.468000000000000305,-7.657138706836922104
0.469000000000000306,-7.577045771559349774
0.470000000000000306,-7.497402358391733301
0.471000000000000307,-7.418216547221618384
0.472000000000000308,-7.339496071251519815
0.473000000000000309,-7.261248323491678036
0.474000000000000310,-7.183480363232066956
0.475000000000000311,-7.106198922489689096
0.476000000000000312,-7.029410412427878896
0.477000000000000313,-6.953120929743856315
0.478000000000000314,-6.877336263021533114
0.479000000000000314,-6.802061899046504045
0.480000000000000315,-6.727303029080124119
0.481000000000000316,-6.653064555090144161
0.482000000000000317,-6.579351095935081162
0.483000000000000318,-6.506166993500038132
0.484000000000000319,-6.433516318781494547
0.485000000000000320,-6.361402877919031695
0.486000000000000321,-6.289830218171808873
0.487000000000000322,-6.218801633837964360
0.488000000000000322,-6.148320172115001370
0.489000000000000323,-6.078388638899734353
0.490000000000000324,-6.009009604525941128
0.491000000000000325,-5.940185409438508479
0.492000000000000326,-5.871918169802528453
0.493000000000000327,-5.804209783046331950
0.494000000000000328,-5.737061933337143316
0.495000000000000329,-5.670476096988442904
0.496000000000000330,-5.604453547798001978
0.497000000000000330,-5.538995362315883852
0.498000000000000331,-5.474102425041447617
0.499000000000000332,-5.409775433548948520
0.500000000000000333,-5.346014903540928564
0.501000000000000334,-5.282821173828923911
0.502000000000000335,-5.220194411241159571
0.503000000000000336,-5.158134615456794414
0.504000000000000337,-5.096641623766372753
0.505000000000000338,-5.035715115758377713
0.506000000000000338,-4.975354617931622592
0.507000000000000339,-4.915559508233419805
0.508000000000000340,-4.856329020523449280
0.509000000000000341,-4.797662248963456832
0.510000000000000342,-4.739558152332665308
0.511000000000000343,-4.682015558269172928
0.512000000000000344,-4.625033167437406334
0.513000000000000345,-4.568609557621888584
0.514000000000000346,-4.512743187747616957
0.515000000000000346,-4.457432401827222890
0.516000000000000347,-4.402675432835364333
0.517000000000000348,-4.348470406510753783
0.518000000000000349,-4.294815345086040459
0.519000000000000350,-4.241708170946262513
0.520000000000000351,-4.189146710216101077
0.521000000000000352,-4.137128696276636930
0.522000000000000353,-4.085651773212012117
0.523000000000000353,-4.034713499186586283
0.524000000000000354,-3.984311349753279163
0.525000000000000355,-3.934442721093538431
0.526000000000000356,-3.885104933189693632
0.527000000000000357,-3.836295232930363230
0.528000000000000358,-3.788010797149401920
0.529000000000000359,-3.740248735599381202
0.530000000000000360,-3.693006093859994898
0.531000000000000361,-3.646279856182359058
0.532000000000000361,-3.600066948269768918
0.533000000000000362,-3.554364239995798869
0.534000000000000363,-3.509168548060384474
0.535000000000000364,-3.464476638584738311
0.536000000000000365,-3.420285229645844360
0.537000000000000366,-3.376590993751358294
0.538000000000000367,-3.333390560255584667
0.539000000000000368,-3.290680517717576858
0.540000000000000369,-3.248457416201849135
0.541000000000000369,-3.206717769522826167
0.542000000000000370,-3.165458057433602423
0.543000000000000371,-3.124674727759962689
0.544000000000000372,-3.084364198480457731
0.545000000000000373,-3.044522859753359345
0.546000000000000374,-3.005147075891265285
0.547000000000000375,-2.966233187284262662
0.548000000000000376,-2.927777512272442539
0.549000000000000377,-2.889776348968573494
0.550000000000000377,-2.852225977031733972
0.551000000000000378,-2.815122659392796489
0.552000000000000379,-2.778462643932528842
0.553000000000000380,-2.742242165113129904
0.554000000000000381,-2.706457445563997144
0.555000000000000382,-2.671104697622632251
0.556000000000000383,-2.636180124831287053
0.557000000000000384,-2.601679923390405769
0.558000000000000385,-2.567600283569406283
0.559000000000000385,-2.533937391075778756
0.560000000000000386,-2.500687428383180588
0.561000000000000387,-2.467846576019335991
0.562000000000000388,-2.435411013814502645
0.563000000000000389,-2.403376922111279068
0.564000000000000390,-2.371740482936504968
0.565000000000000391,-2.340497881135992664
0.566000000000000392,-2.309645305472833421
0.567000000000000393,-2.279178949690068734
0.568000000000000393,-2.249095013538341181
0.569000000000000394,-2.219389703769335309
0.570000000000000395,-2.190059235095732859
0.571000000000000396,-2.161099831118261427
0.572000000000000397,-2.132507725220720296
0.573000000000000398,-2.104279161433461276
0.574000000000000399,-2.076410395266212738
0.575000000000000400,-2.048897694510715350
0.576000000000000401,-2.021737340013978201
0.577000000000000401,-1.994925626422776377
0.578000000000000402,-1.968458862899966633
0.579000000000000403,-1.942333373813298181
0.580000000000000404,-1.916545499397418695
0.581000000000000405,-1.891091596389542051
0.582000000000000406,-1.865968038639515880
0.583000000000000407,-1.841171217694815621
0.584000000000000408,-1.816697543361085909
0.585000000000000409,-1.792543444238804629
0.586000000000000409,-1.768705368236617614
0.587000000000000410,-1.745179783061973966
0.588000000000000411,-1.721963176689504493
0.589000000000000412,-1.699052057807831861
0.590000000000000413,-1.676442956245192351
0.591000000000000414,-1.654132423374529592
0.592000000000000415,-1.632117032498519027
0.593000000000000416,-1.610393379215000254
0.594000000000000417,-1.588958081763378827
0.595000000000000417,-1.567807781352521967
0.596000000000000418,-1.546939142470438400
0.597000000000000419,-1.526348853176523690
0.598000000000000420,-1.506033625376520302
0.599000000000000421,-1.485990195080906018
0.600000000000000422,-1.466215322646983621
0.601000000000000423,-1.446705793005220952
0.602000000000000424,-1.427458415870224595
0.603000000000000425,-1.408470025936775061
0.604000000000000425,-1.389737483061359580
0.605000000000000426,-1.371257672429577079
0.606000000000000427,-1.353027504709908735
0.607000000000000428,-1.335043916194023739
0.608000000000000429,-1.317303868924375676
0.609000000000000430,-1.299804350809018016
0.610000000000000431,-1.282542375724424089
