# CNT15-COO--10_NITROUSACID-AC
# h[nm],U(h)[kJ/mol]
0.149999999999999994,108.359082436407675232
0.150999999999999995,105.752263827459699996
0.151999999999999996,104.463429046309414616
0.152999999999999997,103.446405906181738033
0.153999999999999998,102.316914586002255305
0.154999999999999999,101.002794834109636213
0.156000000000000000,99.554725372406295492
0.157000000000000001,98.051549544845187256
0.158000000000000002,96.559093845048778348
0.159000000000000002,95.117448944655464516
0.160000000000000003,93.741961798658294924
0.161000000000000004,92.429630117459311123
0.162000000000000005,91.166529201968188545
0.163000000000000006,89.934230195123987528
0.164000000000000007,88.714482650389612672
0.165000000000000008,87.492123360633925699
0.166000000000000009,86.256490326431588755
0.167000000000000010,85.001726190146001727
0.168000000000000010,83.726349157770798115
0.169000000000000011,82.432411399678827024
0.170000000000000012,81.124489722343724907
0.171000000000000013,79.808679511966062137
0.172000000000000014,78.491699399535988846
0.173000000000000015,77.180163911310472713
0.174000000000000016,75.880044533531389561
0.175000000000000017,74.596314564640167077
0.176000000000000018,73.332757672798479121
0.177000000000000018,72.091911968968389601
0.178000000000000019,70.875118598972477457
0.179000000000000020,69.682644630468999480
0.180000000000000021,68.513852996344482449
0.181000000000000022,67.367396423032403163
0.182000000000000023,66.241416879737585077
0.183000000000000024,65.133736629948941754
0.184000000000000025,64.042031134310164475
0.185000000000000026,62.963977668763710938
0.186000000000000026,61.897376509999389782
0.187000000000000027,60.840243897156497610
0.188000000000000028,59.790877744596137688
0.189000000000000029,58.747898321455679138
0.190000000000000030,57.710266908094965288
0.191000000000000031,56.677285868867386398
0.192000000000000032,55.648583723082069241
0.193000000000000033,54.624088722704030374
0.194000000000000034,53.603994218378886671
0.195000000000000034,52.588718767076116478
0.196000000000000035,51.578863547657022082
0.197000000000000036,50.575169238566715535
0.198000000000000037,49.578474100107783329
0.199000000000000038,48.589674610854110881
0.200000000000000039,47.609689646308396505
0.201000000000000040,46.639428865701326288
0.202000000000000041,45.679765693886665190
0.203000000000000042,44.731515050701645464
0.204000000000000042,43.795415788874258567
0.205000000000000043,42.872117651000458238
0.206000000000000044,41.962172442708222775
0.207000000000000045,41.066029038728323997
0.208000000000000046,40.184031786794157881
0.209000000000000047,39.316421846680199792
0.210000000000000048,38.463340994001029571
0.211000000000000049,37.624837426665401097
0.212000000000000050,36.800873132495588891
0.213000000000000050,35.991332406283355283
0.214000000000000051,35.196031140664402415
0.215000000000000052,34.414726555286783594
0.216000000000000053,33.647127070844469188
0.217000000000000054,32.892902077037341257
0.218000000000000055,32.151691385129154810
0.219000000000000056,31.423114195528626169
0.220000000000000057,30.706777447995431629
0.221000000000000058,30.002283456184805743
0.222000000000000058,29.309236758975259818
0.223000000000000059,28.627250148230768190
0.224000000000000060,27.955949856297870326
0.225000000000000061,27.294979906704288197
0.226000000000000062,26.644005648354159632
0.227000000000000063,26.002716507209054697
0.228000000000000064,25.370828000242610756
0.229000000000000065,24.748083064623262572
0.230000000000000066,24.134252760893197376
0.231000000000000066,23.529136412646398213
0.232000000000000067,22.932561247143304684
0.233000000000000068,22.344381601693942940
0.234000000000000069,21.764477759746633012
0.235000000000000070,21.192754478666206097
0.236000000000000071,20.629139268386538220
0.237000000000000072,20.073580476667821415
0.238000000000000073,19.526045232752018421
0.239000000000000073,18.986517296940611743
0.240000000000000074,18.454994859145877228
0.241000000000000075,17.931488324906798226
0.242000000000000076,17.416018122803929913
0.243000000000000077,16.908612562734766982
0.244000000000000078,16.409305770185522277
0.245000000000000079,15.918135717506325832
0.246000000000000080,15.435142369304809762
0.247000000000000081,14.960365955442807007
0.248000000000000081,14.493845381774733028
0.249000000000000082,14.035616785712552002
0.250000000000000111,13.585712240946227425
0.251000000000000112,13.144158613189308227
0.252000000000000113,12.710976566649364372
0.253000000000000114,12.286179719036063318
0.254000000000000115,11.869773941298449316
0.255000000000000115,11.461756796917809353
0.256000000000000116,11.062117114453331013
0.257000000000000117,10.670834686128900515
0.258000000000000118,10.287880084543768788
0.259000000000000119,9.913214589066502214
0.260000000000000120,9.546790213115562196
0.261000000000000121,9.188549823321693566
0.262000000000000122,8.838427341489744293
0.263000000000000123,8.496348020315542371
0.264000000000000123,8.162228783949554867
0.265000000000000124,7.835978624720473462
0.266000000000000125,7.517499047623547703
0.267000000000000126,7.206684554528779429
0.268000000000000127,6.903423160460603114
0.269000000000000128,6.607596934734061733
0.270000000000000129,6.319082560192038400
0.271000000000000130,6.037751904265788561
0.272000000000000131,5.763472596070069009
0.273000000000000131,5.496108604236452422
0.274000000000000132,5.235520810679685333
0.275000000000000133,4.981567575975986983
0.276000000000000134,4.734105292505651263
0.277000000000000135,4.492988921971567073
0.278000000000000136,4.258072514346453730
0.279000000000000137,4.029209705723749479
0.280000000000000138,3.806254192947851500
0.281000000000000139,3.589060183276442384
0.282000000000000139,3.377482817682079919
0.283000000000000140,3.171378566729274873
0.284000000000000141,2.970605598268481362
0.285000000000000142,2.775024116468547408
0.286000000000000143,2.584496671965215597
0.287000000000000144,2.398888443135660964
0.288000000000000145,2.218067488717482050
0.289000000000000146,2.041904972177888133
0.290000000000000147,1.870275358403106436
0.291000000000000147,1.703056583423166570
0.292000000000000148,1.540130198011738560
0.293000000000000149,1.381381486107821743
0.294000000000000150,1.226699559095168812
0.295000000000000151,1.075977427048778079
0.296000000000000152,0.929112048116162326
0.297000000000000153,0.786004357245675633
0.298000000000000154,0.646559275506015441
0.299000000000000155,0.510685701261387903
0.300000000000000155,0.378296484476605077
0.301000000000000156,0.249308385426735862
0.302000000000000157,0.123642019077606011
0.303000000000000158,0.001221786387917389
0.304000000000000159,-0.118024206238920473
0.305000000000000160,-0.234164238153137166
0.306000000000000161,-0.347263075140485600
0.307000000000000162,-0.457382078458575869
0.308000000000000163,-0.564579321139611401
0.309000000000000163,-0.668909710515774969
0.310000000000000164,-0.770425115969992413
0.311000000000000165,-0.869174500963061369
0.312000000000000166,-0.965204058437965196
0.313000000000000167,-1.058557348752664939
0.314000000000000168,-1.149275439343689920
0.315000000000000169,-1.237397045374081683
0.316000000000000170,-1.322958670670215220
0.317000000000000171,-1.405994748302278108
0.318000000000000171,-1.486537780213007309
0.319000000000000172,-1.564618475347985704
0.320000000000000173,-1.640265885788120270
0.321000000000000174,-1.713507540431162379
0.322000000000000175,-1.784369575813834485
0.323000000000000176,-1.852876863709001842
0.324000000000000177,-1.919053135173850011
0.325000000000000178,-1.982921100764329481
0.326000000000000179,-2.044502566669237353
0.327000000000000179,-2.103818546552745694
0.328000000000000180,-2.160889368928419429
0.329000000000000181,-2.215734779919840136
0.330000000000000182,-2.268374041292890109
0.331000000000000183,-2.318826023673358439
0.332000000000000184,-2.367109294889658599
0.333000000000000185,-2.413242203405222774
0.334000000000000186,-2.457242956827860869
0.335000000000000187,-2.499129695504434423
0.336000000000000187,-2.538920561228629413
0.337000000000000188,-2.576633761107078424
0.338000000000000189,-2.612287626645570349
0.339000000000000190,-2.645900668131426325
0.340000000000000191,-2.677491624401253212
0.341000000000000192,-2.707079508095252773
0.342000000000000193,-2.734683646509415755
0.343000000000000194,-2.760323718166349583
0.344000000000000195,-2.784019785233050825
0.345000000000000195,-2.805792321921321886
0.346000000000000196,-2.825662239011671684
0.347000000000000197,-2.843650904646760402
0.348000000000000198,-2.859780161544024146
0.349000000000000199,-2.874072340780124968
0.350000000000000200,-2.886550272302031317
0.351000000000000201,-2.897237292320821389
0.352000000000000202,-2.906157247745032368
0.353000000000000203,-2.913334497810406987
0.354000000000000203,-2.918793913062349699
0.355000000000000204,-2.922560871846131114
0.356000000000000205,-2.924661254458547965
0.357000000000000206,-2.925121435112594703
0.358000000000000207,-2.923968271864063162
0.359000000000000208,-2.921229094646575319
0.360000000000000209,-2.916931691558141360
0.361000000000000210,-2.911104293539020116
0.362000000000000210,-2.903775557577072064
0.363000000000000211,-2.894974548572849748
0.364000000000000212,-2.884730719992769199
0.365000000000000213,-2.873073893434351156
0.366000000000000214,-2.860034237223370912
0.367000000000000215,-2.845642244158234746
0.368000000000000216,-2.829928708512556401
0.369000000000000217,-2.812924702402188615
0.370000000000000218,-2.794661551618651263
0.371000000000000218,-2.775170811026014039
0.372000000000000219,-2.754484239614067853
0.373000000000000220,-2.732633775295796319
0.374000000000000221,-2.709651509532809310
0.375000000000000222,-2.685569661867764690
0.376000000000000223,-2.660420554438669871
0.377000000000000224,-2.634236586545340320
0.378000000000000225,-2.607050209334151880
0.379000000000000226,-2.578893900663060013
0.380000000000000226,-2.549800140204848908
0.381000000000000227,-2.519801384842327074
0.382000000000000228,-2.488930044405688768
0.383000000000000229,-2.457218457798241218
0.384000000000000230,-2.424698869553038261
0.385000000000000231,-2.391403406859703207
0.386000000000000232,-2.357364057096925869
0.387000000000000233,-2.322612645903210815
0.388000000000000234,-2.287180815814939816
0.389000000000000234,-2.251100005498114509
0.390000000000000235,-2.214401429596907001
0.391000000000000236,-2.177116059219625477
0.392000000000000237,-2.139274603079796222
0.393000000000000238,-2.100907489307745291
0.394000000000000239,-2.062044847945409654
0.395000000000000240,-2.022716494134991549
0.396000000000000241,-1.982951912009784490
0.397000000000000242,-1.942780239293378175
0.398000000000000242,-1.902230252611668559
0.399000000000000243,-1.861330353520039171
0.400000000000000244,-1.820108555246425563
0.401000000000000245,-1.778592470149469973
0.402000000000000246,-1.736809297889160053
0.403000000000000247,-1.694785814306156935
0.404000000000000248,-1.652548361004588795
0.405000000000000249,-1.610122835631840221
0.406000000000000250,-1.567534682847690597
0.407000000000000250,-1.524808885974190398
0.408000000000000251,-1.481969959316535634
0.409000000000000252,-1.439041941144460823
0.410000000000000253,-1.396048387322702755
0.411000000000000254,-1.353012365578454279
0.412000000000000255,-1.309956450392978811
0.413000000000000256,-1.266902718504008041
0.414000000000000257,-1.223872745004898288
0.415000000000000258,-1.180887600026240492
0.416000000000000258,-1.137967845984934723
0.417000000000000259,-1.095133535385630186
0.418000000000000260,-1.052404209158952053
0.419000000000000261,-1.009798895520742867
0.420000000000000262,-0.967336109336344618
0.421000000000000263,-0.925033851973768528
0.422000000000000264,-0.882909611629468571
0.423000000000000265,-0.840980364110323952
0.424000000000000266,-0.799262574055560004
0.425000000000000266,-0.757772196582021440
0.426000000000000267,-0.716524679336586034
0.427000000000000268,-0.675534964939275451
0.428000000000000269,-0.634817493800879484
0.429000000000000270,-0.594386207299012037
0.430000000000000271,-0.554254551296496145
0.431000000000000272,-0.514435479986389277
0.432000000000000273,-0.474941460047907438
0.433000000000000274,-0.435784475097894752
0.434000000000000274,-0.396976030422528825
0.435000000000000275,-0.358527157974374733
0.436000000000000276,-0.320448421620020241
0.437000000000000277,-0.282749922623794725
0.438000000000000278,-0.245441305353454181
0.439000000000000279,-0.208531763193912173
0.440000000000000280,-0.172030044655376996
0.441000000000000281,-0.135944459662647454
0.442000000000000282,-0.100282886012608416
0.443000000000000282,-0.065052775987161499
0.444000000000000283,-0.030261163109385526
0.445000000000000284,0.004085330969158374
0.446000000000000285,0.037980489461709829
0.447000000000000286,0.071418493331342772
0.448000000000000287,0.104393914078988861
0.449000000000000288,0.136901706444915533
0.450000000000000289,0.168937201034155493
0.451000000000000290,0.200496096875786900
0.452000000000000290,0.231574453925758400
0.453000000000000291,0.262168685522626066
0.454000000000000292,0.292275550805130568
0.455000000000000293,0.321892147100371284
0.456000000000000294,0.351015902290855997
0.457000000000000295,0.379644567168477054
0.458000000000000296,0.407776207783139277
0.459000000000000297,0.435409197793394598
0.460000000000000298,0.462542210826209055
0.461000000000000298,0.489174212852598322
0.462000000000000299,0.515304454585639782
0.463000000000000300,0.540932463907058958
0.464000000000000301,0.566058038328250968
0.465000000000000302,0.590681237491346711
0.466000000000000303,0.614802375715735594
0.467000000000000304,0.638422014595023124
0.468000000000000305,0.661540955649245532
0.469000000000000306,0.684160233036942289
0.470000000000000306,0.706281106331261177
0.471000000000000307,0.727905053364270027
0.472000000000000308,0.749033763143165165
0.473000000000000309,0.769669128842017436
0.474000000000000310,0.789813240872352607
0.475000000000000311,0.809468380035743507
0.476000000000000312,0.828637010761203996
0.477000000000000313,0.847321774430249919
0.478000000000000314,0.865525482791984380
0.479000000000000314,0.883251111470553574
0.480000000000000315,0.900501793567121567
0.481000000000000316,0.917280813358225311
0.482000000000000317,0.933591600092330887
0.483000000000000318,0.949437721886115304
0.484000000000000319,0.964822879721947246
0.485000000000000320,0.979750901547756903
0.486000000000000321,0.994225736480476407
0.487000000000000322,1.008251449113945153
0.488000000000000322,1.021832213932175604
0.489000000000000323,1.034972309828550596
0.490000000000000324,1.047676114731622032
0.491000000000000325,1.059948100337850363
0.492000000000000326,1.071792826951666555
0.493000000000000327,1.083214938432977004
0.494000000000000328,1.094219157252243280
0.495000000000000329,1.104810279653114957
0.496000000000000330,1.114993170922475851
0.497000000000000330,1.124772760767689395
0.498000000000000331,1.134154038800781805
0.499000000000000332,1.143142050129095866
0.500000000000000333,1.151741891052003641
0.501000000000000334,1.159958704863122136
0.502000000000000335,1.167797677757376862
0.503000000000000336,1.175264034842245398
0.504000000000000337,1.182363036252424449
0.505000000000000338,1.189099973367090390
0.506000000000000338,1.195480165128871786
0.507000000000000339,1.201508954463627488
0.508000000000000340,1.207191704800030907
0.509000000000000341,1.212533796687902177
0.510000000000000342,1.217540624514279246
0.511000000000000343,1.222217593316044626
0.512000000000000344,1.226570115688006446
0.513000000000000345,1.230603608785205472
0.514000000000000346,1.234323491418238605
0.515000000000000346,1.237735181240356974
0.516000000000000347,1.240844092025060075
0.517000000000000348,1.243655631032831721
0.518000000000000349,1.246175196465779234
0.519000000000000350,1.248408175008744569
0.520000000000000351,1.250359939455573777
0.521000000000000352,1.252035846419133236
0.522000000000000353,1.253441234123702008
0.523000000000000353,1.254581420278318316
0.524000000000000354,1.255461700029663508
0.525000000000000355,1.256087343993062877
0.526000000000000356,1.256463596360186674
0.527000000000000357,1.256595673081956965
0.528000000000000358,1.256488760125328286
0.529000000000000359,1.256148011802364239
0.530000000000000360,1.255578549170300207
0.531000000000000361,1.254785458501050499
0.532000000000000361,1.253773789818793283
0.533000000000000362,1.252548555504129801
0.534000000000000363,1.251114728963467204
0.535000000000000364,1.249477243362131951
0.536000000000000365,1.247640990419827567
0.537000000000000366,1.245610819267026770
0.538000000000000367,1.243391535360903521
0.539000000000000368,1.240987899459366162
0.540000000000000369,1.238404626651898877
0.541000000000000369,1.235646385445738904
0.542000000000000370,1.232717796906118490
0.543000000000000371,1.229623433849177827
0.544000000000000372,1.226367820086222249
0.545000000000000373,1.222955429718016740
0.546000000000000374,1.219390686477815455
0.547000000000000375,1.215677963121825966
0.548000000000000376,1.211821580865824588
0.549000000000000377,1.207825808866700656
0.550000000000000377,1.203694863747653221
0.551000000000000378,1.199432909165820904
0.552000000000000379,1.195044055421162099
0.553000000000000380,1.190532359105341609
0.554000000000000381,1.185901822789517279
0.555000000000000382,1.181156394749798721
0.556000000000000383,1.176299968729305201
0.557000000000000384,1.171336383735639197
0.558000000000000385,1.166269423872735800
0.559000000000000385,1.161102818205938192
0.560000000000000386,1.155840240659297580
0.561000000000000387,1.150485309943994450
0.562000000000000388,1.145041589516891056
0.563000000000000389,1.139512587568176194
0.564000000000000390,1.133901757037132807
0.565000000000000391,1.128212495655042558
0.566000000000000392,1.122448146014274339
0.567000000000000393,1.116611995662616597
0.568000000000000393,1.110707277221951950
0.569000000000000394,1.104737168530344649
0.570000000000000395,1.098704792806697750
0.571000000000000396,1.092613218837089617
0.572000000000000397,1.086465461181935099
0.573000000000000398,1.080264480403204885
0.574000000000000399,1.074013183310800423
0.575000000000000400,1.067714423227392961
0.576000000000000401,1.061371000270884046
0.577000000000000401,1.054985661653746964
0.578000000000000402,1.048561101998534140
0.579000000000000403,1.042099963668824625
0.580000000000000404,1.035604837114862953
0.581000000000000405,1.029078261233274061
0.582000000000000406,1.022522723740128647
0.583000000000000407,1.015940661556720137
0.584000000000000408,1.009334461207442413
0.585000000000000409,1.002706459229105285
0.586000000000000409,0.996058942591105945
0.587000000000000410,0.989394149125866762
0.588000000000000411,0.982714267968963773
0.589000000000000412,0.976021440008370100
0.590000000000000413,0.969317758342305935
0.591000000000000414,0.962605268745126308
0.592000000000000415,0.955885970140760044
0.593000000000000416,0.949161815083188087
0.594000000000000417,0.942434710243480134
0.595000000000000417,0.935706516902901742
0.596000000000000418,0.928979051451667592
0.597000000000000419,0.922254085892853070
0.598000000000000420,0.915533348351066700
0.599000000000000421,0.908818523585449123
0.600000000000000422,0.902111253506583610
0.601000000000000423,0.895413137696958517
0.602000000000000424,0.888725733934554341
0.603000000000000425,0.882050558719212452
0.604000000000000425,0.875389087801435650
0.605000000000000426,0.868742756713264064
0.606000000000000427,0.862112961300852021
0.607000000000000428,0.855501058258541169
0.608000000000000429,0.848908365663925912
0.609000000000000430,0.842336163513840552
0.610000000000000431,0.835785694260754553
0.611000000000000432,0.829258163349451016
0.612000000000000433,0.822754739753663755
0.613000000000000433,0.816276556512369411
0.614000000000000434,0.809824711265562436
0.615000000000000435,0.803400266789218720
0.616000000000000436,0.797004251529222718
0.617000000000000437,0.790637660134031806
