# Cu111_HIPSCA-AC
# h[nm],U(h)[kJ/mol]
0.149999999999999994,72.817375560298458481
0.150999999999999995,68.368830443027363231
0.151999999999999996,64.408017125987385043
0.152999999999999997,60.601940489757701869
0.153999999999999998,56.853380820516029814
0.154999999999999999,53.161182151522382355
0.156000000000000000,49.551407612133075986
0.157000000000000001,46.047666973488318831
0.158000000000000002,42.661741079209569705
0.159000000000000002,39.393660652739910688
0.160000000000000003,36.235320558590949247
0.161000000000000004,33.174643355137803269
0.162000000000000005,30.198986324600355147
0.163000000000000006,27.297396016115861528
0.164000000000000007,24.461763827301254537
0.165000000000000008,21.687121442206546362
0.166000000000000009,18.971357417207386220
0.167000000000000010,16.314608822199538452
0.168000000000000010,13.718526734012019830
0.169000000000000011,11.185554453072711567
0.170000000000000012,8.718303829007018280
0.171000000000000013,6.319072491702181438
0.172000000000000014,3.989513800674531208
0.173000000000000015,1.730450781954349981
0.174000000000000016,-0.458186714692354613
0.175000000000000017,-2.577328013578116472
0.176000000000000018,-4.628658226657224262
0.177000000000000018,-6.614471098892505729
0.178000000000000019,-8.537500172275464649
0.179000000000000020,-10.400746060014517624
0.180000000000000021,-12.207313198350629335
0.181000000000000022,-13.960265301425394568
0.182000000000000023,-15.662505121648919726
0.183000000000000024,-17.316681124356207988
0.184000000000000025,-18.925121343661338358
0.185000000000000026,-20.489792961855112452
0.186000000000000026,-22.012284979488818237
0.187000000000000027,-23.493810633059005966
0.188000000000000028,-24.935225883029733751
0.189000000000000029,-26.337060251113541653
0.190000000000000030,-27.699556454572142883
0.191000000000000031,-29.022715599511485607
0.192000000000000032,-30.306345098783520342
0.193000000000000033,-31.550106928373025994
0.194000000000000034,-32.753564294574502469
0.195000000000000034,-33.916225227538404852
0.196000000000000035,-35.037582027349770897
0.197000000000000036,-36.117145855595502724
0.198000000000000037,-37.154476082390516467
0.199000000000000038,-38.149204264036114864
0.200000000000000039,-39.101052840763472318
0.201000000000000040,-40.009848810324633916
0.202000000000000041,-40.875532755831883946
0.203000000000000042,-41.698163690297512574
0.204000000000000042,-42.477920231221773406
0.205000000000000043,-43.215098641756704012
0.206000000000000044,-43.910108275669003319
0.207000000000000045,-44.563464946374168107
0.208000000000000046,-45.175782710088995486
0.209000000000000047,-45.747764513484554527
0.210000000000000048,-46.280192110407497808
0.211000000000000049,-46.773915603033501043
0.212000000000000050,-47.229842912474225614
0.213000000000000050,-47.648929434164394081
0.214000000000000051,-48.032168085684823211
0.215000000000000052,-48.380579910035429236
0.216000000000000053,-48.695205356456170875
0.217000000000000054,-48.977096324134713257
0.218000000000000055,-49.227309021754066976
0.219000000000000056,-49.446897667859985859
0.220000000000000057,-49.636909033377371259
0.221000000000000058,-49.798377808070547701
0.222000000000000058,-49.932322757064468988
0.223000000000000059,-50.039743621389547457
0.224000000000000060,-50.121618707537535897
0.225000000000000061,-50.178903104853908701
0.226000000000000062,-50.212527465875332666
0.227000000000000063,-50.223397283096275601
0.228000000000000064,-50.212392595777039617
0.229000000000000065,-50.180368061968735560
0.230000000000000066,-50.128153333641009226
0.231000000000000066,-50.056553676390151963
0.232000000000000067,-49.966350779448831076
0.233000000000000068,-49.858303706404392130
0.234000000000000069,-49.733149941988067155
0.235000000000000070,-49.591606495369248364
0.236000000000000071,-49.434371025452058745
0.237000000000000072,-49.262122958624942726
0.238000000000000073,-49.075524574173826409
0.239000000000000073,-48.875222037073491776
0.240000000000000074,-48.661846362073397643
0.241000000000000075,-48.436014296861074513
0.242000000000000076,-48.198329115597125849
0.243000000000000077,-47.949381317262151470
0.244000000000000078,-47.689749226038649965
0.245000000000000079,-47.419999493369850541
0.246000000000000080,-47.140687503414838488
0.247000000000000081,-46.852357685360630057
0.248000000000000081,-46.555543737485749034
0.249000000000000082,-46.250768769012964299
0.250000000000000111,-45.938545366667852932
0.251000000000000112,-45.619375593497316856
0.252000000000000113,-45.293750927925330529
0.253000000000000114,-44.962152151252908538
0.254000000000000115,-44.625049191874303744
0.255000000000000115,-44.282900934398938375
0.256000000000000116,-43.936155001666264752
0.257000000000000117,-43.585247517333947087
0.258000000000000118,-43.230602856330634154
0.259000000000000119,-42.872633390008736853
0.260000000000000120,-42.511739232327364846
0.261000000000000121,-42.148307992852913628
0.262000000000000122,-41.782714541800025643
0.263000000000000123,-41.415320791757508800
0.264000000000000123,-41.046475500164234518
0.265000000000000124,-40.676514096024774858
0.266000000000000125,-40.305758533794346476
0.267000000000000126,-39.934517176818786766
0.268000000000000127,-39.563084712197721160
0.269000000000000128,-39.191742098446532339
0.270000000000000129,-38.820756546873482762
0.271000000000000130,-38.450381537158634160
0.272000000000000131,-38.080856867228803253
0.273000000000000131,-37.712408737162732564
0.274000000000000132,-37.345249866537180594
0.275000000000000133,-36.979579644336247668
0.276000000000000134,-36.615584310290998360
0.277000000000000135,-36.253437166296656358
0.278000000000000136,-35.893298816365160064
0.279000000000000137,-35.535317433413162291
0.280000000000000138,-35.179629051057830225
0.281000000000000139,-34.826357878490433961
0.282000000000000139,-34.475616636423410455
0.283000000000000140,-34.127506912054407451
0.284000000000000141,-33.782119530961061571
0.285000000000000142,-33.439534943830743430
0.286000000000000143,-33.099823625937382587
0.287000000000000144,-32.763046487301963339
0.288000000000000145,-32.429255291512490089
0.289000000000000146,-32.098493081229996449
0.290000000000000147,-31.770794608470161791
0.291000000000000147,-31.446186767821579622
0.292000000000000148,-31.124689030841675930
0.293000000000000149,-30.806313879957379243
0.294000000000000150,-30.491067240289037699
0.295000000000000151,-30.178948907911966160
0.296000000000000152,-29.869952973167290367
0.297000000000000153,-29.564068237735533273
0.298000000000000154,-29.261278624285857575
0.299000000000000155,-28.961563577616420417
0.300000000000000155,-28.664898456301255436
0.301000000000000156,-28.371254913958694033
0.302000000000000157,-28.080601269353518745
0.303000000000000158,-27.792902864640684157
0.304000000000000159,-27.508122411150093711
0.305000000000000160,-27.226220322201150736
0.306000000000000161,-26.947155032521823870
0.307000000000000162,-26.670883303928054175
0.308000000000000163,-26.397360516997736113
0.309000000000000163,-26.126540948547123833
0.310000000000000164,-25.858378034786984045
0.311000000000000165,-25.592824620101222166
0.312000000000000166,-25.329833191451641028
0.313000000000000167,-25.069356098469182115
0.314000000000000168,-24.811345759344472839
0.315000000000000169,-24.555754852678482791
0.316000000000000170,-24.302536495498522129
0.317000000000000171,-24.051644407684527494
0.318000000000000171,-23.803033063086672882
0.319000000000000172,-23.556657827647946135
0.320000000000000173,-23.312475084873533149
0.321000000000000174,-23.070442349014381733
0.322000000000000175,-22.830518366353619086
0.323000000000000176,-22.592663205003702842
0.324000000000000177,-22.356838333636847693
0.325000000000000178,-22.123006689584848061
0.326000000000000179,-21.891132736753679211
0.327000000000000179,-21.661182513806082284
0.328000000000000180,-21.433123673070053172
0.329000000000000181,-21.206925510634800247
0.330000000000000182,-20.982558988095213692
0.331000000000000183,-20.759996746406397250
0.332000000000000184,-20.539213112305798603
0.333000000000000185,-20.320184097756801123
0.334000000000000186,-20.102887392861589433
0.335000000000000187,-19.887302352684109508
0.336000000000000187,-19.673409978415570265
0.337000000000000188,-19.461192893305842233
0.338000000000000189,-19.250635313773720725
0.339000000000000190,-19.041723016098124788
0.340000000000000191,-18.834443299080412260
0.341000000000000192,-18.628784943056274415
0.342000000000000193,-18.424738165621903363
0.343000000000000194,-18.222294574426989300
0.344000000000000195,-18.021447117372822788
0.345000000000000195,-17.822190030540546957
0.346000000000000196,-17.624518784160205342
0.347000000000000197,-17.428430026917681062
0.348000000000000198,-17.233921528882376606
0.349000000000000199,-17.040992123324123497
0.350000000000000200,-16.849641647674577172
0.351000000000000201,-16.659870883873654890
0.352000000000000202,-16.471681498328607063
0.353000000000000203,-16.285075981699357328
0.354000000000000203,-16.100057588710591006
0.355000000000000204,-15.916630278178269364
0.356000000000000205,-15.734798653425290382
0.357000000000000206,-15.554567903248818439
0.358000000000000207,-15.375943743589536084
0.359000000000000208,-15.198932360041681022
0.360000000000000209,-15.023540351331075016
0.361000000000000210,-14.849774673877636388
0.362000000000000210,-14.677642587548145769
0.363000000000000211,-14.507151602694992931
0.364000000000000212,-14.338309428566693882
0.365000000000000213,-14.171123923166845771
0.366000000000000214,-14.005603044628932352
0.367000000000000215,-13.841754804166100712
0.368000000000000216,-13.679587220646704182
0.369000000000000217,-13.519108276838716520
0.370000000000000218,-13.360325877358770086
0.371000000000000218,-13.203247808354626969
0.372000000000000219,-13.047881698943154305
0.373000000000000220,-12.894234984419904677
0.374000000000000221,-12.742314871250446373
0.375000000000000222,-12.592128303848006965
0.376000000000000223,-12.443681933137089146
0.377000000000000224,-12.296982086897701336
0.378000000000000225,-12.152034741880626711
0.379000000000000226,-12.008845497679798697
0.380000000000000226,-11.867419552344212974
0.381000000000000227,-11.727761679708084586
0.382000000000000228,-11.589876208415002878
0.383000000000000229,-11.453767002608618242
0.384000000000000230,-11.319437444259737191
0.385000000000000231,-11.186890417097538730
0.386000000000000232,-11.056128292110088296
0.387000000000000233,-10.927152914577478171
0.388000000000000234,-10.799965592599322761
0.389000000000000234,-10.674567087076770378
0.390000000000000235,-10.550957603107544713
0.391000000000000236,-10.429136782752056689
0.392000000000000237,-10.309103699126872300
0.393000000000000238,-10.190856851781880721
0.394000000000000239,-10.074394163316075179
0.395000000000000240,-9.959712977187047400
0.396000000000000241,-9.846810056668621414
0.397000000000000242,-9.735681584910858888
0.398000000000000242,-9.626323166056826253
0.399000000000000243,-9.518729827370343344
0.400000000000000244,-9.412896022329054091
0.401000000000000245,-9.308815634637763736
0.402000000000000246,-9.206481983116933776
0.403000000000000247,-9.105887827421739189
0.404000000000000248,-9.007025374547925622
0.405000000000000249,-8.909886286080830331
0.406000000000000250,-8.814461686144934305
0.407000000000000250,-8.720742170011829941
0.408000000000000251,-8.628717813325250674
0.409000000000000252,-8.538378181902906761
0.410000000000000253,-8.449712342075139659
0.411000000000000254,-8.362708871522039900
0.412000000000000255,-8.277355870570925589
0.413000000000000256,-8.193640973917554859
0.414000000000000257,-8.111551362734980231
0.415000000000000258,-8.031073777135379288
0.416000000000000258,-7.952194528950903063
0.417000000000000259,-7.874899514800716815
0.418000000000000260,-7.799174229412528803
0.419000000000000261,-7.725003779167759710
0.420000000000000262,-7.652372895840812816
0.421000000000000263,-7.581265950503786932
0.422000000000000264,-7.511666967568944031
0.423000000000000265,-7.443559638942609524
0.424000000000000266,-7.376927338264907874
0.425000000000000266,-7.311753135210977916
0.426000000000000267,-7.248019809830168469
0.427000000000000268,-7.185709866900960030
0.428000000000000269,-7.124805550280143507
0.429000000000000270,-7.065288857225891839
0.430000000000000271,-7.007141552675359542
0.431000000000000272,-6.950345183458287224
0.432000000000000273,-6.894881092429161917
0.433000000000000274,-6.840730432501354485
0.434000000000000274,-6.787874180567527560
0.435000000000000275,-6.736293151291536496
0.436000000000000276,-6.685968010757955327
0.437000000000000277,-6.636879289966033824
0.438000000000000278,-6.589007398155952266
0.439000000000000279,-6.542332635955879994
0.440000000000000280,-6.496835208339123646
0.441000000000000281,-6.452495237381498328
0.442000000000000282,-6.409292774809751236
0.443000000000000282,-6.367207814332536131
0.444000000000000283,-6.326220303746150186
0.445000000000000284,-6.286310156808013971
0.446000000000000285,-6.247457264871279392
0.447000000000000286,-6.209641508274907906
0.448000000000000287,-6.172842767483786908
0.449000000000000288,-6.137040933974371448
0.450000000000000289,-6.102215920861689291
0.451000000000000290,-6.068347673264095299
0.452000000000000290,-6.035416178402789100
0.453000000000000291,-6.003401475433475909
0.454000000000000292,-5.972283665008117914
0.455000000000000293,-5.942042918565084264
0.456000000000000294,-5.912659487346538789
0.457000000000000295,-5.884113711142195946
0.458000000000000296,-5.856386026759129670
0.459000000000000297,-5.829456976217505471
0.460000000000000298,-5.803307214672632774
0.461000000000000298,-5.777917518063897084
0.462000000000000299,-5.753268790491693707
0.463000000000000300,-5.729342071323481278
0.464000000000000301,-5.706118542030626628
0.465000000000000302,-5.683579532757828900
0.466000000000000303,-5.661706528627254542
0.467000000000000304,-5.640481175779602729
0.468000000000000305,-5.619885287154791520
0.469000000000000306,-5.599900848014930155
0.470000000000000306,-5.580510021212537808
0.471000000000000307,-5.561695152207155601
0.472000000000000308,-5.543438773833715416
0.473000000000000309,-5.525723610825997056
0.474000000000000310,-5.508532584098860596
0.475000000000000311,-5.491848814793037548
0.476000000000000312,-5.475655628086203208
0.477000000000000313,-5.459936556774410477
0.478000000000000314,-5.444675344627893487
0.479000000000000314,-5.429855949525448366
0.480000000000000315,-5.415462546371548669
0.481000000000000316,-5.401479529800576884
0.482000000000000317,-5.387891516672516090
0.483000000000000318,-5.374683348364499125
0.484000000000000319,-5.361840092862705021
0.485000000000000320,-5.349347046659122640
0.486000000000000321,-5.337189736457693456
0.487000000000000322,-5.325353920694369414
0.488000000000000322,-5.313825590875735472
0.489000000000000323,-5.302590972740687469
0.490000000000000324,-5.291636527249823807
0.491000000000000325,-5.280948951407128611
0.492000000000000326,-5.270515178918461885
0.493000000000000327,-5.260322380691537347
0.494000000000000328,-5.250357965181807529
0.495000000000000329,-5.240609578588911077
0.496000000000000330,-5.231065104908077856
0.497000000000000330,-5.221712665841026890
0.498000000000000331,-5.212540620570794481
0.499000000000000332,-5.203537565404834808
0.500000000000000333,-5.194692333290811703
0.501000000000000334,-5.185993993209410569
0.502000000000000335,-5.177431849448335122
0.503000000000000336,-5.168995440761834814
0.504000000000000337,-5.160674539419852991
0.505000000000000338,-5.152459150150909828
0.506000000000000338,-5.144339508982808340
0.507000000000000339,-5.136306081985132721
0.508000000000000340,-5.128349563917490528
0.509000000000000341,-5.120460876787353399
0.510000000000000342,-5.112631168321332353
0.511000000000000343,-5.104851810353604691
0.512000000000000344,-5.097114397135213082
0.513000000000000345,-5.089410743567774453
0.514000000000000346,-5.081732883365269515
0.515000000000000346,-5.074073067147240934
0.516000000000000347,-5.066423760466912896
0.517000000000000348,-5.058777641777568057
0.518000000000000349,-5.051127600340350909
0.519000000000000350,-5.043466734076817559
0.520000000000000351,-5.035788347369306805
0.521000000000000352,-5.028085948812160311
0.522000000000000353,-5.020353248916801014
0.523000000000000353,-5.012584157773629201
0.524000000000000354,-5.004772782673503784
0.525000000000000355,-4.996913425691624333
0.526000000000000356,-4.989000581236526344
0.527000000000000357,-4.981028933566777894
0.528000000000000358,-4.972993354278036904
0.529000000000000359,-4.964888899762804897
0.530000000000000360,-4.956710808645494737
0.531000000000000361,-4.948454499195022116
0.532000000000000361,-4.940115566717298456
0.533000000000000362,-4.931689780929789713
0.534000000000000363,-4.923173083320380172
0.535000000000000364,-4.914561584492544100
0.536000000000000365,-4.905851561498936420
0.537000000000000366,-4.897039455165306698
0.538000000000000367,-4.888121867406694854
0.539000000000000368,-4.879095558537708932
0.540000000000000369,-4.869957444578695949
0.541000000000000369,-4.860704594559493330
0.542000000000000370,-4.851334227822478695
0.543000000000000371,-4.841843711326459854
0.544000000000000372,-4.832230556953006406
0.545000000000000373,-4.822492418816672455
0.546000000000000374,-4.812627090580575029
0.547000000000000375,-4.802632502778682699
0.548000000000000376,-4.792506720146198163
0.549000000000000377,-4.782247938959239164
0.550000000000000377,-4.771854484385083417
0.551000000000000378,-4.761324807844153462
0.552000000000000379,-4.750657484384873008
0.553000000000000380,-4.739851210072436594
0.554000000000000381,-4.728904799392561920
0.555000000000000382,-4.717817182671216969
0.556000000000000383,-4.706587403511202083
0.557000000000000384,-4.695214616246550676
0.558000000000000385,-4.683698083415579916
0.559000000000000385,-4.672037173253387188
0.560000000000000386,-4.660231357204557057
0.561000000000000387,-4.648280207456878976
0.562000000000000388,-4.636183394496658394
0.563000000000000389,-4.623940684686367320
0.564000000000000390,-4.611551937865199235
0.565000000000000391,-4.599017104973142089
0.566000000000000392,-4.586336225699092495
0.567000000000000393,-4.573509426153528956
0.568000000000000393,-4.560536916566221954
0.569000000000000394,-4.547418989009433865
0.570000000000000395,-4.534156015147052798
0.571000000000000396,-4.520748444009943690
0.572000000000000397,-4.507196799798006026
0.573000000000000398,-4.493501679709181573
0.574000000000000399,-4.479663751795715854
0.575000000000000400,-4.465683752847992238
0.576000000000000401,-4.451562486306113620
0.577000000000000401,-4.437300820199538087
0.578000000000000402,-4.422899685114884960
0.579000000000000403,-4.408360072192137658
0.580000000000000404,-4.393683031149363316
0.581000000000000405,-4.378869668336108134
0.582000000000000406,-4.363921144815540387
0.583000000000000407,-4.348838674475435262
0.584000000000000408,-4.333623522168107201
0.585000000000000409,-4.318277001879271992
0.586000000000000409,-4.302800474925911445
0.587000000000000410,-4.287195348183151289
0.588000000000000411,-4.271463072340127454
0.589000000000000412,-4.255605140184810509
0.590000000000000413,-4.239623084917788276
0.591000000000000414,-4.223518478494918682
0.592000000000000415,-4.207292929998789788
0.593000000000000416,-4.190948084038912391
0.594000000000000417,-4.174485619180549278
0.595000000000000417,-4.157907246402073653
0.596000000000000418,-4.141214707580702203
0.597000000000000419,-4.124409774006550400
0.598000000000000420,-4.107494244924759563
0.599000000000000421,-4.090469946105628196
0.600000000000000422,-4.073338728442545076
0.601000000000000423,-4.056102466577544696
0.602000000000000424,-4.038763057554310087
0.603000000000000425,-4.021322419498446266
0.604000000000000425,-4.003782490324780952
0.605000000000000426,-3.986145226471531799
0.606000000000000427,-3.968412601661088779
0.607000000000000428,-3.950586605687200326
0.608000000000000429,-3.932669243228327449
