# Cu111_CYMSCA-JS
# h[nm],U(h)[kJ/mol]
0.200000000000000011,86.486447951455986072
0.201000000000000012,81.360249831097434026
0.202000000000000013,78.110631395230271323
0.203000000000000014,75.679683079486650854
0.204000000000000015,73.494433142797575442
0.205000000000000016,71.281272068769482075
0.206000000000000016,68.942030146098986165
0.207000000000000017,66.473369040419242992
0.208000000000000018,63.916151764827191073
0.209000000000000019,61.325182835553832206
0.210000000000000020,58.752470485996411753
0.211000000000000021,56.239192705863345623
0.212000000000000022,53.813030041321077590
0.213000000000000023,51.488599000887212753
0.214000000000000024,49.269485850556989703
0.215000000000000024,47.150921309905143630
0.216000000000000025,45.122512340769986849
0.217000000000000026,43.170703013564548201
0.218000000000000027,41.280806060337951635
0.219000000000000028,39.438555194287374661
0.220000000000000029,37.631194019228040304
0.221000000000000030,35.848153828971518919
0.222000000000000031,34.081389539274688616
0.223000000000000032,32.325447359292596161
0.224000000000000032,30.577334492556680345
0.225000000000000033,28.836253544034455842
0.226000000000000034,27.103254682843562762
0.227000000000000035,25.380848459292369768
0.228000000000000036,23.672612425834749672
0.229000000000000037,21.982815896018287560
0.230000000000000038,20.316079555971807480
0.231000000000000039,18.677080303004633066
0.232000000000000040,17.070306595242744407
0.233000000000000040,15.499865656808358594
0.234000000000000041,13.969340960793994455
0.235000000000000042,12.481696358742293995
0.236000000000000043,11.039221891787596164
0.237000000000000044,9.643515564793879946
0.238000000000000045,8.295495063937394775
0.239000000000000046,6.995433439281471877
0.240000000000000047,5.743013062491565179
0.241000000000000048,4.537392627460477890
0.242000000000000048,3.377282524586585843
0.243000000000000049,2.261024537388242273
0.244000000000000050,1.186672444261394288
0.245000000000000051,0.152070729570925323
0.246000000000000052,-0.845070803729930042
0.247000000000000053,-1.807108187045980641
0.248000000000000054,-2.736401386798239521
0.249000000000000055,-3.635260109986119481
0.250000000000000056,-4.505897707863498525
0.251000000000000056,-5.350393266490142352
0.252000000000000057,-6.170661724854134000
0.253000000000000058,-6.968431665267949882
0.254000000000000059,-7.745230271814198986
0.255000000000000060,-8.502374845389944369
0.256000000000000061,-9.240970192929227167
0.257000000000000062,-9.961911168340735756
0.258000000000000063,-10.665889628514014120
0.259000000000000064,-11.353405074708568634
0.260000000000000064,-12.024778273450127841
0.261000000000000065,-12.680167187865272638
0.262000000000000066,-13.319584596800822851
0.263000000000000067,-13.942916832149752082
0.264000000000000068,-14.549943122032590992
0.265000000000000069,-15.140355086752979474
0.266000000000000070,-15.713775994018684301
0.267000000000000071,-16.269779438398995097
0.268000000000000071,-16.807907166269949073
0.269000000000000072,-17.327685820748609302
0.270000000000000073,-17.828642430725771817
0.271000000000000074,-18.310318513663151663
0.272000000000000075,-18.772282703081899058
0.273000000000000076,-19.214141848523901501
0.274000000000000077,-19.635550568223056445
0.275000000000000078,-20.036219262873903091
0.276000000000000079,-20.415920622893914071
0.277000000000000079,-20.774494681663970397
0.278000000000000080,-21.111852483650366707
0.279000000000000081,-21.427978449348358936
0.280000000000000082,-21.722931528932882372
0.281000000000000083,-21.996845243663937453
0.282000000000000084,-22.249926718770726808
0.283000000000000085,-22.482454814028461243
0.284000000000000086,-22.694777458827665839
0.285000000000000087,-22.887308297488839770
0.286000000000000087,-23.060522748150251715
0.287000000000000088,-23.214953574988083318
0.288000000000000089,-23.351186069033651904
0.289000000000000090,-23.469852927629425210
0.290000000000000091,-23.571628916789791219
0.291000000000000092,-23.657225394565955412
0.292000000000000093,-23.727384767093173679
0.293000000000000094,-23.782874942447964628
0.294000000000000095,-23.824483840867053175
0.295000000000000095,-23.853014013370007262
0.296000000000000096,-23.869277414458231590
0.297000000000000097,-23.874090368398437789
0.298000000000000098,-23.868268762687751661
0.299000000000000099,-23.852623496682049620
0.300000000000000100,-23.827956208077317513
0.301000000000000101,-23.795055294988692651
0.302000000000000102,-23.754692246786781595
0.303000000000000103,-23.707618292633831913
0.304000000000000103,-23.654561372815095410
0.305000000000000104,-23.596223434479767889
0.306000000000000105,-23.533278050286465799
0.307000000000000106,-23.466368355676621604
0.308000000000000107,-23.396105298065776879
0.309000000000000108,-23.323066189130901904
0.310000000000000109,-23.247793549564612192
0.311000000000000110,-23.170794234147400914
0.312000000000000111,-23.092538823737818632
0.313000000000000111,-23.013461269778510143
0.314000000000000112,-22.933958776144045544
0.315000000000000113,-22.854391902595171615
0.316000000000000114,-22.775084873735149671
0.317000000000000115,-22.696326077167299218
0.318000000000000116,-22.618368734512699803
0.319000000000000117,-22.541431729044429488
0.320000000000000118,-22.465700573914141103
0.321000000000000119,-22.391328505272948490
0.322000000000000119,-22.318437685005829252
0.323000000000000120,-22.247120498294307822
0.324000000000000121,-22.177440931783500844
0.325000000000000122,-22.109436018743480190
0.326000000000000123,-22.043117338272473660
0.327000000000000124,-21.978472556278852323
0.328000000000000125,-21.915466996692931190
0.329000000000000126,-21.854045232088573414
0.330000000000000127,-21.794132683631779912
0.331000000000000127,-21.735637221013458742
0.332000000000000128,-21.678450753757623204
0.333000000000000129,-21.622450806023408632
0.334000000000000130,-21.567502067730686122
0.335000000000000131,-21.513457915535191489
0.336000000000000132,-21.460161897852682245
0.337000000000000133,-21.407449178783544141
0.338000000000000134,-21.355147936414802246
0.339000000000000135,-21.303080711574814643
0.340000000000000135,-21.251065703686144559
0.341000000000000136,-21.198918010902058739
0.342000000000000137,-21.146450812222148841
0.343000000000000138,-21.093476489761961545
0.344000000000000139,-21.039807689799722823
0.345000000000000140,-20.985258321641580892
0.346000000000000141,-20.929644493733725596
0.347000000000000142,-20.872785386807876762
0.348000000000000143,-20.814504064174904840
0.349000000000000143,-20.754628219581423565
0.350000000000000144,-20.692990863316921946
0.351000000000000145,-20.629430947504893368
0.352000000000000146,-20.563793931732003983
0.353000000000000147,-20.495932290365566075
0.354000000000000148,-20.425705963082478434
0.355000000000000149,-20.352982750283636904
0.356000000000000150,-20.277638655197943507
0.357000000000000151,-20.199558174590194426
0.358000000000000151,-20.118634540079234796
0.359000000000000152,-20.034769912147055493
0.360000000000000153,-19.947875528978368465
0.361000000000000154,-19.857871812313305782
0.362000000000000155,-19.764688432525893802
0.363000000000000156,-19.668264335157754630
0.364000000000000157,-19.568547731141471502
0.365000000000000158,-19.465496052943262129
0.366000000000000159,-19.359075878838684304
0.367000000000000159,-19.249262827511678609
0.368000000000000160,-19.136041425135339011
0.369000000000000161,-19.019404947053935473
0.370000000000000162,-18.899355236140657155
0.371000000000000163,-18.775902499855224193
0.372000000000000164,-18.649065087969812993
0.373000000000000165,-18.518869252873098930
0.374000000000000166,-18.385348894298644495
0.375000000000000167,-18.248545290258782359
0.376000000000000167,-18.108506815896980413
0.377000000000000168,-17.965288651901751393
0.378000000000000169,-17.818952484054211283
0.379000000000000170,-17.669566195409366571
0.380000000000000171,-17.517203552538330058
0.381000000000000172,-17.361943887186420454
0.382000000000000173,-17.203871774628844094
0.383000000000000174,-17.043076709934460666
0.384000000000000175,-16.879652783275723493
0.385000000000000175,-16.713698355353287184
0.386000000000000176,-16.545315733934113922
0.387000000000000177,-16.374610852434166475
0.388000000000000178,-16.201692951410450405
0.389000000000000179,-16.026674263762473061
0.390000000000000180,-15.849669704380394464
0.391000000000000181,-15.670796564916074090
0.392000000000000182,-15.490174214294560429
0.393000000000000183,-15.307923805526161942
0.394000000000000183,-15.124167989324984518
0.395000000000000184,-14.939030634986982804
0.396000000000000185,-14.752636558929921762
0.397000000000000186,-14.565111261249843011
0.398000000000000187,-14.376580670602313816
0.399000000000000188,-14.187170897672865877
0.400000000000000189,-13.997007997459729012
0.401000000000000190,-13.806217740552037654
0.402000000000000191,-13.614925393549977883
0.403000000000000191,-13.423255508737469199
0.404000000000000192,-13.231331723085443031
0.405000000000000193,-13.039276566632295840
0.406000000000000194,-12.847211280259164923
0.407000000000000195,-12.655255642850590903
0.408000000000000196,-12.463527807805421688
0.409000000000000197,-12.272144148839887023
0.410000000000000198,-12.081219115002658882
0.411000000000000199,-11.890865094801815971
0.412000000000000199,-11.701192289325209828
0.413000000000000200,-11.512308594219117452
0.414000000000000201,-11.324319490374522346
0.415000000000000202,-11.137327943156572374
0.416000000000000203,-10.951434310000621508
0.417000000000000204,-10.766736256186572263
0.418000000000000205,-10.583328678593950656
0.419000000000000206,-10.401303637231151811
0.420000000000000207,-10.220750294324641771
0.421000000000000207,-10.041754860748046241
0.422000000000000208,-9.864400549564726006
0.423000000000000209,-9.688767536453886109
0.424000000000000210,-9.514932926786071832
0.425000000000000211,-9.342970729111380379
0.426000000000000212,-9.172951834821997608
0.427000000000000213,-9.004944003749091763
0.428000000000000214,-8.839011855454112165
0.429000000000000214,-8.675216865974265446
0.430000000000000215,-8.513617369782958022
0.431000000000000216,-8.354268566727492740
0.432000000000000217,-8.197222533707613223
0.433000000000000218,-8.042528240861445354
0.434000000000000219,-7.890231572027673224
0.435000000000000220,-7.740375349256280124
0.436000000000000221,-7.592999361143317749
0.437000000000000222,-7.448140394769365180
0.438000000000000222,-7.305832271025278324
0.439000000000000223,-7.166105883113248254
0.440000000000000224,-7.028989238015775243
0.441000000000000225,-6.894507500729976535
0.442000000000000226,-6.762683041069924350
0.443000000000000227,-6.633535482844244768
0.444000000000000228,-6.507081755222218433
0.445000000000000229,-6.383336146106408648
0.446000000000000230,-6.262310357335706179
0.447000000000000230,-6.144013561547977176
0.448000000000000231,-6.028452460537224944
0.449000000000000232,-5.915631344945707859
0.450000000000000233,-5.805552155137141845
0.451000000000000234,-5.698214543102687379
0.452000000000000235,-5.593615935257134630
0.453000000000000236,-5.491751595988054291
0.454000000000000237,-5.392614691826685736
0.455000000000000238,-5.296196356114222681
0.456000000000000238,-5.202485754043229882
0.457000000000000239,-5.111470147958721455
0.458000000000000240,-5.023134962809332471
0.459000000000000241,-4.937463851643558499
0.460000000000000242,-4.854438761051879325
0.461000000000000243,-4.774039996459991997
0.462000000000000244,-4.696246287183805102
0.463000000000000245,-4.621034851161246237
0.464000000000000246,-4.548381459281094941
0.465000000000000246,-4.478260499233297054
0.466000000000000247,-4.410645038809920315
0.467000000000000248,-4.345506888590157324
0.468000000000000249,-4.282816663947244251
0.469000000000000250,-4.222543846319001482
0.470000000000000251,-4.164656843688019805
0.471000000000000252,-4.109123050221123563
0.472000000000000253,-4.055908905021849975
0.473000000000000254,-4.004979949952911511
0.474000000000000254,-3.956300886489501956
0.475000000000000255,-3.909835631567509573
0.476000000000000256,-3.865547372393952852
0.477000000000000257,-3.823398620190294306
0.478000000000000258,-3.783351262842086449
0.479000000000000259,-3.745366616431455409
0.480000000000000260,-3.709405475631756044
0.481000000000000261,-3.675428162946241084
0.482000000000000262,-3.643394576775404126
0.483000000000000262,-3.613264238299836340
0.484000000000000263,-3.584996337168020908
0.485000000000000264,-3.558549775980517804
0.486000000000000265,-3.533883213564374959
0.487000000000000266,-3.510955107033306710
0.488000000000000267,-3.489723752631361808
0.489000000000000268,-3.470147325359627555
0.490000000000000269,-3.452183917386953738
0.491000000000000270,-3.435791575247799212
0.492000000000000270,-3.420928335831316502
0.493000000000000271,-3.407552261167762886
0.494000000000000272,-3.395621472019233700
0.495000000000000273,-3.385094180283398480
0.496000000000000274,-3.375928720219845580
0.497000000000000275,-3.368083578509873721
0.498000000000000276,-3.361517423161740847
0.499000000000000277,-3.356189131274081028
0.500000000000000222,-3.352057815671454222
0.501000000000000334,-3.349082850426507552
0.502000000000000224,-3.347223895284309858
0.503000000000000336,-3.346440919004845860
0.504000000000000226,-3.346694221640571065
0.505000000000000338,-3.347944455766331373
0.506000000000000227,-3.350152646679640522
0.507000000000000339,-3.353280211589630966
0.508000000000000229,-3.357288977813590147
0.509000000000000341,-3.362141200000325458
0.510000000000000231,-3.367799576399865380
0.511000000000000343,-3.374227264199428422
0.512000000000000233,-3.381387893945710488
0.513000000000000345,-3.389245583073877022
0.514000000000000234,-3.397764948563770648
0.515000000000000346,-3.406911118743893407
0.516000000000000236,-3.416649744263967392
0.517000000000000348,-3.426947008256886029
0.518000000000000238,-3.437769635710824279
0.519000000000000350,-3.449084902072467429
0.520000000000000240,-3.460860641102026847
0.521000000000000352,-3.473065252001015235
0.522000000000000242,-3.485667705833235708
0.523000000000000353,-3.498637551259892398
0.524000000000000243,-3.511944919608962490
0.525000000000000355,-3.525560529299486490
0.526000000000000245,-3.539455689640713221
0.527000000000000357,-3.553602304026293179
0.528000000000000247,-3.567972872543176521
0.529000000000000359,-3.582540494014927468
0.530000000000000249,-3.597278867498749033
0.531000000000000361,-3.612162293255411605
0.532000000000000250,-3.627165673210914321
0.533000000000000362,-3.642264510928597154
0.534000000000000252,-3.657434911109831432
0.535000000000000364,-3.672653578641734473
0.536000000000000254,-3.687897817209239371
0.537000000000000366,-3.703145527489355882
0.538000000000000256,-3.718375204944604828
0.539000000000000368,-3.733565937232550702
0.540000000000000258,-3.748697401247957917
0.541000000000000369,-3.763749859813847021
0.542000000000000259,-3.778704158037247574
0.543000000000000371,-3.793541719345321361
0.544000000000000261,-3.808244541217066903
0.545000000000000373,-3.822795190625491557
0.546000000000000263,-3.837176799204812028
0.547000000000000375,-3.851373058157014917
0.548000000000000265,-3.865368212911545864
0.549000000000000377,-3.879147057551833200
0.550000000000000266,-3.892694929021720096
0.551000000000000378,-3.905997701124888977
0.552000000000000268,-3.919041778329658943
0.553000000000000380,-3.931814089391520106
0.554000000000000270,-3.944302080805229593
0.555000000000000382,-3.956493710098080818
0.556000000000000272,-3.968377438975584148
0.557000000000000384,-3.979942226330434263
0.558000000000000274,-3.991177521125494732
0.559000000000000385,-4.002073255160925491
0.560000000000000275,-4.012619835735554474
0.561000000000000387,-4.022808138212126572
0.562000000000000277,-4.032629498495708731
0.563000000000000389,-4.042075705434470478
0.564000000000000279,-4.051138993151440104
0.565000000000000391,-4.059812033315838065
0.566000000000000281,-4.068087927362030953
0.567000000000000393,-4.075960198664165368
0.568000000000000282,-4.083422784673953920
0.569000000000000394,-4.090470029029063426
0.570000000000000284,-4.097096673639072151
0.571000000000000396,-4.103297850755954101
0.572000000000000286,-4.109069075035508334
0.573000000000000398,-4.114406235596087313
0.574000000000000288,-4.119305588080644398
0.575000000000000400,-4.123763746727995283
0.576000000000000290,-4.127777676458697087
0.577000000000000401,-4.131344684981036686
0.578000000000000291,-4.134462414922131401
0.579000000000000403,-4.137128835989050124
0.580000000000000293,-4.139342237164617799
0.581000000000000405,-4.141101218942361939
0.582000000000000295,-4.142404685604804904
0.583000000000000407,-4.143251837549192018
0.584000000000000297,-4.143642163664411626
0.585000000000000409,-4.143575433762864968
0.586000000000000298,-4.143051691070651188
0.587000000000000410,-4.142071244779370609
0.588000000000000300,-4.140634662662661114
0.589000000000000412,-4.138742763760385301
0.590000000000000302,-4.136396611133184464
0.591000000000000414,-4.133597504690074587
0.592000000000000304,-4.130346974091449574
0.593000000000000416,-4.126646771729765462
0.594000000000000306,-4.122498865790107381
0.595000000000000417,-4.117905433392559544
0.596000000000000307,-4.112868853818250514
0.597000000000000419,-4.107391701820754193
0.598000000000000309,-4.101476741024510098
0.599000000000000421,-4.095126917411553435
0.600000000000000311,-4.088345352898079987
0.601000000000000423,-4.081135339001879636
0.602000000000000313,-4.073500330601826036
0.603000000000000425,-4.065443939790378991
0.604000000000000314,-4.056969929819989495
0.605000000000000426,-4.048082209144110877
0.606000000000000316,-4.038784825553611846
0.607000000000000428,-4.029081960408989360
0.608000000000000318,-4.018977922969069638
0.609000000000000430,-4.008477144816398940
0.610000000000000320,-3.997584174379757993
0.611000000000000432,-3.986303671553948824
0.612000000000000322,-3.974640402417056073
0.613000000000000433,-3.962599234045192986
0.614000000000000323,-3.950185129424788499
0.615000000000000435,-3.937403142462295058
0.616000000000000325,-3.924258413091178177
0.617000000000000437,-3.910756162476034525
0.618000000000000327,-3.896901688313508139
0.619000000000000439,-3.882700360229692116
0.620000000000000329,-3.868157615273702277
0.621000000000000441,-3.853278953506878768
0.622000000000000330,-3.838069933687251911
0.623000000000000442,-3.822536169048624366
0.624000000000000332,-3.806683323173791766
0.625000000000000444,-3.790517105961200173
0.626000000000000334,-3.774043269684467905
0.627000000000000446,-3.757267605143951528
0.628000000000000336,-3.740195937909752466
0.629000000000000448,-3.722834124655275190
0.630000000000000338,-3.705188049580620202
0.631000000000000449,-3.687263620924897900
0.632000000000000339,-3.669066767566700804
0.633000000000000451,-3.650603435711702982
0.634000000000000341,-3.631879585666611288
0.635000000000000453,-3.612901188698438570
0.636000000000000343,-3.593674223978163607
0.637000000000000455,-3.574204675607800308
0.638000000000000345,-3.554498529729873901
0.639000000000000457,-3.534561771718243595
0.640000000000000346,-3.514400383449343135
0.641000000000000458,-3.494020340652644219
0.642000000000000348,-3.473427610339434146
0.643000000000000460,-3.452628148308670486
0.644000000000000350,-3.431627896729027238
0.645000000000000462,-3.410432781795804225
0.646000000000000352,-3.389048711461835062
0.647000000000000464,-3.367481573241069892
0.648000000000000353,-3.345737232083937585
0.649000000000000465,-3.323821528323094299
0.650000000000000355,-3.301740275688776372
0.651000000000000467,-3.279499259392258725
0.652000000000000357,-3.257104234276643862
0.653000000000000469,-3.234560923033527935
0.654000000000000359,-3.211875014484718349
0.655000000000000471,-3.189052161927604878
0.656000000000000361,-3.166097981543258388
0.657000000000000473,-3.143018050865973301
0.658000000000000362,-3.119817907313277683
0.659000000000000474,-3.096503046775150203
