# Cu111_PRO
# h[nm],U(h)[kJ/mol]
0.149999999999999994,78.837617642212364899
0.150999999999999995,72.805922369012733952
0.151999999999999996,67.920907502228075714
0.152999999999999997,63.342421098482262209
0.153999999999999998,58.775289427118842411
0.154999999999999999,54.175624750626163006
0.156000000000000000,49.593887830085449764
0.157000000000000001,45.097932799218462208
0.158000000000000002,40.740788740940743651
0.159000000000000002,36.551860491255794727
0.160000000000000003,32.539095755644012797
0.161000000000000004,28.695192500998746965
0.162000000000000005,25.004276147042453715
0.163000000000000006,21.447441629375525451
0.164000000000000007,18.006648883304201547
0.165000000000000008,14.667020782862497441
0.166000000000000009,11.417838667373175099
0.167000000000000010,8.252600543839665903
0.168000000000000010,5.168486137050881446
0.169000000000000011,2.165512013965654070
0.170000000000000012,-0.754412095392708926
0.171000000000000013,-3.588382755697494098
0.172000000000000014,-6.333272246373962133
0.173000000000000015,-8.986326354824836216
0.174000000000000016,-11.545580690963728188
0.175000000000000017,-14.010106639020913022
0.176000000000000018,-16.380110411370289114
0.177000000000000018,-18.656914534379556159
0.178000000000000019,-20.842852375294746992
0.179000000000000020,-22.941104581117638617
0.180000000000000021,-24.955502773120411319
0.181000000000000022,-26.890321437866049337
0.182000000000000023,-28.750074322855617481
0.183000000000000024,-30.539327210397896550
0.184000000000000025,-32.262534966821469595
0.185000000000000026,-33.923907380471497675
0.186000000000000026,-35.527305556921106700
0.187000000000000027,-37.076168519490714459
0.188000000000000028,-38.573468116082551660
0.189000000000000029,-40.021689287340777241
0.190000000000000030,-41.422832125337698983
0.191000000000000031,-42.778431864932180417
0.192000000000000032,-44.089592925000232526
0.193000000000000033,-45.357033285155026192
0.194000000000000034,-46.581135786048974978
0.195000000000000034,-47.762003328465702623
0.196000000000000035,-48.899515378304272417
0.197000000000000036,-49.993383630200902701
0.198000000000000037,-51.043205118686117316
0.199000000000000038,-52.048511475892077272
0.200000000000000039,-53.008813407924982641
0.201000000000000040,-53.923639791624282225
0.202000000000000041,-54.792571076603870495
0.203000000000000042,-55.615266913961605155
0.204000000000000042,-56.391488124567672457
0.205000000000000043,-57.121113269471706531
0.206000000000000044,-57.804150196650333271
0.207000000000000045,-58.440743016467834536
0.208000000000000046,-59.031175007445952474
0.209000000000000047,-59.575867978786675394
0.210000000000000048,-60.075378620909859251
0.211000000000000049,-60.530392364083979828
0.212000000000000050,-60.941715241693408700
0.213000000000000050,-61.310264222020329328
0.214000000000000051,-61.637056433428313085
0.215000000000000052,-61.923197664895347714
0.216000000000000053,-62.169870478934193159
0.217000000000000054,-62.378322228673255267
0.218000000000000055,-62.549853226524305683
0.219000000000000056,-62.685805269415823204
0.220000000000000057,-62.787550685747170576
0.221000000000000058,-62.856482032511323155
0.222000000000000058,-62.894002537765231864
0.223000000000000059,-62.901517353947632216
0.224000000000000060,-62.880425661492708400
0.225000000000000061,-62.832113639700764907
0.226000000000000062,-62.757948302759949399
0.227000000000000063,-62.659272182976508248
0.228000000000000064,-62.537398830424038465
0.229000000000000065,-62.393609088113713312
0.230000000000000066,-62.229148094136725433
0.231000000000000066,-62.045222956769784162
0.232000000000000067,-61.843001044986920078
0.233000000000000068,-61.623608834925981625
0.234000000000000069,-61.388131252366676449
0.235000000000000070,-61.137611451957681652
0.236000000000000071,-60.873050975565476506
0.237000000000000072,-60.595410234519604842
0.238000000000000073,-60.305609263517133911
0.239000000000000073,-60.004528697372634838
0.240000000000000074,-59.693010925522798971
0.241000000000000075,-59.371861383101176557
0.242000000000000076,-59.041849941384555223
0.243000000000000077,-58.703712364402825585
0.244000000000000078,-58.358151802420458409
0.245000000000000079,-58.005840296790935895
0.246000000000000080,-57.647420274310057664
0.247000000000000081,-57.283506012614168412
0.248000000000000081,-56.914685061365865693
0.249000000000000082,-56.541519606920758179
0.250000000000000111,-56.164547770870775878
0.251000000000000112,-55.784284835303949990
0.252000000000000113,-55.401224389812909976
0.253000000000000114,-55.015839397226272922
0.254000000000000115,-54.628583176740178828
0.255000000000000115,-54.239890304599967408
0.256000000000000116,-53.850177433738259936
0.257000000000000117,-53.459844034830062753
0.258000000000000118,-53.069273062090118742
0.259000000000000119,-52.678831547832956517
0.260000000000000120,-52.288871130351651573
0.261000000000000121,-51.899728520067341719
0.262000000000000122,-51.511725909170273496
0.263000000000000123,-51.125171330130847025
0.264000000000000123,-50.740358968518670224
0.265000000000000124,-50.357569435542259839
0.266000000000000125,-49.977070005625407134
0.267000000000000126,-49.599114824177888750
0.268000000000000127,-49.223945090509765521
0.269000000000000128,-48.851789220590987384
0.270000000000000129,-48.482862994076427299
0.271000000000000130,-48.117369689713903824
0.272000000000000131,-47.755500212931366377
0.273000000000000131,-47.397433219069199595
0.274000000000000132,-47.043335235387026216
0.275000000000000133,-46.693360784640113081
0.276000000000000134,-46.347652512687169235
0.277000000000000135,-46.006341322268518468
0.278000000000000136,-45.669546514778986079
0.279000000000000137,-45.337375941559599823
0.280000000000000138,-45.009926165945543630
0.281000000000000139,-44.687282637037981203
0.282000000000000139,-44.369519875914726015
0.283000000000000140,-44.056701674759651155
0.284000000000000141,-43.748881309174620924
0.285000000000000142,-43.446101763740188062
0.286000000000000143,-43.148395970711717951
0.287000000000000144,-42.855787061576926078
0.288000000000000145,-42.568288631058436522
0.289000000000000146,-42.285905013018307841
0.290000000000000147,-42.008631567613733182
0.291000000000000147,-41.736454978959201867
0.292000000000000148,-41.469353562473450836
0.293000000000000149,-41.207297581025407851
0.294000000000000150,-40.950249568943050349
0.295000000000000151,-40.698164662912184042
0.296000000000000152,-40.450990938764356031
0.297000000000000153,-40.208669753139012926
0.298000000000000154,-39.971136088997582192
0.299000000000000155,-39.738318903970458962
0.300000000000000155,-39.510141480528261582
0.301000000000000156,-39.286521776985843246
0.302000000000000157,-39.067372778371549202
0.303000000000000158,-38.852602846223128097
0.304000000000000159,-38.642116066405371555
0.305000000000000160,-38.435812594082378268
0.306000000000000161,-38.233588995018088497
0.307000000000000162,-38.035338582423079856
0.308000000000000163,-37.840951748610685001
0.309000000000000163,-37.650316290773666594
0.310000000000000164,-37.463317730241300296
0.311000000000000165,-37.279839624625637384
0.312000000000000166,-37.099763872316081859
0.313000000000000167,-36.922971008830650419
0.314000000000000168,-36.749340494581730354
0.315000000000000169,-36.578750993662971780
0.316000000000000170,-36.411080643311230176
0.317000000000000171,-36.246207313744996270
0.318000000000000171,-36.084008858124818175
0.319000000000000172,-35.924363352426510687
0.320000000000000173,-35.767149325058724685
0.321000000000000174,-35.612245976098328981
0.322000000000000175,-35.459533386054339132
0.323000000000000176,-35.308892714109262556
0.324000000000000177,-35.160206385820359287
0.325000000000000178,-35.013358270297132435
0.326000000000000179,-34.868233846901446782
0.327000000000000179,-34.724720361546019376
0.328000000000000180,-34.582706972693635805
0.329000000000000181,-34.442084887184414299
0.330000000000000182,-34.302747486041013758
0.331000000000000183,-34.164590440423303619
0.332000000000000184,-34.027511817922338366
0.333000000000000185,-33.891412179401342541
0.334000000000000186,-33.756194666606702981
0.335000000000000187,-33.621765080785621649
0.336000000000000187,-33.488031952559531135
0.337000000000000188,-33.354906603312635127
0.338000000000000189,-33.222303198364315335
0.339000000000000190,-33.090138792201521767
0.340000000000000191,-32.958333366053274460
0.341000000000000192,-32.826809858095529648
0.342000000000000193,-32.695494186576439688
0.343000000000000194,-32.564315266156775408
0.344000000000000195,-32.433205017759995314
0.345000000000000195,-32.302098372228265077
0.346000000000000196,-32.170933268079416223
0.347000000000000197,-32.039650643659079776
0.348000000000000198,-31.908194423979871601
0.349000000000000199,-31.776511502536646248
0.350000000000000200,-31.644551718383610250
0.351000000000000201,-31.512267828754609411
0.352000000000000202,-31.379615477503325138
0.353000000000000203,-31.246553159635102048
0.354000000000000203,-31.113042182196341656
0.355000000000000204,-30.979046621781161974
0.356000000000000205,-30.844533278909061380
0.357000000000000206,-30.709471629520429303
0.358000000000000207,-30.573833773829427685
0.359000000000000208,-30.437594382767393597
0.360000000000000209,-30.300730642241784807
0.361000000000000210,-30.163222195428517125
0.362000000000000210,-30.025051083307953803
0.363000000000000211,-29.886201683647005467
0.364000000000000212,-29.746660648622185619
0.365000000000000213,-29.606416841270309703
0.366000000000000214,-29.465461270946462946
0.367000000000000215,-29.323787027960076301
0.368000000000000216,-29.181389217553515891
0.369000000000000217,-29.038264893378737952
0.370000000000000218,-28.894412990620725878
0.371000000000000218,-28.749834258908897766
0.372000000000000219,-28.604531195149927925
0.373000000000000220,-28.458507976408789375
0.374000000000000221,-28.311770392957175346
0.375000000000000222,-28.164325781601966980
0.376000000000000223,-28.016182959399365870
0.377000000000000224,-27.867352157853879646
0.378000000000000225,-27.717844957694740771
0.379000000000000226,-27.567674224316181864
0.380000000000000226,-27.416854043962171517
0.381000000000000227,-27.265399660729521258
0.382000000000000228,-27.113327414458730402
0.383000000000000229,-26.960654679575480230
0.384000000000000230,-26.807399804940661880
0.385000000000000231,-26.653582054762118503
0.386000000000000232,-26.499221550615619236
0.387000000000000233,-26.344339214618514688
0.388000000000000234,-26.188956713794482312
0.389000000000000234,-26.033096405663950890
0.390000000000000235,-25.876781285089982987
0.391000000000000236,-25.720034932406111494
0.392000000000000237,-25.562881462848228153
0.393000000000000238,-25.405345477309559499
0.394000000000000239,-25.247452014433797274
0.395000000000000240,-25.089226504058654399
0.396000000000000241,-24.930694722018927223
0.397000000000000242,-24.771882746314780377
0.398000000000000242,-24.612816914649080502
0.399000000000000243,-24.453523783334151886
0.400000000000000244,-24.294030087566273579
0.401000000000000245,-24.134362703064184075
0.402000000000000246,-23.974548609065124083
0.403000000000000247,-23.814614852670338507
0.404000000000000248,-23.654588514530093590
0.405000000000000249,-23.494496675856346712
0.406000000000000250,-23.334366386749636035
0.407000000000000250,-23.174224635825350305
0.408000000000000251,-23.014098321122958168
0.409000000000000252,-22.854014222280916613
0.410000000000000253,-22.693998973958137810
0.411000000000000254,-22.534079040482673406
0.412000000000000255,-22.374280691706498914
0.413000000000000256,-22.214629980045152990
0.414000000000000257,-22.055152718679483570
0.415000000000000258,-21.895874460896777691
0.416000000000000258,-21.736820480547454082
0.417000000000000259,-21.578015753593028592
0.418000000000000260,-21.419484940720970201
0.419000000000000261,-21.261252371001084782
0.420000000000000262,-21.103342026558344457
0.421000000000000263,-20.945777528236469323
0.422000000000000264,-20.788582122226344495
0.423000000000000265,-20.631778667633486890
0.424000000000000266,-20.475389624958527435
0.425000000000000266,-20.319437045464518121
0.426000000000000267,-20.163942561405139742
0.427000000000000268,-20.008927377087733390
0.428000000000000269,-19.854412260745327501
0.429000000000000270,-19.700417537191807327
0.430000000000000271,-19.546963081234707715
0.431000000000000272,-19.394068311820131356
0.432000000000000273,-19.241752186884724551
0.433000000000000274,-19.090033198889766908
0.434000000000000274,-18.938929371012712011
0.435000000000000275,-18.788458253971853651
0.436000000000000276,-18.638636923460396133
0.437000000000000277,-18.489481978165770215
0.438000000000000278,-18.341009538351492836
0.439000000000000279,-18.193235244978410492
0.440000000000000280,-18.046174259342805613
0.441000000000000281,-17.899841263209509634
0.442000000000000282,-17.754250459418219776
0.443000000000000282,-17.609415572941884420
0.444000000000000283,-17.465349852376384376
0.445000000000000284,-17.322066071841259571
0.446000000000000285,-17.179576533271426086
0.447000000000000286,-17.037893069080880082
0.448000000000000287,-16.897027045178951710
0.449000000000000288,-16.756989364321171365
0.450000000000000289,-16.617790469776348772
0.451000000000000290,-16.479440349292552526
0.452000000000000290,-16.341948539344961944
0.453000000000000291,-16.205324129648865039
0.454000000000000292,-16.069575767921840281
0.455000000000000293,-15.934711664879424475
0.456000000000000294,-15.800739599449020290
0.457000000000000295,-15.667666924187486188
0.458000000000000296,-15.535500570887984750
0.459000000000000297,-15.404247056362393664
0.460000000000000298,-15.273912488385827046
0.461000000000000298,-15.144502571790411594
0.462000000000000299,-15.016022614695859971
0.463000000000000300,-14.888477534864662744
0.464000000000000301,-14.761871866170366729
0.465000000000000302,-14.636209765167782493
0.466000000000000303,-14.511495017754176828
0.467000000000000304,-14.387731045911072769
0.468000000000000305,-14.264920914516849848
0.469000000000000306,-14.143067338220202345
0.470000000000000306,-14.022172688365571958
0.471000000000000307,-13.902238999961349819
0.472000000000000308,-13.783267978682687271
0.473000000000000309,-13.665261007900507906
0.474000000000000310,-13.548219155729075425
0.475000000000000311,-13.432143182084544719
0.476000000000000312,-13.317033545747699819
0.477000000000000313,-13.202890411423544137
0.478000000000000314,-13.089713656791769125
0.479000000000000314,-12.977502879541741976
0.480000000000000315,-12.866257404386024277
0.481000000000000316,-12.755976290047104982
0.482000000000000317,-12.646658336211817897
0.483000000000000318,-12.538302090448599557
0.484000000000000319,-12.430905855082695410
0.485000000000000320,-12.324467694025011966
0.486000000000000321,-12.218985439550174021
0.487000000000000322,-12.114456699019964248
0.488000000000000322,-12.010878861548249574
0.489000000000000323,-11.908249104604042401
0.490000000000000324,-11.806564400549218519
0.491000000000000325,-11.705821523107974969
0.492000000000000326,-11.606017053764940528
0.493000000000000327,-11.507147388089501661
0.494000000000000328,-11.409208741983668745
0.495000000000000329,-11.312197157851308305
0.496000000000000330,-11.216108510686527922
0.497000000000000330,-11.120938514079352188
0.498000000000000331,-11.026682726136835200
0.499000000000000332,-10.933336555318142302
0.500000000000000333,-10.840895266181885148
0.501000000000000334,-10.749353985044681536
0.502000000000000335,-10.658707705549545608
0.503000000000000336,-10.568951294143282382
0.504000000000000337,-10.480079495461747996
0.505000000000000338,-10.392086937622417864
0.506000000000000338,-10.304968137423518471
0.507000000000000339,-10.218717505449147254
0.508000000000000340,-10.133329351080018199
0.509000000000000341,-10.048797887409522289
0.510000000000000342,-9.965117236064799044
0.511000000000000343,-9.882281431932794291
0.512000000000000344,-9.800284427791186914
0.513000000000000345,-9.719120098844310718
0.514000000000000346,-9.638782247164146000
0.515000000000000346,-9.559264606036673939
0.516000000000000347,-9.480560844213769656
0.517000000000000348,-9.402664570071186390
0.518000000000000349,-9.325569335672780014
0.519000000000000350,-9.249268640741776792
0.520000000000000351,-9.173755936539418343
0.521000000000000352,-9.099024629651689011
0.522000000000000353,-9.025068085684765151
0.523000000000000353,-8.951879632869873760
0.524000000000000354,-8.879452565578432655
0.525000000000000355,-8.807780147748081490
0.526000000000000356,-8.736855616220667642
0.527000000000000357,-8.666672183992924161
0.528000000000000358,-8.597223043380781249
0.529000000000000359,-8.528501369098330898
0.530000000000000360,-8.460500321252379052
0.531000000000000361,-8.393213048253588937
0.532000000000000361,-8.326632689645276031
0.533000000000000362,-8.260752378850932942
0.534000000000000363,-8.195565245841530455
0.535000000000000364,-8.131064419723726289
0.536000000000000365,-8.067243031250097118
0.537000000000000366,-8.004094215252528954
0.538000000000000367,-7.941611112999920508
0.539000000000000368,-7.879786874481377268
0.540000000000000369,-7.818614660616026057
0.541000000000000369,-7.758087645390709497
0.542000000000000370,-7.698199017926694587
0.543000000000000371,-7.638941984476586455
0.544000000000000372,-7.580309770352736010
0.545000000000000373,-7.522295621788211761
0.546000000000000374,-7.464892807731709823
0.547000000000000375,-7.408094621577411942
0.548000000000000376,-7.351894382831249963
0.549000000000000377,-7.296285438714571470
0.550000000000000377,-7.241261165706478486
0.551000000000000378,-7.186814971026130650
0.552000000000000379,-7.132940294056098196
0.553000000000000380,-7.079630607708031320
0.554000000000000381,-7.026879419731786314
0.555000000000000382,-6.974680273969267041
0.556000000000000383,-6.923026751554059111
0.557000000000000384,-6.871912472058118837
0.558000000000000385,-6.821331094586629895
0.559000000000000385,-6.771276318822188500
0.560000000000000386,-6.721741886019449552
0.561000000000000387,-6.672721579951392812
0.562000000000000388,-6.624209227808345979
0.563000000000000389,-6.576198701050761208
0.564000000000000390,-6.528683916217024041
0.565000000000000391,-6.481658835687225562
0.566000000000000392,-6.435117468404072838
0.567000000000000393,-6.389053870551945735
0.568000000000000393,-6.343462146195177453
0.569000000000000394,-6.298336447876557997
0.570000000000000395,-6.253670977177185009
0.571000000000000396,-6.209459985238514612
0.572000000000000397,-6.165697773247747371
0.573000000000000398,-6.122378692887464169
0.574000000000000399,-6.079497146750496128
0.575000000000000400,-6.037047588720974467
0.576000000000000401,-5.995024524322507986
0.577000000000000401,-5.953422511034419884
0.578000000000000402,-5.912236158576927636
0.579000000000000403,-5.871460129166181652
0.580000000000000404,-5.831089137740041117
0.581000000000000405,-5.791117952155482307
0.582000000000000406,-5.751541393358373888
0.583000000000000407,-5.712354335526650395
0.584000000000000408,-5.673551706187500265
0.585000000000000409,-5.635128486309531226
0.586000000000000409,-5.597079710370601369
0.587000000000000410,-5.559400466402166785
0.588000000000000411,-5.522085896010855421
0.589000000000000412,-5.485131194378047859
0.590000000000000413,-5.448531610238152467
0.591000000000000414,-5.412282445836384071
0.592000000000000415,-5.376379056866635864
0.593000000000000416,-5.340816852390213754
0.594000000000000417,-5.305591294736082375
0.595000000000000417,-5.270697899383312013
0.596000000000000418,-5.236132234826279763
0.597000000000000419,-5.201889922423421631
0.598000000000000420,-5.167966636229977873
0.599000000000000421,-5.134358102815475888
0.600000000000000422,-5.101060101066464902
0.601000000000000423,-5.068068461975111738
0.602000000000000424,-5.035379068414228776
0.603000000000000425,-5.002987854899251019
0.604000000000000425,-4.970890807337760009
0.605000000000000426,-4.939083962767038649
