# Cu111_BGLC-JS
# h[nm],U(h)[kJ/mol]
0.200000000000000011,82.084125164253933349
0.201000000000000012,78.515764964261265391
0.202000000000000013,75.006923375152027234
0.203000000000000014,71.630842103521260356
0.204000000000000015,68.405179175325940832
0.205000000000000016,65.318830208428508399
0.206000000000000016,62.348483232763804551
0.207000000000000017,59.468275119588632549
0.208000000000000018,56.654929673306355653
0.209000000000000019,53.890035939261267117
0.210000000000000020,51.160602840745113440
0.211000000000000021,48.458651689718813316
0.212000000000000022,45.780342712041658615
0.213000000000000023,43.124946341158072016
0.214000000000000024,40.493842814964452259
0.215000000000000024,37.889648266121284337
0.216000000000000025,35.315509948866008472
0.217000000000000026,32.774578603610862615
0.218000000000000027,30.269645729512557608
0.219000000000000028,27.802923014974403770
0.220000000000000029,25.375937003385907076
0.221000000000000030,22.989511871886090688
0.222000000000000031,20.643815326301503177
0.223000000000000032,18.338445946091887606
0.224000000000000032,16.072544110442610332
0.225000000000000033,13.844912432871410601
0.226000000000000034,11.654135148944305911
0.227000000000000035,9.498688992308952805
0.228000000000000036,7.377040697736672037
0.229000000000000037,5.287728381839661651
0.230000000000000038,3.229425702414357779
0.231000000000000039,1.200988934734579683
0.232000000000000040,-0.798512015023165156
0.233000000000000040,-2.769777053491382368
0.234000000000000041,-4.713271849253232837
0.235000000000000042,-6.629234177512280723
0.236000000000000043,-8.517688534412197754
0.237000000000000044,-10.378466982434582988
0.238000000000000045,-12.211234346525078109
0.239000000000000046,-14.015516083450359375
0.240000000000000047,-15.790727373623449026
0.241000000000000048,-17.536202219272503555
0.242000000000000048,-19.251221563522857849
0.243000000000000049,-20.935039663267282606
0.244000000000000050,-22.586908148955981090
0.245000000000000051,-24.206097383245904098
0.246000000000000052,-25.791914886106411586
0.247000000000000053,-27.343720726153172507
0.248000000000000054,-28.860939887281858773
0.249000000000000055,-30.343071707410775417
0.250000000000000056,-31.789696554075465684
0.251000000000000056,-33.200479951779755083
0.252000000000000057,-34.575174410552911297
0.253000000000000058,-35.913619226260678374
0.254000000000000059,-37.215738532987593601
0.255000000000000060,-38.481537888234768729
0.256000000000000061,-39.711099664606628323
0.257000000000000062,-40.904577508749191850
0.258000000000000063,-42.062190111030012929
0.259000000000000064,-43.184214509100385726
0.260000000000000064,-44.270979126158529482
0.261000000000000065,-45.322856721363841359
0.262000000000000066,-46.340257406210923818
0.263000000000000067,-47.323621857369090549
0.264000000000000068,-48.273414834024400477
0.265000000000000069,-49.190119086494355827
0.266000000000000070,-50.074229723091129074
0.267000000000000071,-50.926249084072267692
0.268000000000000071,-51.746682155146480397
0.269000000000000072,-52.536032538447429374
0.270000000000000073,-53.294798986148315123
0.271000000000000074,-54.023472490924881129
0.272000000000000075,-54.722533918215070514
0.273000000000000076,-55.392452157571725024
0.274000000000000077,-56.033682764255424047
0.275000000000000078,-56.646667057442087412
0.276000000000000079,-57.231831637897947473
0.277000000000000079,-57.789588285575788973
0.278000000000000080,-58.320334196175551256
0.279000000000000081,-58.824452515171230971
0.280000000000000082,-59.302313128007121179
0.281000000000000083,-59.754273665999519949
0.282000000000000084,-60.180680688837000503
0.283000000000000085,-60.581871006353864573
0.284000000000000086,-60.958173104370565909
0.285000000000000087,-61.309908641765993309
0.286000000000000087,-61.637393988501443687
0.287000000000000088,-61.940941776987429535
0.288000000000000089,-62.220862441917425656
0.289000000000000090,-62.477465726440584604
0.290000000000000091,-62.711062135260682737
0.291000000000000092,-62.921964317907438158
0.292000000000000093,-63.110488367987969127
0.293000000000000094,-63.276955026677583760
0.294000000000000095,-63.421690781026107686
0.295000000000000095,-63.545028849829975570
0.296000000000000096,-63.647310051836278433
0.297000000000000097,-63.728883552903212717
0.298000000000000098,-63.790107490433307191
0.299000000000000099,-63.831349474925715981
0.300000000000000100,-63.852986969859145461
0.301000000000000101,-63.855407552326674647
0.302000000000000102,-63.839009057895886201
0.303000000000000103,-63.804199614077994340
0.304000000000000103,-63.751397567554910495
0.305000000000000104,-63.681031310950494628
0.306000000000000105,-63.593539015445152529
0.307000000000000106,-63.489368275930836205
0.308000000000000107,-63.368975675697200245
0.309000000000000108,-63.232826277836579720
0.310000000000000109,-63.081393050664850364
0.311000000000000110,-62.915156234486211417
0.312000000000000111,-62.734602656990873015
0.313000000000000111,-62.540225004473334991
0.314000000000000112,-62.332521055903725937
0.315000000000000113,-62.111992886682756421
0.316000000000000114,-61.879146048668744129
0.317000000000000115,-61.634488732790053689
0.318000000000000116,-61.378530920253808745
0.319000000000000117,-61.111783528037811664
0.320000000000000118,-60.834757554011162028
0.321000000000000119,-60.547963226677531168
0.322000000000000119,-60.251909164173369504
0.323000000000000120,-59.947101546789966164
0.324000000000000121,-59.634043306923288696
0.325000000000000122,-59.313233339993146842
0.326000000000000123,-58.985165739516034478
0.327000000000000124,-58.650329059166423917
0.328000000000000125,-58.309205604320709426
0.329000000000000126,-57.962270755249448939
0.330000000000000127,-57.609992323805172987
0.331000000000000127,-57.252829945151574975
0.332000000000000128,-56.891234505789590514
0.333000000000000129,-56.525647608863245352
0.334000000000000130,-56.156501077468966798
0.335000000000000131,-55.784216496451485057
0.336000000000000132,-55.409204792941622486
0.337000000000000133,-55.031865855683250288
0.338000000000000134,-54.652588193000894989
0.339000000000000135,-54.271748629083411686
0.340000000000000135,-53.889712038094806701
0.341000000000000136,-53.506831115477076821
0.342000000000000137,-53.123446185676563402
0.343000000000000138,-52.739885045407106645
0.344000000000000139,-52.356462841457656054
0.345000000000000140,-51.973481981961377585
0.346000000000000141,-51.591232079962253465
0.347000000000000142,-51.209989928048365471
0.348000000000000143,-50.830019502764741901
0.349000000000000143,-50.451571997471475584
0.350000000000000144,-50.074885882278081795
0.351000000000000145,-49.700186989656302217
0.352000000000000146,-49.327688624316891719
0.353000000000000147,-48.957591695923767361
0.354000000000000148,-48.590084873216632388
0.355000000000000149,-48.225344758115895161
0.356000000000000150,-47.863536078393735806
0.357000000000000151,-47.504811897509952701
0.358000000000000151,-47.149313840231094730
0.359000000000000152,-46.797172332676204576
0.360000000000000153,-46.448506855460792053
0.361000000000000154,-46.103426208643107032
0.362000000000000155,-45.762028787210951464
0.363000000000000156,-45.424402865886364111
0.364000000000000157,-45.090626892064008757
0.365000000000000158,-44.760769785742787974
0.366000000000000159,-44.434891245351877842
0.367000000000000159,-44.113042058418400870
0.368000000000000160,-43.795264416068988567
0.369000000000000161,-43.481592230403904864
0.370000000000000162,-43.172051453828942158
0.371000000000000163,-42.866660399477652277
0.372000000000000164,-42.565430061902205239
0.373000000000000165,-42.268364437259279498
0.374000000000000166,-41.975460842261917094
0.375000000000000167,-41.686710231215009514
0.376000000000000167,-41.402097510496425059
0.377000000000000168,-41.121601849889863445
0.378000000000000169,-40.845196990218603617
0.379000000000000170,-40.572851546771573794
0.380000000000000171,-40.304529308053439252
0.381000000000000172,-40.040189529431060578
0.382000000000000173,-39.779787221285850762
0.383000000000000174,-39.523273431320248505
0.384000000000000175,-39.270595520700638303
0.385000000000000175,-39.021697433754781059
0.386000000000000176,-38.776519960974184187
0.387000000000000177,-38.535000995103345645
0.388000000000000178,-38.297075780128572831
0.389000000000000179,-38.062677153007186348
0.390000000000000180,-37.831735778005416648
0.391000000000000181,-37.604180373539762172
0.392000000000000182,-37.379937931440238685
0.393000000000000183,-37.158933928577980055
0.394000000000000183,-36.941092530820768047
0.395000000000000184,-36.726336789301193164
0.396000000000000185,-36.514588829000885539
0.397000000000000186,-36.305770029672551402
0.398000000000000187,-36.099801199138127572
0.399000000000000188,-35.896602739016834960
0.400000000000000189,-35.696094802951641611
0.401000000000000190,-35.498197447415442696
0.402000000000000191,-35.302830775191011980
0.403000000000000191,-35.109915071629423267
0.404000000000000192,-34.919370933802348134
0.405000000000000193,-34.731119392672212598
0.406000000000000194,-34.545082028413254704
0.407000000000000195,-34.361181079023410234
0.408000000000000196,-34.179339542373732286
0.409000000000000197,-33.999481271847798780
0.410000000000000198,-33.821531065729004695
0.411000000000000199,-33.645414750497209866
0.412000000000000199,-33.471059258200703823
0.413000000000000200,-33.298392698071907603
0.414000000000000201,-33.127344422558103076
0.415000000000000202,-32.957845087939659834
0.416000000000000203,-32.789826709710567343
0.417000000000000204,-32.623222712895909581
0.418000000000000205,-32.457967977481928301
0.419000000000000206,-32.293998879134001356
0.420000000000000207,-32.131253325377358010
0.421000000000000207,-31.969670787414816715
0.422000000000000208,-31.809192327753958551
0.423000000000000209,-31.649760623815542004
0.424000000000000210,-31.491319987692481419
0.425000000000000211,-31.333816382226665098
0.426000000000000212,-31.177197433569197926
0.427000000000000213,-31.021412440386029630
0.428000000000000214,-30.866412379869558436
0.429000000000000214,-30.712149910712433609
0.430000000000000215,-30.558579373197847673
0.431000000000000216,-30.405656786556750859
0.432000000000000217,-30.253339843739382786
0.433000000000000218,-30.101587903744682961
0.434000000000000219,-29.950361981648153886
0.435000000000000220,-29.799624736464643604
0.436000000000000221,-29.649340456978926284
0.437000000000000222,-29.499475045673552387
0.438000000000000222,-29.349996000879098546
0.439000000000000223,-29.200872397268703651
0.440000000000000224,-29.052074864814564137
0.441000000000000225,-28.903575566320334644
0.442000000000000226,-28.755348173639919906
0.443000000000000227,-28.607367842688425696
0.444000000000000228,-28.459611187348581751
0.445000000000000229,-28.312056252370791043
0.446000000000000230,-28.164682485362135367
0.447000000000000230,-28.017470707955972387
0.448000000000000231,-27.870403086249304181
0.449000000000000232,-27.723463100592585562
0.450000000000000233,-27.576635514812274153
0.451000000000000234,-27.429906344943269403
0.452000000000000235,-27.283262827545190277
0.453000000000000236,-27.136693387672245592
0.454000000000000237,-26.990187606564624900
0.455000000000000238,-26.843736189124292935
0.456000000000000238,-26.697330931236688656
0.457000000000000239,-26.550964686995410347
0.458000000000000240,-26.404631335884914733
0.459000000000000241,-26.258325749972506458
0.460000000000000242,-26.112043761159078770
0.461000000000000243,-25.965782128534169004
0.462000000000000244,-25.819538505879300772
0.463000000000000245,-25.673311409359921953
0.464000000000000246,-25.527100185444876246
0.465000000000000246,-25.380904979088803941
0.466000000000000247,-25.234726702211432325
0.467000000000000248,-25.088567002504625236
0.468000000000000249,-24.942428232596721926
0.469000000000000250,-24.796313419600757300
0.470000000000000251,-24.650226235071663439
0.471000000000000252,-24.504170965395260851
0.472000000000000253,-24.358152482630380575
0.473000000000000254,-24.212176215822960756
0.474000000000000254,-24.066248122809962950
0.475000000000000255,-23.920374662528690379
0.476000000000000256,-23.774562767845843325
0.477000000000000257,-23.628819818919048146
0.478000000000000258,-23.483153617101859112
0.479000000000000259,-23.337572359402280142
0.480000000000000260,-23.192084613503205048
0.481000000000000261,-23.046699293351899485
0.482000000000000262,-22.901425635324574870
0.483000000000000262,-22.756273174971042295
0.484000000000000263,-22.611251724342810832
0.485000000000000264,-22.466371349907745980
0.486000000000000265,-22.321642351052723541
0.487000000000000266,-22.177075239175234600
0.488000000000000267,-22.032680717363625433
0.489000000000000268,-21.888469660665379024
0.490000000000000269,-21.744453096941324333
0.491000000000000270,-21.600642188303758928
0.492000000000000270,-21.457048213134918058
0.493000000000000271,-21.313682548682347573
0.494000000000000272,-21.170556654226693638
0.495000000000000273,-21.027682054816715151
0.496000000000000274,-20.885070325566516658
0.497000000000000275,-20.742733076508564238
0.498000000000000276,-20.600681937996313309
0.499000000000000277,-20.458928546649655544
0.500000000000000222,-20.317484531835699357
0.501000000000000334,-20.176361502677572446
0.502000000000000224,-20.035571035583313204
0.503000000000000336,-19.895124662286367112
0.504000000000000226,-19.755033858389815293
0.505000000000000338,-19.615310032404856599
0.506000000000000227,-19.475964515275524747
0.507000000000000339,-19.337008550379668037
0.508000000000000229,-19.198453283997743313
0.509000000000000341,-19.060309756239174561
0.510000000000000231,-18.922588892417785189
0.511000000000000343,-18.785301494865500160
0.512000000000000233,-18.648458235175716879
0.513000000000000345,-18.512069646865583650
0.514000000000000234,-18.376146118448424716
0.515000000000000346,-18.240697886905177683
0.516000000000000236,-18.105735031546338121
0.517000000000000348,-17.971267468253330435
0.518000000000000238,-17.837304944090412562
0.519000000000000350,-17.703857032276424377
0.520000000000000240,-17.570933127507423421
0.521000000000000352,-17.438542441619645729
0.522000000000000242,-17.306693999583785626
0.523000000000000353,-17.175396635820426638
0.524000000000000243,-17.044658990827450395
0.525000000000000355,-16.914489508109681992
0.526000000000000245,-16.784896431401705286
0.527000000000000357,-16.655887802174085266
0.528000000000000247,-16.527471457414531386
0.529000000000000359,-16.399655027674167940
0.530000000000000249,-16.272445935370690506
0.531000000000000361,-16.145851393338912061
0.532000000000000250,-16.019878403620840146
0.533000000000000362,-15.894533756485774489
0.534000000000000252,-15.769824029672927068
0.535000000000000364,-15.645755587847565593
0.536000000000000254,-15.522334582263209057
0.537000000000000366,-15.399566950621103700
0.538000000000000256,-15.277458417120161727
0.539000000000000368,-15.156014492688552053
0.540000000000000258,-15.035240475390565962
0.541000000000000369,-14.915141451000234696
0.542000000000000259,-14.795722293735590114
0.543000000000000371,-14.676987667145571237
0.544000000000000261,-14.558942025143332799
0.545000000000000373,-14.441589613178754448
0.546000000000000263,-14.324934469544050586
0.547000000000000375,-14.208980426805251085
0.548000000000000265,-14.093731113354461826
0.549000000000000377,-13.979189955075383978
0.550000000000000266,-13.865360177117432627
0.551000000000000378,-13.752244805771629999
0.552000000000000268,-13.639846670443370513
0.553000000000000380,-13.528168405715897293
0.554000000000000270,-13.417212453499811176
0.555000000000000382,-13.306981065262684538
0.556000000000000272,-13.197476304334500696
0.557000000000000384,-13.088700048283172350
0.558000000000000274,-12.980653991356291499
0.559000000000000385,-12.873339646983520623
0.560000000000000275,-12.766758350336091965
0.561000000000000387,-12.660911260938272349
0.562000000000000277,-12.555799365327191097
0.563000000000000389,-12.451423479756531520
0.564000000000000279,-12.347784252940527949
0.565000000000000391,-12.244882168834084979
0.566000000000000281,-12.142717549445762870
0.567000000000000393,-12.041290557679582562
0.568000000000000282,-11.940601200202891619
0.569000000000000394,-11.840649330336178835
0.570000000000000284,-11.741434650962512265
0.571000000000000396,-11.642956717452738857
0.572000000000000286,-11.545214940604273224
0.573000000000000398,-11.448208589589842887
0.574000000000000288,-11.351936794914216478
0.575000000000000400,-11.256398551375720984
0.576000000000000290,-11.161592721030459074
0.577000000000000401,-11.067518036156428707
0.578000000000000291,-10.974173102215697639
0.579000000000000403,-10.881556400811879470
0.580000000000000293,-10.789666292641403089
0.581000000000000405,-10.698501020435898567
0.582000000000000295,-10.608058711894519988
0.583000000000000407,-10.518337382603554886
0.584000000000000297,-10.429334938942327327
0.585000000000000409,-10.341049180973074684
0.586000000000000298,-10.253477805313865545
0.587000000000000410,-10.166618407992285000
0.588000000000000300,-10.080468487279336642
0.589000000000000412,-9.995025446501317745
0.590000000000000302,-9.910286596829152472
0.591000000000000414,-9.826249160043442288
0.592000000000000304,-9.742910271274471512
0.593000000000000416,-9.660266981715693646
0.594000000000000306,-9.578316261310186874
0.595000000000000417,-9.497055001408629238
0.596000000000000307,-9.416480017398360047
0.597000000000000419,-9.336588051302280533
0.598000000000000309,-9.257375774347268660
0.599000000000000421,-9.178839789500958801
0.600000000000000311,-9.100976633976646468
0.601000000000000423,-9.023782781705257605
0.602000000000000313,-8.947254645774396664
0.603000000000000425,-8.871388580833260207
0.604000000000000314,-8.796180885463762422
0.605000000000000426,-8.721627804516604243
0.606000000000000316,-8.647725531412765676
0.607000000000000428,-8.574470210409250726
0.608000000000000318,-8.501857938829605388
0.609000000000000430,-8.429884769258212174
0.610000000000000320,-8.358546711698823017
0.611000000000000432,-8.287839735696495680
0.612000000000000322,-8.217759772423425702
0.613000000000000433,-8.148302716727997108
0.614000000000000323,-8.079464429147442672
0.615000000000000435,-8.011240737883648322
0.616000000000000325,-7.943627440742477397
0.617000000000000437,-7.876620307036252377
0.618000000000000327,-7.810215079449752018
0.619000000000000439,-7.744407475869482305
0.620000000000000329,-7.679193191176591604
0.621000000000000441,-7.614567899003292339
0.622000000000000330,-7.550527253453131138
0.623000000000000442,-7.487066890784997319
0.624000000000000332,-7.424182431061366216
0.625000000000000444,-7.361869479760639656
0.626000000000000334,-7.300123629354061450
0.627000000000000446,-7.238940460847214986
0.628000000000000336,-7.178315545286506172
0.629000000000000448,-7.118244445230757833
0.630000000000000338,-7.058722716188370327
0.631000000000000449,-6.999745908019997742
0.632000000000000339,-6.941309566307493739
0.633000000000000451,-6.883409233688970730
0.634000000000000341,-6.826040451160690914
0.635000000000000453,-6.769198759345782079
0.636000000000000343,-6.712879699730395444
0.637000000000000455,-6.657078815867448540
0.638000000000000345,-6.601791654548510913
0.639000000000000457,-6.547013766943886814
0.640000000000000346,-6.492740709711728009
0.641000000000000458,-6.438968046076039897
0.642000000000000348,-6.385691346874454055
0.643000000000000460,-6.332906191575678356
0.644000000000000350,-6.280608169267568819
0.645000000000000462,-6.228792879615626887
0.646000000000000352,-6.177455933792894704
0.647000000000000464,-6.126592955381132910
0.648000000000000353,-6.076199581244269510
0.649000000000000465,-6.026271462373827603
0.650000000000000355,-5.976804264707564762
0.651000000000000467,-5.927793669920951025
0.652000000000000357,-5.879235376192549545
0.653000000000000469,-5.831125098943248375
0.654000000000000359,-5.783458571550151639
0.655000000000000471,-5.736231546035194917
