# Cu111_VALSCA-AC
# h[nm],U(h)[kJ/mol]
0.149999999999999994,118.467340207213197800
0.150999999999999995,115.851918200683286386
0.151999999999999996,112.266994065957916860
0.152999999999999997,108.485845000969703733
0.153999999999999998,104.865744741921346872
0.154999999999999999,101.522690575494053178
0.156000000000000000,98.447292684877567126
0.157000000000000001,95.577358861505729237
0.158000000000000002,92.839977907089675568
0.159000000000000002,90.173102427684085569
0.160000000000000003,87.534100183188911615
0.161000000000000004,84.900622871810043080
0.162000000000000005,82.267458060191685831
0.163000000000000006,79.641750754001265022
0.164000000000000007,77.038046767178826713
0.165000000000000008,74.473954578257263393
0.166000000000000009,71.966782945673926974
0.167000000000000010,69.531233343088302945
0.168000000000000010,67.178064011279730039
0.169000000000000011,64.913560322015598558
0.170000000000000012,62.739616924480841931
0.171000000000000013,60.654240678359997219
0.172000000000000014,58.652305339846222410
0.173000000000000015,56.726419538715660451
0.174000000000000016,54.867802352566947377
0.175000000000000017,53.067091828016046406
0.176000000000000018,51.315038964614188899
0.177000000000000018,49.603062018297443103
0.178000000000000019,47.923653335297544231
0.179000000000000020,46.270643610746574836
0.180000000000000021,44.639337055423652600
0.181000000000000022,43.026536138032987822
0.182000000000000023,41.430477053032333856
0.183000000000000024,39.850697505137624432
0.184000000000000025,38.287857384208209055
0.185000000000000026,36.743530920154825026
0.186000000000000026,35.219986355307149495
0.187000000000000027,33.719966361611724892
0.188000000000000028,32.246479593524526308
0.189000000000000029,30.802611068377579784
0.190000000000000030,29.391356612360596046
0.191000000000000031,28.015484465488476928
0.192000000000000032,26.677425332015296533
0.193000000000000033,25.379190697122545828
0.194000000000000034,24.122318091662968698
0.195000000000000034,22.907841147553515526
0.196000000000000035,21.736281713176211383
0.197000000000000036,20.607660953476198529
0.198000000000000037,19.521526205256790831
0.199000000000000038,18.476990357646453589
0.200000000000000039,17.472780646636472568
0.201000000000000040,16.507293960163195834
0.202000000000000041,15.578656019484824924
0.203000000000000042,14.684782110605841154
0.204000000000000042,13.823437367152241251
0.205000000000000043,12.992294937997920456
0.206000000000000044,12.188990697028629029
0.207000000000000045,11.411173459645031159
0.208000000000000046,10.656549954471941533
0.209000000000000047,9.922924054990971854
0.210000000000000048,9.208230002006539294
0.211000000000000049,8.510559543041608777
0.212000000000000050,7.828183079151758150
0.213000000000000050,7.159565044367518283
0.214000000000000051,6.503373849789777061
0.215000000000000052,5.858486805502232109
0.216000000000000053,5.223990491436774519
0.217000000000000054,4.599177085788058505
0.218000000000000055,3.983537179215561164
0.219000000000000056,3.376749607538504616
0.220000000000000057,2.778668827446383993
0.221000000000000058,2.189310341291293316
0.222000000000000058,1.608834650466215432
0.223000000000000059,1.037530184183834026
0.224000000000000060,0.475795613396288175
0.225000000000000061,-0.075878080327176731
0.226000000000000062,-0.616925452602843150
0.227000000000000063,-1.146724074226246337
0.228000000000000064,-1.664611394230848473
0.229000000000000065,-2.169900782992498556
0.230000000000000066,-2.661896588615475068
0.231000000000000066,-3.139908075793742537
0.232000000000000067,-3.603262149672755932
0.233000000000000068,-4.051314797729801853
0.234000000000000069,-4.483461210218002257
0.235000000000000070,-4.899144564237809973
0.236000000000000071,-5.297863478028006057
0.237000000000000072,-5.679178160680501186
0.238000000000000073,-6.042715298291811976
0.239000000000000073,-6.388171730715687779
0.240000000000000074,-6.715316983748472524
0.241000000000000075,-7.023994729942725890
0.242000000000000076,-7.314123257505825038
0.243000000000000077,-7.585695031096808982
0.244000000000000078,-7.838775430987913850
0.245000000000000079,-8.073500758204691152
0.246000000000000080,-8.290075593090518780
0.247000000000000081,-8.488769593441867656
0.248000000000000081,-8.669913816100038417
0.249000000000000082,-8.833896642826072565
0.250000000000000111,-8.981159387576578723
0.251000000000000112,-9.112191658075177614
0.252000000000000113,-9.227526539962173757
0.253000000000000114,-9.327735666912927215
0.254000000000000115,-9.413424235045695809
0.255000000000000115,-9.485226014775374637
0.256000000000000116,-9.543798408090472307
0.257000000000000117,-9.589817594099594444
0.258000000000000118,-9.623973800667055656
0.259000000000000119,-9.646966735081523581
0.260000000000000120,-9.659501202014739718
0.261000000000000121,-9.662282932558955650
0.262000000000000122,-9.656014643906274841
0.263000000000000123,-9.641392345267107089
0.264000000000000123,-9.619101901930591225
0.265000000000000124,-9.589815865953728036
0.266000000000000125,-9.554190578831693870
0.267000000000000126,-9.512863548647239043
0.268000000000000127,-9.466451101619764330
0.269000000000000128,-9.415546305667049864
0.270000000000000129,-9.360717161546702414
0.271000000000000130,-9.302505055349399754
0.272000000000000131,-9.241423464560869050
0.273000000000000131,-9.177956908580732431
0.274000000000000132,-9.112560133471095725
0.275000000000000133,-9.045657519792017709
0.276000000000000134,-8.977642701649857671
0.277000000000000135,-8.908878384525014127
0.278000000000000136,-8.839696349042190704
0.279000000000000137,-8.770397627586024925
0.280000000000000138,-8.701252840533866717
0.281000000000000139,-8.632502678862246981
0.282000000000000139,-8.564358519972117278
0.283000000000000140,-8.497003163757529620
0.284000000000000141,-8.430591676202260132
0.285000000000000142,-8.365252328117792402
0.286000000000000143,-8.301087617024114351
0.287000000000000144,-8.238175360612446596
0.288000000000000145,-8.176569850707981146
0.289000000000000146,-8.116303057162070900
0.290000000000000147,-8.057385871640743602
0.291000000000000147,-7.999809381832146293
0.292000000000000148,-7.943546167164493355
0.293000000000000149,-7.888551607701787205
0.294000000000000150,-7.834765198462510405
0.295000000000000151,-7.782111861982970780
0.296000000000000152,-7.730503252516223611
0.297000000000000153,-7.679839045818775745
0.298000000000000154,-7.630008209024827792
0.299000000000000155,-7.580890245641637826
0.300000000000000155,-7.532356411215756609
0.301000000000000156,-7.484270895717567207
0.302000000000000157,-7.436491969169123806
0.303000000000000158,-7.388873087496381054
0.304000000000000159,-7.341263956021225390
0.305000000000000160,-7.293511548419667534
0.306000000000000161,-7.245461079361161794
0.307000000000000162,-7.196956929408830028
0.308000000000000163,-7.147843521101750142
0.309000000000000163,-7.097966145459436049
0.310000000000000164,-7.047171738443981148
0.311000000000000165,-6.995309607188518797
0.312000000000000166,-6.942232106052355967
0.313000000000000167,-6.887795262792775652
0.314000000000000168,-6.831859355353159913
0.315000000000000169,-6.774289439956421965
0.316000000000000170,-6.714955831363413452
0.317000000000000171,-6.653734536307839065
0.318000000000000171,-6.590507641254087723
0.319000000000000172,-6.525163655742498570
0.320000000000000173,-6.457597812689106931
0.321000000000000174,-6.387712327094414277
0.322000000000000175,-6.315416614689726593
0.323000000000000176,-6.240627472110189977
0.324000000000000177,-6.163269220232111323
0.325000000000000178,-6.083273812349409226
0.326000000000000179,-6.000580908890920107
0.327000000000000179,-5.915137920396780657
0.328000000000000180,-5.826900020480455744
0.329000000000000181,-5.735830130503014601
0.330000000000000182,-5.641898877677840041
0.331000000000000183,-5.545084528310559868
0.332000000000000184,-5.445372897857529537
0.333000000000000185,-5.342757239460822483
0.334000000000000186,-5.237238112586306116
0.335000000000000187,-5.128823233356387234
0.336000000000000187,-5.017527308129800190
0.337000000000000188,-4.903371851838446815
0.338000000000000189,-4.786384992546187434
0.339000000000000190,-4.666601263646789732
0.340000000000000191,-4.544061385068564718
0.341000000000000192,-4.418812034802499511
0.342000000000000193,-4.290905612017492210
0.343000000000000194,-4.160399992973864869
0.344000000000000195,-4.027358280891496278
0.345000000000000195,-3.891848550875387502
0.346000000000000196,-3.753943590946492215
0.347000000000000197,-3.613720640171673715
0.348000000000000198,-3.471261124832841549
0.349000000000000199,-3.326650393521592086
0.350000000000000200,-3.179977451993542203
0.351000000000000201,-3.031334698564164931
0.352000000000000202,-2.880817660777640565
0.353000000000000203,-2.728524734030258081
0.354000000000000203,-2.574556922781383150
0.355000000000000204,-2.419017584937974696
0.356000000000000205,-2.262012179952741953
0.357000000000000206,-2.103648021131556689
0.358000000000000207,-1.944034032602874662
0.359000000000000208,-1.783280511360656018
0.360000000000000209,-1.621498894752205988
0.361000000000000210,-1.458801533744346957
0.362000000000000210,-1.295301472264443365
0.363000000000000211,-1.131112232877916179
0.364000000000000212,-0.966347609030356325
0.365000000000000213,-0.801121464050350340
0.366000000000000214,-0.635547537079034219
0.367000000000000215,-0.469739256063437693
0.368000000000000216,-0.303809557923629292
0.369000000000000217,-0.137870715977873010
0.370000000000000218,0.027965825314119553
0.371000000000000218,0.193589608252665440
0.372000000000000219,0.358891312428262443
0.373000000000000220,0.523762897884625711
0.374000000000000221,0.688097740937080316
0.375000000000000222,0.851790762686504221
0.376000000000000223,1.014738550284808083
0.377000000000000224,1.176839471022892880
0.378000000000000225,1.337993779325729493
0.379000000000000226,1.498103716751721937
0.380000000000000226,1.657073605105009451
0.381000000000000227,1.814809932779835933
0.382000000000000228,1.971221434465503020
0.383000000000000229,2.126219164348852608
0.384000000000000230,2.279716562959106518
0.385000000000000231,2.431629517806144669
0.386000000000000232,2.581876417969614756
0.387000000000000233,2.730378202801206911
0.388000000000000234,2.877058404906825295
0.389000000000000234,3.021843187579026591
0.390000000000000235,3.164661376853323382
0.391000000000000236,3.305444488363982636
0.392000000000000237,3.444126749177263580
0.393000000000000238,3.580645114780824478
0.394000000000000239,3.714939281409129102
0.395000000000000240,3.846951693884842705
0.396000000000000241,3.976627549155975938
0.397000000000000242,4.103914795708167418
0.398000000000000242,4.228764129030215813
0.399000000000000243,4.351128983309914489
0.400000000000000244,4.470965519535690547
0.401000000000000245,4.588232610177016113
0.402000000000000246,4.702891820615090701
0.403000000000000247,4.814907387492385560
0.404000000000000248,4.924246194146919109
0.405000000000000249,5.030877743294420057
0.406000000000000250,5.134774127118339138
0.407000000000000250,5.235909994924373478
0.408000000000000251,5.334262518512923990
0.409000000000000252,5.429811355419092322
0.410000000000000253,5.522538610166568773
0.411000000000000254,5.612428793677638694
0.412000000000000255,5.699468780978008908
0.413000000000000256,5.783647767331101974
0.414000000000000257,5.864957222932689618
0.415000000000000258,5.943390846292549767
0.416000000000000258,6.018944516426124380
0.417000000000000259,6.091616243974826261
0.418000000000000260,6.161406121369869204
0.419000000000000261,6.228316272150420829
0.420000000000000262,6.292350799542719031
0.421000000000000263,6.353515734403069715
0.422000000000000264,6.411818982623401553
0.423000000000000265,6.467270272094495454
0.424000000000000266,6.519881099317615281
0.425000000000000266,6.569664675751998750
0.426000000000000267,6.616635873981425497
0.427000000000000268,6.660811173779637606
0.428000000000000269,6.702208608150566072
0.429000000000000270,6.740847709415801248
0.430000000000000271,6.776749455418149992
0.431000000000000272,6.809936215906747137
0.432000000000000273,6.840431699165671731
0.433000000000000274,6.868260898944870796
0.434000000000000274,6.893450041748765855
0.435000000000000275,6.916026534534971404
0.436000000000000276,6.936018912872303765
0.437000000000000277,6.953456789604390842
0.438000000000000278,6.968370804062200996
0.439000000000000279,6.980792571866061280
0.440000000000000280,6.990754635354892166
0.441000000000000281,6.998290414677915017
0.442000000000000282,7.003434159581223284
0.443000000000000282,7.006220901919493649
0.444000000000000283,7.006686408920313802
0.445000000000000284,7.004867137226609586
0.446000000000000285,7.000800187740270353
0.447000000000000286,6.994523261287843852
0.448000000000000287,6.986074615127281007
0.449000000000000288,6.975493020312545589
0.450000000000000289,6.962817719931069682
0.451000000000000290,6.948088388227157353
0.452000000000000290,6.931345090622751393
0.453000000000000291,6.912628244645139475
0.454000000000000292,6.891978581769717671
0.455000000000000293,6.869437110184255957
0.456000000000000294,6.845045078479723877
0.457000000000000295,6.818843940271316129
0.458000000000000296,6.790875319751842554
0.459000000000000297,6.761180978178676249
0.460000000000000298,6.729802781293807712
0.461000000000000298,6.696782667675917011
0.462000000000000299,6.662162618021758576
0.463000000000000300,6.625984625353586566
0.464000000000000301,6.588290666148045815
0.465000000000000302,6.549122672381275656
0.466000000000000303,6.508522504483837956
0.467000000000000304,6.466531925198665931
0.468000000000000305,6.423192574333995708
0.469000000000000306,6.378545944402932655
0.470000000000000306,6.332633357140475816
0.471000000000000307,6.285495940888079502
0.472000000000000308,6.237174608835569956
0.473000000000000309,6.187710038109381472
0.474000000000000310,6.137142649695831231
0.475000000000000311,6.085512589187441534
0.476000000000000312,6.032859708340316374
0.477000000000000313,5.979223547429647567
0.478000000000000314,5.924643318390609537
0.479000000000000314,5.869157888731241890
0.480000000000000315,5.812805766203817726
0.481000000000000316,5.755625084220875820
0.482000000000000317,5.697653588001892366
0.483000000000000318,5.638928621436413380
0.484000000000000319,5.579487114649264612
0.485000000000000320,5.519365572253326135
0.486000000000000321,5.458600062275288600
0.487000000000000322,5.397226205739663385
0.488000000000000322,5.335279166896258474
0.489000000000000323,5.272793644076399389
0.490000000000000324,5.209803861162956018
0.491000000000000325,5.146343559659386280
0.492000000000000326,5.082445991342925851
0.493000000000000327,5.018143911487245035
0.494000000000000328,4.953469572639598084
0.495000000000000329,4.888454718938040955
0.496000000000000330,4.823130580953825408
0.497000000000000330,4.757527871044695544
0.498000000000000331,4.691676779204385639
0.499000000000000332,4.625606969394322476
0.500000000000000333,4.559347576343020236
0.501000000000000334,4.492927202799299913
0.502000000000000335,4.426373917225353338
0.503000000000000336,4.359715251915921463
0.504000000000000337,4.292978201529916049
0.505000000000000338,4.226189222021110581
0.506000000000000338,4.159374229954609703
0.507000000000000339,4.092558602196001871
0.508000000000000340,4.025767175960309530
0.509000000000000341,3.959024249208094037
0.510000000000000342,3.892353581376077010
0.511000000000000343,3.825778394430123797
0.512000000000000344,3.759321374228345114
0.513000000000000345,3.693004672182580883
0.514000000000000346,3.626849907206427304
0.515000000000000346,3.560878167938471783
0.516000000000000347,3.495110015229413225
0.517000000000000348,3.429565484882070248
0.518000000000000349,3.364264090633422910
0.519000000000000350,3.299224827368194557
0.520000000000000351,3.234466174553443096
0.521000000000000352,3.170006099884197237
0.522000000000000353,3.105862063130092388
0.523000000000000353,3.042051020173281550
0.524000000000000354,2.978589427228314879
0.525000000000000355,2.915493245234452857
0.526000000000000356,2.852777944411653888
0.527000000000000357,2.790458508971236817
0.528000000000000358,2.728549441972597744
0.529000000000000359,2.667064770317808531
0.530000000000000360,2.606018049875646447
0.531000000000000361,2.545422370727313144
0.532000000000000361,2.485290362525970131
0.533000000000000362,2.425634199962637183
0.534000000000000363,2.366465608331079107
0.535000000000000364,2.307795869184560811
0.536000000000000365,2.249635826077580170
0.537000000000000366,2.191995890385844969
0.538000000000000367,2.134886047197940950
0.539000000000000368,2.078315861272451492
0.540000000000000369,2.022294483054270398
0.541000000000000369,1.966830654744309514
0.542000000000000370,1.911932716416723466
0.543000000000000371,1.857608612178154317
0.544000000000000372,1.803865896363559873
0.545000000000000373,1.750711739763476604
0.546000000000000374,1.698152935877593306
0.547000000000000375,1.646195907189843100
0.548000000000000376,1.594846711460280009
0.549000000000000377,1.544111048029250588
0.550000000000000377,1.493994264129421712
0.551000000000000378,1.444501361201517620
0.552000000000000379,1.395637001209724337
0.553000000000000380,1.347405512952788431
0.554000000000000381,1.299810898367133039
0.555000000000000382,1.252856838818376062
0.556000000000000383,1.206546701377743558
0.557000000000000384,1.160883545080145129
0.558000000000000385,1.115870127160646375
0.559000000000000385,1.071508909266335685
0.560000000000000386,1.027802063640690822
0.561000000000000387,0.984751479277598540
0.562000000000000388,0.942358768042422801
0.563000000000000389,0.900625270757524077
0.564000000000000390,0.859552063249889420
0.565000000000000391,0.819139962358469864
0.566000000000000392,0.779389531899104648
0.567000000000000393,0.740301088584927713
0.568000000000000393,0.701874707900282724
0.569000000000000394,0.664110229926232032
0.570000000000000395,0.627007265115989698
0.571000000000000396,0.590565200018498881
0.572000000000000397,0.554783202948642029
0.573000000000000398,0.519660229602571078
0.574000000000000399,0.485195028616809965
0.575000000000000400,0.451386147069742172
0.576000000000000401,0.418231935924364528
0.577000000000000401,0.385730555411099629
0.578000000000000402,0.353879980349615431
0.579000000000000403,0.322678005408721658
0.580000000000000404,0.292122250303394226
0.581000000000000405,0.262210164928107781
0.582000000000000406,0.232939034425730801
0.583000000000000407,0.204305984191269052
0.584000000000000408,0.176307984809850382
0.585000000000000409,0.148941856928406169
0.586000000000000409,0.122204276060485076
0.587000000000000410,0.096091777323833449
0.588000000000000411,0.070600760110325927
0.589000000000000412,0.045727492687905394
0.590000000000000413,0.021468116734291994
0.591000000000000414,-0.002181348197786456
0.592000000000000415,-0.025225000283998843
0.593000000000000416,-0.047667051100581476
0.594000000000000417,-0.069511821365376480
0.595000000000000417,-0.090763736747689186
0.596000000000000418,-0.111427323747087414
0.597000000000000419,-0.131507205640961605
0.598000000000000420,-0.151008098500852922
0.599000000000000421,-0.169934807277358269
0.600000000000000422,-0.188292221953507394
0.601000000000000423,-0.206085313766343925
0.602000000000000424,-0.223319131496552636
0.603000000000000425,-0.239998797825850485
0.604000000000000425,-0.256129505761791942
0.605000000000000426,-0.271716515129756753
0.606000000000000427,-0.286765149131717134
0.607000000000000428,-0.301280790971413359
0.608000000000000429,-0.315268880545572727
0.609000000000000430,-0.328734911200690760
0.610000000000000431,-0.341684426555001475
0.611000000000000432,-0.354123017385097050
0.612000000000000433,-0.366056318576763184
0.613000000000000433,-0.377490006139515555
0.614000000000000434,-0.388429794284279206
0.615000000000000435,-0.398881432563698790
0.616000000000000436,-0.408850703074548849
0.617000000000000437,-0.418343417721599942
0.618000000000000438,-0.427365415542414806
