# Cu111_CS-270-AC
# h[nm],U(h)[kJ/mol]
0.149999999999999994,98.378414089853620794
0.150999999999999995,98.253769935149335879
0.151999999999999996,94.927371729719922655
0.152999999999999997,90.972414375725833224
0.153999999999999998,87.352849126721551443
0.154999999999999999,84.263273729630682851
0.156000000000000000,81.588341232175565665
0.157000000000000001,79.135863374117420221
0.158000000000000002,76.740571240434093170
0.159000000000000002,74.298090830498523474
0.160000000000000003,71.764600922723474241
0.161000000000000004,69.142411076115763535
0.162000000000000005,66.462294708583982583
0.163000000000000006,63.767785624710519699
0.164000000000000007,61.103423684251424675
0.165000000000000008,58.507208119276427283
0.166000000000000009,56.006692264975569628
0.167000000000000010,53.617850497916109020
0.168000000000000010,51.345827867605876804
0.169000000000000011,49.186799315818198863
0.170000000000000012,47.130332911931063222
0.171000000000000013,45.161822931408309501
0.172000000000000014,43.264710324051257828
0.173000000000000015,41.422330767953688735
0.174000000000000016,39.619322702373558798
0.175000000000000017,37.842592247318791010
0.176000000000000018,36.081873323207013016
0.177000000000000018,34.329944594403841052
0.178000000000000019,32.582574791930298375
0.179000000000000020,30.838268591959263176
0.180000000000000021,29.097879841639304743
0.181000000000000022,27.364150083933054702
0.182000000000000023,25.641219917902418501
0.183000000000000024,23.934150054740879199
0.184000000000000025,22.248478854774560887
0.185000000000000026,20.589834170494064836
0.186000000000000026,18.963609732154079524
0.187000000000000027,17.374710170490665462
0.188000000000000028,15.827364028756539582
0.189000000000000029,14.325000651082120839
0.190000000000000030,12.870184482416778593
0.191000000000000031,11.464598896672077544
0.192000000000000032,10.109071004123052262
0.193000000000000033,8.803628807714435567
0.194000000000000034,7.547582429308642205
0.195000000000000034,6.339621780395077622
0.196000000000000035,5.177923898181645335
0.197000000000000036,4.060264118950811962
0.198000000000000037,2.984126246932591098
0.199000000000000038,1.946807846610185466
0.200000000000000039,0.945517701869276528
0.201000000000000040,-0.022536678480321724
0.202000000000000041,-0.960072887782528972
0.203000000000000042,-1.869669520657026851
0.204000000000000042,-2.753714347366838844
0.205000000000000043,-3.614364530513277884
0.206000000000000044,-4.453518308854038210
0.207000000000000045,-5.272797316233157616
0.208000000000000046,-6.073538522753201718
0.209000000000000047,-6.856794670363956179
0.210000000000000048,-7.623342015948499473
0.211000000000000049,-8.373694182088069482
0.212000000000000050,-9.108120939951225736
0.213000000000000050,-9.826670801939618727
0.214000000000000051,-10.529196376491976039
0.215000000000000052,-11.215381527377235926
0.216000000000000053,-11.884769479398610059
0.217000000000000054,-12.536791117067362933
0.218000000000000055,-13.170792828696443522
0.219000000000000056,-13.786063352471874310
0.220000000000000057,-14.381859181026978689
0.221000000000000058,-14.957428175096785239
0.222000000000000058,-15.512031123726012893
0.223000000000000059,-16.044961067418846312
0.224000000000000060,-16.555560271111197324
0.225000000000000061,-17.043234795762991496
0.226000000000000062,-17.507466670800106101
0.227000000000000063,-17.947823714861435462
0.228000000000000064,-18.363967089742327943
0.229000000000000065,-18.755656702595150165
0.230000000000000066,-19.122754594933958572
0.231000000000000066,-19.465226474426554404
0.232000000000000067,-19.783141557484000828
0.233000000000000068,-20.076670897923179382
0.234000000000000069,-20.346084380107200218
0.235000000000000070,-20.591746554565293792
0.236000000000000071,-20.814111490723785636
0.237000000000000072,-21.013716815571299890
0.238000000000000073,-21.191177099315716248
0.239000000000000073,-21.347176739804929468
0.240000000000000074,-21.482462487072609747
0.241000000000000075,-21.597835738175394482
0.242000000000000076,-21.694144720815270233
0.243000000000000077,-21.772276672349544668
0.244000000000000078,-21.833150108902593445
0.245000000000000079,-21.877707267593308416
0.246000000000000080,-21.906906793532989752
0.247000000000000081,-21.921716732352070522
0.248000000000000081,-21.923107878675004656
0.249000000000000082,-21.912047521252858928
0.250000000000000111,-21.889493616432666556
0.251000000000000112,-21.856389413322673931
0.252000000000000113,-21.813658546420551687
0.253000000000000114,-21.762200604608029408
0.254000000000000115,-21.702887179275457186
0.255000000000000115,-21.636558388901839578
0.256000000000000116,-21.564019872658832355
0.257000000000000117,-21.486040241497889269
0.258000000000000118,-21.403348971684028612
0.259000000000000119,-21.316634722819884473
0.260000000000000120,-21.226544060018920135
0.261000000000000121,-21.133680557995027982
0.262000000000000122,-21.038604263397090222
0.263000000000000123,-20.941831490687757622
0.264000000000000123,-20.843834926206358915
0.265000000000000124,-20.745044014726460091
0.266000000000000125,-20.645845602780912742
0.267000000000000126,-20.546584813245100776
0.268000000000000127,-20.447566126108842610
0.269000000000000128,-20.349054640995785093
0.270000000000000129,-20.251277497777927294
0.271000000000000130,-20.154425432552610431
0.272000000000000131,-20.058654447276676791
0.273000000000000131,-19.964087572462506870
0.274000000000000132,-19.870816703513732193
0.275000000000000133,-19.778904492495392731
0.276000000000000134,-19.688386278377098648
0.277000000000000135,-19.599272040043892673
0.278000000000000136,-19.511548357625020600
0.279000000000000137,-19.425180368933848030
0.280000000000000138,-19.340113709033722955
0.281000000000000139,-19.256276422135535142
0.282000000000000139,-19.173580836187252174
0.283000000000000140,-19.091925391626542563
0.284000000000000141,-19.011196416832078171
0.285000000000000142,-18.931269843821933563
0.286000000000000143,-18.852012858707180243
0.287000000000000144,-18.773285482312623174
0.288000000000000145,-18.694942077224965260
0.289000000000000146,-18.616832778318503472
0.290000000000000147,-18.538804844543030015
0.291000000000000147,-18.460703930435496289
0.292000000000000148,-18.382375276439653078
0.293000000000000149,-18.303664817685444177
0.294000000000000150,-18.224420211395901958
0.295000000000000151,-18.144491783554304476
0.296000000000000152,-18.063733395880738897
0.297000000000000153,-17.982003234537504710
0.298000000000000154,-17.899164522308762315
0.299000000000000155,-17.815086156284287711
0.300000000000000155,-17.729643273322260200
0.301000000000000156,-17.642717745774138649
0.302000000000000157,-17.554198610128697311
0.303000000000000158,-17.463982431373860749
0.304000000000000159,-17.371973605987353295
0.305000000000000160,-17.278084606551725955
0.306000000000000161,-17.182236171049307671
0.307000000000000162,-17.084357439929405587
0.308000000000000163,-16.984386044055842291
0.309000000000000163,-16.882268146640473816
0.310000000000000164,-16.777958442248447568
0.311000000000000165,-16.671420115925890570
0.312000000000000166,-16.562624765453225706
0.313000000000000167,-16.451552289666498297
0.314000000000000168,-16.338190745719614938
0.315000000000000169,-16.222536178080900982
0.316000000000000170,-16.104592421971112515
0.317000000000000171,-15.984370883857138779
0.318000000000000171,-15.861890301517586721
0.319000000000000172,-15.737176486094440975
0.320000000000000173,-15.610262048439938809
0.321000000000000174,-15.481186111959942764
0.322000000000000175,-15.349994014046520974
0.323000000000000176,-15.216736998082684096
0.324000000000000177,-15.081471897892214429
0.325000000000000178,-14.944260816398550418
0.326000000000000179,-14.805170800148294674
0.327000000000000179,-14.664273511248108406
0.328000000000000180,-14.521644898158678316
0.329000000000000181,-14.377364866687429412
0.330000000000000182,-14.231516952420360411
0.331000000000000183,-14.084187995737346810
0.332000000000000184,-13.935467820459916055
0.333000000000000185,-13.785448917089947685
0.334000000000000186,-13.634226131509771918
0.335000000000000187,-13.481896359929786300
0.336000000000000187,-13.328558250789168227
0.337000000000000188,-13.174311914237645027
0.338000000000000189,-13.019258639753260809
0.339000000000000190,-12.863500622380730221
0.340000000000000191,-12.707140698008789315
0.341000000000000192,-12.550282088042674644
0.342000000000000193,-12.393028153767883026
0.343000000000000194,-12.235482160646883543
0.344000000000000195,-12.077747052737223044
0.345000000000000195,-11.919925237371504778
0.346000000000000196,-11.762118380193721023
0.347000000000000197,-11.604427210604312037
0.348000000000000198,-11.446951337627117695
0.349000000000000199,-11.289789076174990612
0.350000000000000200,-11.133037283657781558
0.351000000000000201,-10.976791206845488702
0.352000000000000202,-10.821144338871686585
0.353000000000000203,-10.666188286236959470
0.354000000000000203,-10.512012645648953324
0.355000000000000204,-10.358704890515159747
0.356000000000000205,-10.206350266886207834
0.357000000000000206,-10.055031698630859438
0.358000000000000207,-9.904829701609697779
0.359000000000000208,-9.755822306602032867
0.360000000000000209,-9.608084990729711450
0.361000000000000210,-9.461690617112481050
0.362000000000000210,-9.316709382482013524
0.363000000000000211,-9.173208772475652140
0.364000000000000212,-9.031253524326219306
0.365000000000000213,-8.890905596660633847
0.366000000000000214,-8.752224146118081194
0.367000000000000215,-8.615265510496886492
0.368000000000000216,-8.480083198139489298
0.369000000000000217,-8.346727883265179671
0.370000000000000218,-8.215247406962292942
0.371000000000000218,-8.085686783553457602
0.372000000000000219,-7.958088212050846266
0.373000000000000220,-7.832491092422000811
0.374000000000000221,-7.708932046390978954
0.375000000000000222,-7.587444942504411927
0.376000000000000223,-7.468060925197311128
0.377000000000000224,-7.350808447599062490
0.378000000000000225,-7.235713307826145524
0.379000000000000226,-7.122798688514230037
0.380000000000000226,-7.012085199349202824
0.381000000000000227,-6.903590922363084026
0.382000000000000228,-6.797331459768159334
0.383000000000000229,-6.693319984109590060
0.384000000000000230,-6.591567290523950184
0.385000000000000231,-6.492081850898800965
0.386000000000000232,-6.394869869735467560
0.387000000000000233,-6.299935341524786736
0.388000000000000234,-6.207280109453032324
0.389000000000000234,-6.116903925262697328
0.390000000000000235,-6.028804510099938341
0.391000000000000236,-5.942977616188282575
0.392000000000000237,-5.859417089174902671
0.393000000000000238,-5.778114931003480947
0.394000000000000239,-5.699061363174299899
0.395000000000000240,-5.622244890259462835
0.396000000000000241,-5.547652363547828536
0.397000000000000242,-5.475269044700946885
0.398000000000000242,-5.405078669307950001
0.399000000000000243,-5.337063510233586605
0.400000000000000244,-5.271204440659889912
0.401000000000000245,-5.207480996728230949
0.402000000000000246,-5.145871439694094995
0.403000000000000247,-5.086352817512890034
0.404000000000000248,-5.028901025780645462
0.405000000000000249,-4.973490867958783035
0.406000000000000250,-4.920096114817359201
0.407000000000000250,-4.868689563036308066
0.408000000000000251,-4.819243092908918058
0.409000000000000252,-4.771727725096648776
0.410000000000000253,-4.726113676388687956
0.411000000000000254,-4.682370414424147143
0.412000000000000255,-4.640466711338824268
0.413000000000000256,-4.600370696302564788
0.414000000000000257,-4.562049906916859854
0.415000000000000258,-4.525471339446225372
0.416000000000000258,-4.490601497860128077
0.417000000000000259,-4.457406441665701990
0.418000000000000260,-4.425851832514597461
0.419000000000000261,-4.395902979570229796
0.420000000000000262,-4.367524883624708032
0.421000000000000263,-4.340682279957309930
0.422000000000000264,-4.315339679928813510
0.423000000000000265,-4.291461411308665319
0.424000000000000266,-4.269011657334092824
0.425000000000000266,-4.247954494502344858
0.426000000000000267,-4.228253929099361486
0.427000000000000268,-4.209873932470125979
0.428000000000000269,-4.192778475037511221
0.429000000000000270,-4.176931559078278511
0.430000000000000271,-4.162297250266371762
0.431000000000000272,-4.148839707995017889
0.432000000000000273,-4.136523214490578582
0.433000000000000274,-4.125312202732231981
0.434000000000000274,-4.115171283192798235
0.435000000000000275,-4.106065269416918184
0.436000000000000276,-4.097959202453933081
0.437000000000000277,-4.090818374163488258
0.438000000000000278,-4.084608349412813588
0.439000000000000279,-4.079294987185297039
0.440000000000000280,-4.074844460620553832
0.441000000000000281,-4.071223276006809222
0.442000000000000282,-4.068398290746965351
0.443000000000000282,-4.066336730319948245
0.444000000000000283,-4.065006204259625555
0.445000000000000284,-4.064374721173545701
0.446000000000000285,-4.064410702824288180
0.447000000000000286,-4.065082997296320499
0.448000000000000287,-4.066360891271311395
0.449000000000000288,-4.068214121435197228
0.450000000000000289,-4.070612885040142181
0.451000000000000290,-4.073527849644680288
0.452000000000000290,-4.076930162055314888
0.453000000000000291,-4.080791456492742775
0.454000000000000292,-4.085083862005870259
0.455000000000000293,-4.089780009156599228
0.456000000000000294,-4.094853035998293755
0.457000000000000295,-4.100276593370604239
0.458000000000000296,-4.106024849533183030
0.459000000000000297,-4.112072494160572411
0.460000000000000298,-4.118394741720357466
0.461000000000000298,-4.124967334256298912
0.462000000000000299,-4.131766543598097918
0.463000000000000300,-4.138769173018869374
0.464000000000000301,-4.145952558361387652
0.465000000000000302,-4.153294568653548957
0.466000000000000303,-4.160773606233474808
0.467000000000000304,-4.168368606403992871
0.468000000000000305,-4.176059036636187827
0.469000000000000306,-4.183824895341134109
0.470000000000000306,-4.191646710228651429
0.471000000000000307,-4.199505536271479933
0.472000000000000308,-4.207382953293000938
0.473000000000000309,-4.215261063196071412
0.474000000000000310,-4.223122486850245494
0.475000000000000311,-4.230950360654349041
0.476000000000000312,-4.238728332790700826
0.477000000000000313,-4.246440559187200314
0.478000000000000314,-4.254071699202834012
0.479000000000000314,-4.261606911051940116
0.480000000000000315,-4.269031846981995670
0.481000000000000316,-4.276332648219502985
0.482000000000000317,-4.283495939697912647
0.483000000000000318,-4.290508824581321434
0.484000000000000319,-4.297358878597190568
0.485000000000000320,-4.304034144190962863
0.486000000000000321,-4.310523124515073690
0.487000000000000322,-4.316814777264435854
0.488000000000000322,-4.322898508370172088
0.489000000000000323,-4.328764165562894561
0.490000000000000324,-4.334402031816573242
0.491000000000000325,-4.339802818683562435
0.492000000000000326,-4.344957659531047511
0.493000000000000327,-4.349858102688864747
0.494000000000000328,-4.354496104518164046
0.495000000000000329,-4.358864022410236849
0.496000000000000330,-4.362954607724267575
0.497000000000000330,-4.366760998672659433
0.498000000000000331,-4.370276713162090765
0.499000000000000332,-4.373495641598212025
0.500000000000000333,-4.376412039661621733
0.501000000000000334,-4.379020521062350291
0.502000000000000335,-4.381316050279876251
0.503000000000000336,-4.383293935295374588
0.504000000000000337,-4.384949820322580294
0.505000000000000338,-4.386279678543435701
0.506000000000000338,-4.387279804854354204
0.507000000000000339,-4.387946808628735873
0.508000000000000340,-4.388277606501015171
0.509000000000000341,-4.388269415177392219
0.510000000000000342,-4.387919744278041989
0.511000000000000343,-4.387226389215422628
0.512000000000000344,-4.386187424113051847
0.513000000000000345,-4.384801194768874311
0.514000000000000346,-4.383066311667212389
0.515000000000000346,-4.380981643042897389
0.516000000000000347,-4.378546308001190823
0.517000000000000348,-4.375759669696759779
0.518000000000000349,-4.372621328574777699
0.519000000000000350,-4.369131115677140187
0.520000000000000351,-4.365289086016471920
0.521000000000000352,-4.361095512020535025
0.522000000000000353,-4.356550877049363280
0.523000000000000353,-4.351655868987400311
0.524000000000000354,-4.346411373912701492
0.525000000000000355,-4.340818469845056704
0.526000000000000356,-4.334878420574833413
0.527000000000000357,-4.328592669574159224
0.528000000000000358,-4.321962833991899622
0.529000000000000359,-4.314990698733743635
0.530000000000000360,-4.307678210628682614
0.531000000000000361,-4.300027472682891982
0.532000000000000361,-4.292040738422047141
0.533000000000000362,-4.283720406322854224
0.534000000000000363,-4.275069014334623496
0.535000000000000364,-4.266089234491431625
0.536000000000000365,-4.256783867615489214
0.537000000000000366,-4.247155838112083970
0.538000000000000367,-4.237208188856458335
0.539000000000000368,-4.226944076172925335
0.540000000000000369,-4.216366764906297249
0.541000000000000369,-4.205479623585803850
0.542000000000000370,-4.194286119681432723
0.543000000000000371,-4.182789814952665886
0.544000000000000372,-4.170994360889474173
0.545000000000000373,-4.158903494245334898
0.546000000000000374,-4.146521032662012551
0.547000000000000375,-4.133850870385772147
0.548000000000000376,-4.120896974074651276
0.549000000000000377,-4.107663378696300605
0.550000000000000377,-4.094154183515923862
0.551000000000000378,-4.080373548173744425
0.552000000000000379,-4.066325688851447850
0.553000000000000380,-4.052014874526902233
0.554000000000000381,-4.037445423316479598
0.555000000000000382,-4.022621698904341514
0.556000000000000383,-4.007548107057770537
0.557000000000000384,-3.992229092227918663
0.558000000000000385,-3.976669134235032654
0.559000000000000385,-3.960872745037351539
0.560000000000000386,-3.944844465582767246
0.561000000000000387,-3.928588862742371735
0.562000000000000388,-3.912110526324893645
0.563000000000000389,-3.895414066171143386
0.564000000000000390,-3.878504109327416849
0.565000000000000391,-3.861385297296904717
0.566000000000000392,-3.844062283368080646
0.567000000000000393,-3.826539730019044239
0.568000000000000393,-3.808822306396738355
0.569000000000000394,-3.790914685870036216
0.570000000000000395,-3.772821543655623167
0.571000000000000396,-3.754547554515516250
0.572000000000000397,-3.736097390525265460
0.573000000000000398,-3.717475718911633642
0.574000000000000399,-3.698687199958705207
0.575000000000000400,-3.679736484981308564
0.576000000000000401,-3.660628214364634481
0.577000000000000401,-3.641367015668979690
0.578000000000000402,-3.621957501798417578
0.579000000000000403,-3.602404269232381662
0.580000000000000404,-3.582711896318977463
0.581000000000000405,-3.562884941628941426
0.582000000000000406,-3.542927942369124672
0.583000000000000407,-3.522845412854376690
0.584000000000000408,-3.502641843036784053
0.585000000000000409,-3.482321697091073531
0.586000000000000409,-3.461889412055151549
0.587000000000000410,-3.441349396524679527
0.588000000000000411,-3.420706029400547354
0.589000000000000412,-3.399963658688250234
0.590000000000000413,-3.379126600348014708
0.591000000000000414,-3.358199137194654238
0.592000000000000415,-3.337185517846121829
0.593000000000000416,-3.316089955719623283
0.594000000000000417,-3.294916628074342491
0.595000000000000417,-3.273669675099738718
0.596000000000000418,-3.252353199048284349
0.597000000000000419,-3.230971263411844596
0.598000000000000420,-3.209527892140452643
0.599000000000000421,-3.188027068902703487
0.600000000000000422,-3.166472736386642062
0.601000000000000423,-3.144868795640265891
0.602000000000000424,-3.123219105450636857
0.603000000000000425,-3.101527481760689930
0.604000000000000425,-3.079797697122776512
0.605000000000000426,-3.058033480188046660
0.606000000000000427,-3.036238515230772705
0.607000000000000428,-3.014416441706639915
0.608000000000000429,-2.992570853844257694
0.609000000000000430,-2.970705300268864146
0.610000000000000431,-2.948823283657513450
