# Cu111_CS-5008-AC
# h[nm],U(h)[kJ/mol]
0.200000000000000011,41.395461448933261295
0.201000000000000012,35.483099305102577148
0.202000000000000013,32.506027994222982613
0.203000000000000014,30.848565596874504280
0.204000000000000015,29.609271811127392482
0.205000000000000016,28.336752131068173810
0.206000000000000016,26.850628290218885752
0.207000000000000017,25.122997954828885980
0.208000000000000018,23.202288193661186000
0.209000000000000019,21.166342795643480201
0.210000000000000020,19.095264743871126711
0.211000000000000021,17.057264051683965533
0.212000000000000022,15.102769936748469348
0.213000000000000023,13.263533027976333045
0.214000000000000024,11.554504107699713700
0.215000000000000024,9.977034512052384230
0.216000000000000025,8.522478471429318247
0.217000000000000026,7.175648866327904329
0.218000000000000027,5.917829848484247535
0.219000000000000028,4.729216002294047705
0.220000000000000029,3.590753074008046664
0.221000000000000030,2.485418132451114204
0.222000000000000031,1.399010774956701342
0.223000000000000032,0.320541382627863303
0.224000000000000032,-0.757695580802618451
0.225000000000000033,-1.840280737593142479
0.226000000000000034,-2.928988552662317613
0.227000000000000035,-4.023204225630020225
0.228000000000000036,-5.120389019979379341
0.229000000000000037,-6.216555491308228376
0.230000000000000038,-7.306724118249222855
0.231000000000000039,-8.385341510445154967
0.232000000000000040,-9.446647596723790841
0.233000000000000040,-10.484985027335364194
0.234000000000000041,-11.495048569458658605
0.235000000000000042,-12.472075684019987563
0.236000000000000043,-13.411981907255560387
0.237000000000000044,-14.311446285154520552
0.238000000000000045,-15.167953076436281989
0.239000000000000046,-15.979796389080181740
0.240000000000000047,-16.746054468748241106
0.241000000000000048,-17.466540119205863135
0.242000000000000048,-18.141733292398356525
0.243000000000000049,-18.772701310590900192
0.244000000000000050,-19.361011531973431943
0.245000000000000051,-19.908640588850992970
0.246000000000000052,-20.417883647645449940
0.247000000000000053,-20.891266487029071186
0.248000000000000054,-21.331462581688874991
0.249000000000000055,-21.741216825515728317
0.250000000000000056,-22.123277035642153976
0.251000000000000056,-22.480333950194541615
0.252000000000000057,-22.814970067538492771
0.253000000000000058,-23.129617370772166396
0.254000000000000059,-23.426523734420925393
0.255000000000000060,-23.707727615926742715
0.256000000000000061,-23.975040487294670299
0.257000000000000062,-24.230036356613673831
0.258000000000000063,-24.474047659575933977
0.259000000000000064,-24.708166762222166568
0.260000000000000064,-24.933252302886096174
0.261000000000000065,-25.149939609024499987
0.262000000000000066,-25.358654449056803770
0.263000000000000067,-25.559629416704837013
0.264000000000000068,-25.752922292280793215
0.265000000000000069,-25.938435779025780903
0.266000000000000070,-26.115938070477408672
0.267000000000000071,-26.285083764867408718
0.268000000000000071,-26.445434703001051702
0.269000000000000072,-26.596480365562126025
0.270000000000000073,-26.737657523222434719
0.271000000000000074,-26.868368887474353812
0.272000000000000075,-26.988000561132601263
0.273000000000000076,-27.095938134541654563
0.274000000000000077,-27.191581316416897351
0.275000000000000078,-27.274357026812587890
0.276000000000000079,-27.343730913932894566
0.277000000000000079,-27.399217286457030696
0.278000000000000080,-27.440387478879063821
0.279000000000000081,-27.466876689266445766
0.280000000000000082,-27.478389347054132941
0.281000000000000083,-27.474703083279024440
0.282000000000000084,-27.455671387301755715
0.283000000000000085,-27.421225042851233411
0.284000000000000086,-27.371372442449349194
0.285000000000000087,-27.306198883218076645
0.286000000000000087,-27.225864949013839578
0.287000000000000088,-27.130604084041209489
0.288000000000000089,-27.020719461818373475
0.289000000000000090,-26.896580250836812809
0.290000000000000091,-26.758617374689936952
0.291000000000000092,-26.607318860041988984
0.292000000000000093,-26.443224860745850435
0.293000000000000094,-26.266922440860305699
0.294000000000000095,-26.079040193406449077
0.295000000000000095,-25.880242765567412988
0.296000000000000096,-25.671225354785597972
0.297000000000000097,-25.452708233943528882
0.298000000000000098,-25.225431357609817695
0.299000000000000099,-24.990149095259820200
0.300000000000000100,-24.747625131497592577
0.301000000000000101,-24.498627567658687099
0.302000000000000102,-24.243924253798024182
0.303000000000000103,-23.984278374991458094
0.304000000000000103,-23.720444311123621617
0.305000000000000104,-23.453163784911723155
0.306000000000000105,-23.183162308832248044
0.307000000000000106,-22.911145937876717937
0.308000000000000107,-22.637798331662999374
0.309000000000000108,-22.363778126362973353
0.310000000000000109,-22.089716614167258513
0.311000000000000110,-21.816215725582416951
0.312000000000000111,-21.543846307731236323
0.313000000000000111,-21.273146689988614355
0.314000000000000112,-21.004621526717524915
0.315000000000000113,-20.738740905554941207
0.316000000000000114,-20.475939708619659285
0.317000000000000115,-20.216617213154897570
0.318000000000000116,-19.961136917460660101
0.319000000000000117,-19.709826577498169797
0.320000000000000118,-19.462978439242654360
0.321000000000000119,-19.220849651706551242
0.322000000000000119,-18.983662845536382946
0.323000000000000120,-18.751606862188019420
0.324000000000000121,-18.524837618892696867
0.325000000000000122,-18.303479094926650816
0.326000000000000123,-18.087624425077287071
0.327000000000000124,-17.877337086646889475
0.328000000000000125,-17.672652166840464361
0.329000000000000126,-17.473577697936068631
0.330000000000000127,-17.280096048224997674
0.331000000000000127,-17.092165357328198638
0.332000000000000128,-16.909721005133508953
0.333000000000000129,-16.732677104252168476
0.334000000000000130,-16.560928006553094605
0.335000000000000131,-16.394349814996367343
0.336000000000000132,-16.232801892646765651
0.337000000000000133,-16.076128361399842248
0.338000000000000134,-15.924159583593816336
0.339000000000000135,-15.776713620306248131
0.340000000000000135,-15.633597660742569957
0.341000000000000136,-15.494609417712064570
0.342000000000000137,-15.359538484753070264
0.343000000000000138,-15.228167651012261885
0.344000000000000139,-15.100274170500700421
0.345000000000000140,-14.975630982842655925
0.346000000000000141,-14.854007883098352849
0.347000000000000142,-14.735172638682461965
0.348000000000000143,-14.618892051812332866
0.349000000000000143,-14.504932966306174791
0.350000000000000144,-14.393063217910878393
0.351000000000000145,-14.283052527672628784
0.352000000000000146,-14.174673338170844517
0.353000000000000147,-14.067701592718993453
0.354000000000000148,-13.961917457893974870
0.355000000000000149,-13.857105989990619932
0.356000000000000150,-13.753057746210370027
0.357000000000000151,-13.649569341583264404
0.358000000000000151,-13.546443952792742493
0.359000000000000152,-13.443491770222186332
0.360000000000000153,-13.340530399673912854
0.361000000000000154,-13.237385215324598775
0.362000000000000155,-13.133889665577934025
0.363000000000000156,-13.029885533556662125
0.364000000000000157,-12.925223154042177143
0.365000000000000158,-12.819761588723000756
0.366000000000000159,-12.713368761653111250
0.367000000000000159,-12.605921556849256859
0.368000000000000160,-12.497305879973884757
0.369000000000000161,-12.387416686057264315
0.370000000000000162,-12.276157975210539419
0.371000000000000163,-12.163442758271491684
0.372000000000000164,-12.049192994306405780
0.373000000000000165,-11.933339501867433086
0.374000000000000166,-11.815821845873642815
0.375000000000000167,-11.696588201948076247
0.376000000000000167,-11.575595200002135599
0.377000000000000168,-11.452807748813375710
0.378000000000000169,-11.328198843294206455
0.379000000000000170,-11.201749356097097987
0.380000000000000171,-11.073447815147295259
0.381000000000000172,-10.943290168637807014
0.382000000000000173,-10.811279538962597968
0.383000000000000174,-10.677425967004960938
0.384000000000000175,-10.541746148136819983
0.385000000000000175,-10.404263161224026391
0.386000000000000176,-10.265006191870941876
0.387000000000000177,-10.124010251076166256
0.388000000000000178,-9.981315890410019875
0.389000000000000179,-9.836968914763476235
0.390000000000000180,-9.691020093658165635
0.391000000000000181,-9.543524872047621344
0.392000000000000182,-9.394543081481970148
0.393000000000000183,-9.244138652450654803
0.394000000000000183,-9.092379328662433480
0.395000000000000184,-8.939336383967239286
0.396000000000000185,-8.785084342571478189
0.397000000000000186,-8.629700703147337393
0.398000000000000187,-8.473265667386630895
0.399000000000000188,-8.315861873501841472
0.400000000000000189,-8.157574135131024917
0.401000000000000190,-7.998489186058193923
0.402000000000000191,-7.838695431118902768
0.403000000000000191,-7.678282703619110805
0.404000000000000192,-7.517342029556954408
0.405000000000000193,-7.355965398899508401
0.406000000000000194,-7.194245544131176118
0.407000000000000195,-7.032275726257035231
0.408000000000000196,-6.870149528411955586
0.409000000000000197,-6.707960657196816001
0.410000000000000198,-6.545802751834244759
0.411000000000000199,-6.383769201209753774
0.412000000000000199,-6.221952968838751374
0.413000000000000200,-6.060446425776787827
0.414000000000000201,-5.899341191467866174
0.415000000000000202,-5.738727982505458236
0.416000000000000203,-5.578696469261903879
0.417000000000000204,-5.419335140323772393
0.418000000000000205,-5.260731174655048470
0.419000000000000206,-5.102970321394684206
0.420000000000000207,-4.946136787181245609
0.421000000000000207,-4.790313130885380133
0.422000000000000208,-4.635580165618775617
0.423000000000000209,-4.482016867878678923
0.424000000000000210,-4.329700293677418266
0.425000000000000211,-4.178705501498398256
0.426000000000000212,-4.029105481912735875
0.427000000000000213,-3.880971093684386197
0.428000000000000214,-3.734371006186253172
0.429000000000000214,-3.589371647944944677
0.430000000000000215,-3.446037161128089110
0.431000000000000216,-3.304429361785139463
0.432000000000000217,-3.164607705649664648
0.433000000000000218,-3.026629259309884468
0.434000000000000219,-2.890548676552532559
0.435000000000000220,-2.756418179684749337
0.436000000000000221,-2.624287545638400498
0.437000000000000222,-2.494204096661674974
0.438000000000000222,-2.366212695403612454
0.439000000000000223,-2.240355744198390120
0.440000000000000224,-2.116673188357825808
0.441000000000000225,-1.995202523282477269
0.442000000000000226,-1.875978805204219224
0.443000000000000227,-1.759034665375381667
0.444000000000000228,-1.644400327522753003
0.445000000000000229,-1.532103628387624816
0.446000000000000230,-1.422170041176525235
0.447000000000000230,-1.314622701750616018
0.448000000000000231,-1.209482437385596576
0.449000000000000232,-1.106767797937697084
0.450000000000000233,-1.006495089255303066
0.451000000000000234,-0.908678408679912453
0.452000000000000235,-0.813329682484209116
0.453000000000000236,-0.720458705099340957
0.454000000000000237,-0.630073179987883036
0.455000000000000238,-0.542178762023131422
0.456000000000000238,-0.456779101240083363
0.457000000000000239,-0.373875887827496534
0.458000000000000240,-0.293468898235337616
0.459000000000000241,-0.215556042275838911
0.460000000000000242,-0.140133411101311639
0.461000000000000243,-0.067195325945860723
0.462000000000000244,0.003265612477167323
0.463000000000000245,0.071258474026066304
0.464000000000000246,0.136793948729587195
0.465000000000000246,0.199884296029086833
0.466000000000000247,0.260543293755272631
0.467000000000000248,0.318786186926682535
0.468000000000000249,0.374629636452813997
0.469000000000000250,0.428091667821104083
0.470000000000000251,0.479191619842778693
0.471000000000000252,0.527950093529008457
0.472000000000000253,0.574388901164832211
0.473000000000000254,0.618531015644804283
0.474000000000000254,0.660400520130717039
0.475000000000000255,0.700022558088168934
0.476000000000000256,0.737423283755554104
0.477000000000000257,0.772629813095482065
0.478000000000000258,0.805670175275683520
0.479000000000000259,0.836573264723208476
0.480000000000000260,0.865368793792675617
0.481000000000000261,0.892087246086584296
0.482000000000000262,0.916759830462574810
0.483000000000000262,0.939418435760172366
0.484000000000000263,0.960095586276499935
0.485000000000000264,0.978824398018291353
0.486000000000000265,0.995638535754727050
0.487000000000000266,1.010572170893494937
0.488000000000000267,1.023659940200191132
0.489000000000000268,1.034936905378751604
0.490000000000000269,1.044438513528912704
0.491000000000000270,1.052200558494274407
0.492000000000000270,1.058259143112959766
0.493000000000000271,1.062650642380757793
0.494000000000000272,1.065411667535142826
0.495000000000000273,1.066579031066581917
0.496000000000000274,1.066189712662247269
0.497000000000000275,1.064280826085550968
0.498000000000000276,1.060889586993455147
0.499000000000000277,1.056053281692330259
0.500000000000000222,1.049809236831535486
0.501000000000000334,1.042194790033020624
0.502000000000000224,1.033247261453702937
0.503000000000000336,1.023003926276639941
0.504000000000000226,1.011501988125691254
0.505000000000000338,0.998778553397564273
0.506000000000000227,0.984870606504143709
0.507000000000000339,0.969814986017214609
0.508000000000000229,0.953648361706833980
0.509000000000000341,0.936407212463808647
0.510000000000000231,0.918127805096249028
0.511000000000000343,0.898846173989244157
0.512000000000000233,0.878598101616388405
0.513000000000000345,0.857419099891065906
0.514000000000000234,0.835344392345166886
0.515000000000000346,0.812408897122204321
0.516000000000000236,0.788647210771625584
0.517000000000000348,0.764093592830424440
0.518000000000000238,0.738781951178248741
0.519000000000000350,0.712745828151351235
0.520000000000000240,0.686018387401033047
0.521000000000000352,0.658632401481505259
0.522000000000000242,0.630620240152284905
0.523000000000000353,0.602013859379659455
0.524000000000000243,0.572844791022109723
0.525000000000000355,0.543144133183938282
0.526000000000000245,0.512942541221715564
0.527000000000000357,0.482270219387703758
0.528000000000000247,0.451156913094736711
0.529000000000000359,0.419631901786699069
0.530000000000000249,0.387723992398987360
0.531000000000000361,0.355461513393178774
0.532000000000000250,0.322872309350352049
0.533000000000000362,0.289983736107325363
0.534000000000000252,0.256822656420527651
0.535000000000000364,0.223415436141724599
0.536000000000000254,0.189787940890722595
0.537000000000000366,0.155965533209397378
0.538000000000000256,0.121973070182373175
0.539000000000000368,0.087834901509121835
0.540000000000000258,0.053574868012983654
0.541000000000000369,0.019216300572215305
0.542000000000000259,-0.015217980540999664
0.543000000000000371,-0.049705665928165020
0.544000000000000261,-0.084224956952526783
0.545000000000000373,-0.118754565261498260
0.546000000000000263,-0.153273711957021663
0.547000000000000375,-0.187762126427490017
0.548000000000000265,-0.222200044854065970
0.549000000000000377,-0.256568208404832132
0.550000000000000266,-0.290847861129061525
0.551000000000000378,-0.325020747564540913
0.552000000000000268,-0.359069110069910657
0.553000000000000380,-0.392975685894276450
0.554000000000000270,-0.426723703995741832
0.555000000000000382,-0.460296881620588849
0.556000000000000272,-0.493679420654227763
0.557000000000000384,-0.526856003755163060
0.558000000000000274,-0.559811790282676247
0.559000000000000385,-0.592532412028894506
0.560000000000000275,-0.625003968765470708
0.561000000000000387,-0.657213023615096259
0.562000000000000277,-0.689146598257500687
0.563000000000000389,-0.720792167979740772
0.564000000000000279,-0.752137656579912495
0.565000000000000391,-0.783171431133600215
0.566000000000000281,-0.813882296631688207
0.567000000000000393,-0.844259490498408538
0.568000000000000282,-0.874292676997768248
0.569000000000000394,-0.903971941536730439
0.570000000000000284,-0.933287784872791293
0.571000000000000396,-0.962231117233960043
0.572000000000000286,-0.990793252358274423
0.573000000000000398,-1.018965901460327839
0.574000000000000288,-1.046741167131604477
0.575000000000000400,-1.074111537181621445
0.576000000000000290,-1.101069878426191639
0.577000000000000401,-1.127609430429418191
0.578000000000000291,-1.153723799205337297
0.579000000000000403,-1.179406950885288463
0.580000000000000293,-1.204653205356627454
0.581000000000000405,-1.229457229878476721
0.582000000000000295,-1.253814032679571255
0.583000000000000407,-1.277718956543671514
0.584000000000000297,-1.301167672387150587
0.585000000000000409,-1.324156172833821810
0.586000000000000298,-1.346680765791307355
0.587000000000000410,-1.368738068033596766
0.588000000000000300,-1.390324998793776912
0.589000000000000412,-1.411438773371219035
0.590000000000000302,-1.432076896756878881
0.591000000000000414,-1.452237157280622970
0.592000000000000304,-1.471917620283986317
0.593000000000000416,-1.491116621821868771
0.594000000000000306,-1.509832762396323691
0.595000000000000417,-1.528064900725660147
0.596000000000000307,-1.545812147551633986
0.597000000000000419,-1.563073859487713158
0.598000000000000309,-1.579849632910988122
0.599000000000000421,-1.596139297900251552
0.600000000000000311,-1.611942912222713797
0.601000000000000423,-1.627260755371606082
0.602000000000000313,-1.642093322656737131
0.603000000000000425,-1.656441319350216546
0.604000000000000314,-1.670305654889023828
0.605000000000000426,-1.683687437136439868
0.606000000000000316,-1.696587966703859252
0.607000000000000428,-1.709008731334634490
0.608000000000000318,-1.720951400351437233
0.609000000000000430,-1.732417819168474704
0.610000000000000320,-1.743410003869809488
0.611000000000000432,-1.753930135855042538
0.612000000000000322,-1.763980556553342627
0.613000000000000433,-1.773563762206885386
0.614000000000000323,-1.782682398724597217
0.615000000000000435,-1.791339256607006103
0.616000000000000325,-1.799537265942934949
0.617000000000000437,-1.807279491478774647
0.618000000000000327,-1.814569127760807588
0.619000000000000439,-1.821409494351213354
0.620000000000000329,-1.827804031118129613
0.621000000000000441,-1.833756293600158127
0.622000000000000330,-1.839269948445667824
0.623000000000000442,-1.844348768927095872
0.624000000000000332,-1.848996630530448160
0.625000000000000444,-1.853217506620169486
0.626000000000000334,-1.857015464179395448
0.627000000000000446,-1.860394659625663305
0.628000000000000336,-1.863359334702024084
0.629000000000000448,-1.865913812443488196
0.630000000000000338,-1.868062493218651365
0.631000000000000449,-1.869809850846384292
0.632000000000000339,-1.871160428787332908
0.633000000000000451,-1.872118836409950138
0.634000000000000341,-1.872689745330822886
0.635000000000000453,-1.872877885828936773
0.636000000000000343,-1.872688043333466057
0.637000000000000455,-1.872125054984780324
0.638000000000000345,-1.871193806268111048
0.639000000000000457,-1.869899227719529877
0.640000000000000346,-1.868246291703649975
0.641000000000000458,-1.866240009262599475
0.642000000000000348,-1.863885427035642861
0.643000000000000460,-1.861187624248941130
0.644000000000000350,-1.858151709774826132
0.645000000000000462,-1.854782819259946702
0.646000000000000352,-1.851086112321675303
0.647000000000000464,-1.847066769812118592
0.648000000000000353,-1.842729991149019586
0.649000000000000465,-1.838080991712867540
0.650000000000000355,-1.833125000309548724
0.651000000000000467,-1.827867256697710996
0.652000000000000357,-1.822313009180238197
0.653000000000000469,-1.816467512258908013
0.654000000000000359,-1.810336024351673512
0.655000000000000471,-1.803923805571602035
0.656000000000000361,-1.797236115566802184
0.657000000000000473,-1.790278211420509802
0.658000000000000362,-1.783055345610530029
0.659000000000000474,-1.775572764027223638
0.660000000000000364,-1.767835704049239620
0.661000000000000476,-1.759849392676148483
