# Cu111_CS-6330-AC
# h[nm],U(h)[kJ/mol]
0.149999999999999994,77.571370783844926677
0.150999999999999995,73.731991126464833997
0.151999999999999996,69.941795411295956342
0.152999999999999997,66.205022113489263802
0.153999999999999998,62.569663784986389032
0.154999999999999999,59.075019155088021705
0.156000000000000000,55.737096875895829839
0.157000000000000001,52.550804665423051176
0.158000000000000002,49.497759254297434950
0.159000000000000002,46.554328107811912218
0.160000000000000003,43.697735388282509916
0.161000000000000004,40.909744614059604828
0.162000000000000005,38.178210995622805513
0.163000000000000006,35.497076642891187248
0.164000000000000007,32.865403674890856678
0.165000000000000008,30.285945425704021261
0.166000000000000009,27.763623447212115281
0.167000000000000010,25.304148636119830229
0.168000000000000010,22.912916777116201672
0.169000000000000011,20.594227631917370047
0.170000000000000012,18.350821348127571042
0.171000000000000013,16.183692363440837170
0.172000000000000014,14.092124170947041506
0.173000000000000015,12.073883494303958130
0.174000000000000016,10.125515482385116783
0.175000000000000017,8.242689207641786808
0.176000000000000018,6.420552613930898822
0.177000000000000018,4.654066415684869007
0.178000000000000019,2.938296207594199405
0.179000000000000020,1.268650569933096328
0.180000000000000021,-0.358940046571191940
0.181000000000000022,-1.947903464189939537
0.182000000000000023,-3.500960853591403854
0.183000000000000024,-5.020110070819967518
0.184000000000000025,-6.506649126201447864
0.185000000000000026,-7.961231084970442851
0.186000000000000026,-9.383941801571550556
0.187000000000000027,-10.774392470411749301
0.188000000000000028,-12.131819869374007581
0.189000000000000029,-13.455188242640247154
0.190000000000000030,-14.743287909448577366
0.191000000000000031,-15.994826815080793736
0.192000000000000032,-17.208512302638034441
0.193000000000000033,-18.383121341519220948
0.194000000000000034,-19.517558279265916354
0.195000000000000034,-20.610899878235390048
0.196000000000000035,-21.662427957315756544
0.197000000000000036,-22.671650388151956435
0.198000000000000037,-23.638311506080576407
0.199000000000000038,-24.562393201814625598
0.200000000000000039,-25.444108075803598012
0.201000000000000040,-26.283886078287167720
0.202000000000000041,-27.082356039025874850
0.203000000000000042,-27.840323425165241389
0.204000000000000042,-28.558745565967353031
0.205000000000000043,-29.238705459995969704
0.206000000000000044,-29.881385142970408708
0.207000000000000045,-30.488039450549479170
0.208000000000000046,-31.059970865949093621
0.209000000000000047,-31.598506002360686296
0.210000000000000048,-32.104974138246660686
0.211000000000000049,-32.580688102313139609
0.212000000000000050,-33.026927695978244515
0.213000000000000050,-33.444925745387465099
0.214000000000000051,-33.835856792803348014
0.215000000000000052,-34.200828368346556374
0.216000000000000053,-34.540874727062551131
0.217000000000000054,-34.856952892330376415
0.218000000000000055,-35.149940813730310651
0.219000000000000056,-35.420637424540259985
0.220000000000000057,-35.669764369877817956
0.221000000000000058,-35.897969169963360514
0.222000000000000058,-36.105829582908349096
0.223000000000000059,-36.293858936719765040
0.224000000000000060,-36.462512209834208932
0.225000000000000061,-36.612192652502258738
0.226000000000000062,-36.743258756880358362
0.227000000000000063,-36.856031400994083924
0.228000000000000064,-36.950801010146953729
0.229000000000000065,-37.027834598293530632
0.230000000000000066,-37.087382570889630529
0.231000000000000066,-37.129685189378122345
0.232000000000000067,-37.154978615444136381
0.233000000000000068,-37.163500470224732908
0.234000000000000069,-37.155494859595364687
0.235000000000000070,-37.131216831344701745
0.236000000000000071,-37.090936243399170280
0.237000000000000072,-37.034941034228758383
0.238000000000000073,-36.963539897136207912
0.239000000000000073,-36.877064369325630366
0.240000000000000074,-36.775870354499794246
0.241000000000000075,-36.660339104306721936
0.242000000000000076,-36.530877689317527768
0.243000000000000077,-36.387918994450231480
0.244000000000000078,-36.231921276948455102
0.245000000000000079,-36.063367327270377416
0.246000000000000080,-35.882763274638591611
0.247000000000000081,-35.690637079638783291
0.248000000000000081,-35.487536756226795376
0.249000000000000082,-35.274028364898455834
0.250000000000000111,-35.050693817681221276
0.251000000000000112,-34.818128534098022442
0.252000000000000113,-34.576938985410443195
0.253000000000000114,-34.327740162334087870
0.254000000000000115,-34.071152999102885417
0.255000000000000115,-33.807801784290887781
0.256000000000000116,-33.538311586237583128
0.257000000000000117,-33.263305718304778225
0.258000000000000118,-32.983403266564586431
0.259000000000000119,-32.699216699908546957
0.260000000000000120,-32.411349580010586635
0.261000000000000121,-32.120394386092733896
0.262000000000000122,-31.826930467054989293
0.263000000000000123,-31.531522131254099861
0.264000000000000123,-31.234716882064049059
0.265000000000000124,-30.937043805332841373
0.266000000000000125,-30.639012112972807245
0.267000000000000126,-30.341109845188192651
0.268000000000000127,-30.043802732257837818
0.269000000000000128,-29.747533215350671298
0.270000000000000129,-29.452719624556515043
0.271000000000000130,-29.159755511161325359
0.272000000000000131,-28.869009130180110390
0.273000000000000131,-28.580823068276544063
0.274000000000000132,-28.295514011440673130
0.275000000000000133,-28.013372646158238410
0.276000000000000134,-27.734663687278803934
0.277000000000000135,-27.459626025370369007
0.278000000000000136,-27.188472986024986966
0.279000000000000137,-26.921392693347417691
0.280000000000000138,-26.658548529709825914
0.281000000000000139,-26.400079683780198536
0.282000000000000139,-26.146101778826533746
0.283000000000000140,-25.896707573352848897
0.284000000000000141,-25.651967726232051348
0.285000000000000142,-25.411931618657142451
0.286000000000000143,-25.176628225430125241
0.287000000000000144,-24.946067028341627037
0.288000000000000145,-24.720238964658644676
0.289000000000000146,-24.499117404026488742
0.290000000000000147,-24.282659147400934785
0.291000000000000147,-24.070805441952082049
0.292000000000000148,-23.863483006219304627
0.293000000000000149,-23.660605060142742673
0.294000000000000150,-23.462072354947650865
0.295000000000000151,-23.267774198211800041
0.296000000000000152,-23.077589469797931798
0.297000000000000153,-22.891387624683677160
0.298000000000000154,-22.709029679065107388
0.299000000000000155,-22.530369176448139967
0.300000000000000155,-22.355253130770847747
0.301000000000000156,-22.183522943918795534
0.302000000000000157,-22.015015295303616227
0.303000000000000158,-21.849563001471345558
0.304000000000000159,-21.686995843990249710
0.305000000000000160,-21.527141364138007162
0.306000000000000161,-21.369825623164640405
0.307000000000000162,-21.214873927149849209
0.308000000000000163,-21.062111515701360531
0.309000000000000163,-20.911364213955344837
0.310000000000000164,-20.762459047539067569
0.311000000000000165,-20.615224820341900624
0.312000000000000166,-20.469492655112695445
0.313000000000000167,-20.325096497059440992
0.314000000000000168,-20.181873580772226262
0.315000000000000169,-20.039664860922577816
0.316000000000000170,-19.898315407311990555
0.317000000000000171,-19.757674764949953783
0.318000000000000171,-19.617597279938017607
0.319000000000000172,-19.477942392021567741
0.320000000000000173,-19.338574894745846677
0.321000000000000174,-19.199365164217095270
0.322000000000000175,-19.060189357525477050
0.323000000000000176,-18.920929581932597330
0.324000000000000177,-18.781474035964663472
0.325000000000000178,-18.641717123582516535
0.326000000000000179,-18.501559542623066790
0.327000000000000179,-18.360908348722503547
0.328000000000000180,-18.219676995941902931
0.329000000000000181,-18.077785355319996086
0.330000000000000182,-17.935159712576485447
0.331000000000000183,-17.791732746183615888
0.332000000000000184,-17.647443487012868246
0.333000000000000185,-17.502237260749545555
0.334000000000000186,-17.356065614249601481
0.335000000000000187,-17.208886226991900514
0.336000000000000187,-17.060662808755012065
0.337000000000000188,-16.911364984620512075
0.338000000000000189,-16.760968168376301435
0.339000000000000190,-16.609453425362303847
0.340000000000000191,-16.456807325768323835
0.341000000000000192,-16.303021789360634841
0.342000000000000193,-16.148093922577931636
0.343000000000000194,-15.992025848902608587
0.344000000000000195,-15.834824533375885025
0.345000000000000195,-15.676501602089121690
0.346000000000000196,-15.517073157446001019
0.347000000000000197,-15.356559589953198142
0.348000000000000198,-15.194985387259896115
0.349000000000000199,-15.032378941129257655
0.350000000000000200,-14.868772352988596452
0.351000000000000201,-14.704201238668161977
0.352000000000000202,-14.538704532903199862
0.353000000000000203,-14.372324294138348222
0.354000000000000203,-14.205105510139309999
0.355000000000000204,-14.037095904882701092
0.356000000000000205,-13.868345747162567960
0.357000000000000206,-13.698907661319703166
0.358000000000000207,-13.528836440469016011
0.359000000000000208,-13.358188862570292699
0.360000000000000209,-13.187023509658406084
0.361000000000000210,-13.015400590521142732
0.362000000000000210,-12.843381767085745082
0.363000000000000211,-12.671029984749482722
0.364000000000000212,-12.498409306864534329
0.365000000000000213,-12.325584753563735063
0.366000000000000214,-12.152622145091049433
0.367000000000000215,-11.979587949778872868
0.368000000000000216,-11.806549136793744736
0.369000000000000217,-11.633573033752261594
0.370000000000000218,-11.460727189290789596
0.371000000000000218,-11.288079240654543156
0.372000000000000219,-11.115696786355393044
0.373000000000000220,-10.943647263932026803
0.374000000000000221,-10.771997832831436526
0.375000000000000222,-10.600815262416945828
0.376000000000000223,-10.430165825095105703
0.377000000000000224,-10.260115194541970851
0.378000000000000225,-10.090728348997917152
0.379000000000000226,-9.922069479589927354
0.380000000000000226,-9.754201903630804082
0.381000000000000227,-9.587187982835729372
0.382000000000000228,-9.421089046388846810
0.383000000000000229,-9.255965318784973306
0.384000000000000230,-9.091875852364717403
0.385000000000000231,-8.928878464455630493
0.386000000000000232,-8.767029679026167699
0.387000000000000233,-8.606384672754463949
0.388000000000000234,-8.446997225409798915
0.389000000000000234,-8.288919674440615282
0.390000000000000235,-8.132202873659714726
0.391000000000000236,-7.976896155914634967
0.392000000000000237,-7.823047299628422380
0.393000000000000238,-7.670702499094653959
0.394000000000000239,-7.519906338408416602
0.395000000000000240,-7.370701768914256213
0.396000000000000241,-7.223130090051038010
0.397000000000000242,-7.077230933473186880
0.398000000000000242,-6.933042250327792644
0.399000000000000243,-6.790600301566939834
0.400000000000000244,-6.649939651174958222
0.401000000000000245,-6.511093162191395223
0.402000000000000246,-6.374091995410724465
0.403000000000000247,-6.238965610641182380
0.404000000000000248,-6.105741770406545754
0.405000000000000249,-5.974446545975768075
0.406000000000000250,-5.845104325607217710
0.407000000000000250,-5.717737824895921861
0.408000000000000251,-5.592368099114105817
0.409000000000000252,-5.469014557437432700
0.410000000000000253,-5.347694978951206046
0.411000000000000254,-5.228425530333352000
0.412000000000000255,-5.111220785112950082
0.413000000000000256,-4.996093744405730064
0.414000000000000257,-4.883055859030084989
0.415000000000000258,-4.772117052909964130
0.416000000000000258,-4.663285747673247883
0.417000000000000259,-4.556568888356883562
0.418000000000000260,-4.451971970132733603
0.419000000000000261,-4.349499065970411138
0.420000000000000262,-4.249152855156387076
0.421000000000000263,-4.150934652590958507
0.422000000000000264,-4.054844438787391425
0.423000000000000265,-3.960880890500200202
0.424000000000000266,-3.869041411912181871
0.425000000000000266,-3.779322166312228060
0.426000000000000267,-3.691718108198679182
0.427000000000000268,-3.606223015745479987
0.428000000000000269,-3.522829523570904176
0.429000000000000270,-3.441529155751071212
0.430000000000000271,-3.362312359023007957
0.431000000000000272,-3.285168536124325467
0.432000000000000273,-3.210086079219037547
0.433000000000000274,-3.137052403361321851
0.434000000000000274,-3.066053979951325559
0.435000000000000275,-2.997076370139367008
0.436000000000000276,-2.930104258137082418
0.437000000000000277,-2.865121484396123019
0.438000000000000278,-2.802111078617260276
0.439000000000000279,-2.741055292554668732
0.440000000000000280,-2.681935632582127305
0.441000000000000281,-2.624732891989940420
0.442000000000000282,-2.569427182983164748
0.443000000000000282,-2.515997968353530734
0.444000000000000283,-2.464424092799351040
0.445000000000000284,-2.414683813869298756
0.446000000000000285,-2.366754832507596440
0.447000000000000286,-2.320614323179987171
0.448000000000000287,-2.276238963561054707
0.449000000000000288,-2.233604963765339679
0.450000000000000289,-2.192688095105893797
0.451000000000000290,-2.153463718365419943
0.452000000000000290,-2.115906811566488077
0.453000000000000291,-2.079991997228621159
0.454000000000000292,-2.045693569101278086
0.455000000000000293,-2.012985518362964577
0.456000000000000294,-1.981841559277883080
0.457000000000000295,-1.952235154302561781
0.458000000000000296,-1.924139538636121971
0.459000000000000297,-1.897527744208619804
0.460000000000000298,-1.872372623103124356
0.461000000000000298,-1.848646870407860687
0.462000000000000299,-1.826323046495906599
0.463000000000000300,-1.805373598730489748
0.464000000000000301,-1.785770882594950537
0.465000000000000302,-1.767487182247073019
0.466000000000000303,-1.750494730498291407
0.467000000000000304,-1.734765728218800707
0.468000000000000305,-1.720272363170540997
0.469000000000000306,-1.706986828270300238
0.470000000000000306,-1.694881339285986943
0.471000000000000307,-1.683928151969581011
0.472000000000000308,-1.674099578630829033
0.473000000000000309,-1.665368004156130510
0.474000000000000310,-1.657705901477612986
0.475000000000000311,-1.651085846497824416
0.476000000000000312,-1.645480532475740221
0.477000000000000313,-1.640862783880256970
0.478000000000000314,-1.637205569717667730
0.479000000000000314,-1.634482016339895427
0.480000000000000315,-1.632665419740544577
0.481000000000000316,-1.631729257346151929
0.482000000000000317,-1.631647199310199525
0.483000000000000318,-1.632393119317698149
0.484000000000000319,-1.633941104908333886
0.485000000000000320,-1.636265467326434520
0.486000000000000321,-1.639340750905994737
0.487000000000000322,-1.643141741999328387
0.488000000000000322,-1.647643477457968242
0.489000000000000323,-1.652821252674454344
0.490000000000000324,-1.658650629193925807
0.491000000000000325,-1.665107441904359664
0.492000000000000326,-1.672167805814401165
0.493000000000000327,-1.679808122427808526
0.494000000000000328,-1.688005085723557341
0.495000000000000329,-1.696735687750650312
0.496000000000000330,-1.705977223846719015
0.497000000000000330,-1.715707297489455829
0.498000000000000331,-1.725903824790034236
0.499000000000000332,-1.736545038637404392
0.500000000000000333,-1.747609492502618433
0.501000000000000334,-1.759076063912107246
0.502000000000000335,-1.770923957598792953
0.503000000000000336,-1.783132708339968620
0.504000000000000337,-1.795682183490717065
0.505000000000000338,-1.808552585221611775
0.506000000000000338,-1.821724452469356992
0.507000000000000339,-1.835178662608951017
0.508000000000000340,-1.848896432855884342
0.509000000000000341,-1.862859321406683533
0.510000000000000342,-1.877049228326224339
0.511000000000000343,-1.891448396189896686
0.512000000000000344,-1.906039410488790775
0.513000000000000345,-1.920805199805814656
0.514000000000000346,-1.935729035770673345
0.515000000000000346,-1.950794532801405357
0.516000000000000347,-1.965985647640120293
0.517000000000000348,-1.981286678690463265
0.518000000000000349,-1.996682265164151371
0.519000000000000350,-2.012157386043833096
0.520000000000000351,-2.027697358869482880
0.521000000000000352,-2.043287838355168695
0.522000000000000353,-2.058914814843202823
0.523000000000000353,-2.074564612602342706
0.524000000000000354,-2.090223887976621064
0.525000000000000355,-2.105879627391336939
0.526000000000000356,-2.121519145222468872
0.527000000000000357,-2.137130081535733250
0.528000000000000358,-2.152700399701418910
0.529000000000000359,-2.168218383890743617
0.530000000000000360,-2.183672636459764504
0.531000000000000361,-2.199052075226300751
0.532000000000000361,-2.214345930645517768
0.533000000000000362,-2.229543742889492197
0.534000000000000363,-2.244635358836084116
0.535000000000000364,-2.259610928972182187
0.536000000000000365,-2.274460904216372814
0.537000000000000366,-2.289176032665865002
0.538000000000000367,-2.303747356272453306
0.539000000000000368,-2.318166207452081018
0.540000000000000369,-2.332424205632553260
0.541000000000000369,-2.346513253743705896
0.542000000000000370,-2.360425534654329027
0.543000000000000371,-2.374153507559900955
0.544000000000000372,-2.387689904325210222
0.545000000000000373,-2.401027725785659594
0.546000000000000374,-2.414160238011107573
0.547000000000000375,-2.427080968535810346
0.548000000000000376,-2.439783702558081746
0.549000000000000377,-2.452262479113031635
0.550000000000000377,-2.464511587221722255
0.551000000000000378,-2.476525562019973314
0.552000000000000379,-2.488299180869867566
0.553000000000000380,-2.499827459456991363
0.554000000000000381,-2.511105647876292313
0.555000000000000382,-2.522129226709343808
0.556000000000000383,-2.532893903095710719
0.557000000000000384,-2.543395606801012843
0.558000000000000385,-2.553630486284201417
0.559000000000000385,-2.563594904766450355
0.560000000000000386,-2.573285436303947016
0.561000000000000387,-2.582698861866878026
0.562000000000000388,-2.591832165426709356
0.563000000000000389,-2.600682530053798125
0.564000000000000390,-2.609247334027354537
0.565000000000000391,-2.617524146959619546
0.566000000000000392,-2.625510725936071488
0.567000000000000393,-2.633205011673390050
0.568000000000000393,-2.640605124696834949
0.569000000000000394,-2.647709361538648665
0.570000000000000395,-2.654516190958942534
0.571000000000000396,-2.661024250190546336
0.572000000000000397,-2.667232341209174074
0.573000000000000398,-2.673139427030222670
0.574000000000000399,-2.678744628033404851
0.575000000000000400,-2.684047218316456984
0.576000000000000401,-2.689046622078948623
0.577000000000000401,-2.693742410037312407
0.578000000000000402,-2.698134295872073096
0.579000000000000403,-2.702222132708178570
0.580000000000000404,-2.706005909629351169
0.581000000000000405,-2.709485748227272506
0.582000000000000406,-2.712661899186362024
0.583000000000000407,-2.715534738904901602
0.584000000000000408,-2.718104766153160767
0.585000000000000409,-2.720372598769132733
0.586000000000000409,-2.722338970392509161
0.587000000000000410,-2.724004727237384405
0.588000000000000411,-2.725370824904202127
0.589000000000000412,-2.726438325231383519
0.590000000000000413,-2.727208393187057656
0.591000000000000414,-2.727682293801262592
0.592000000000000415,-2.727861389138925396
0.593000000000000416,-2.727747135313951077
0.594000000000000417,-2.727341079544663760
0.595000000000000417,-2.726644857250804854
0.596000000000000418,-2.725660189192320448
0.597000000000000419,-2.724388878650067625
0.598000000000000420,-2.722832808648571135
0.599000000000000421,-2.720993939220947233
0.600000000000000422,-2.718874304716048407
0.601000000000000423,-2.716476011147873404
0.602000000000000424,-2.713801233587267436
0.603000000000000425,-2.710852213595913884
0.604000000000000425,-2.707631256702538458
0.605000000000000426,-2.704140729921337805
0.606000000000000427,-2.700383059312492673
0.607000000000000428,-2.696360727584699024
0.608000000000000429,-2.692076271739584303
