# Cu111_CS-13835336-AC
# h[nm],U(h)[kJ/mol]
0.200000000000000011,68.960693504268178344
0.201000000000000012,61.669090499750005563
0.202000000000000013,58.061263677657997562
0.203000000000000014,56.116467845558211991
0.204000000000000015,54.702423376853232639
0.205000000000000016,53.248235028101795763
0.206000000000000016,51.522327347740201731
0.207000000000000017,49.485070179984973038
0.208000000000000018,47.193833114456424482
0.209000000000000019,44.744260871790217493
0.210000000000000020,42.236080386579089918
0.211000000000000021,39.755103332160409479
0.212000000000000022,37.365558625994587771
0.213000000000000023,35.108695672567236556
0.214000000000000024,33.004907216216700760
0.215000000000000024,31.057557611373578510
0.216000000000000025,29.257364476333417969
0.217000000000000026,27.586641993857597299
0.218000000000000027,26.023027444580975498
0.219000000000000028,24.542520000889986420
0.220000000000000029,23.121792946127875723
0.221000000000000030,21.739819905687330248
0.222000000000000031,20.378898931943172812
0.223000000000000032,19.025177378889960522
0.224000000000000032,17.668784039858888235
0.225000000000000033,16.303669081064100510
0.226000000000000034,14.927241099517885914
0.227000000000000035,13.539877018313500656
0.228000000000000036,12.144366372572424240
0.229000000000000037,10.745337999674529073
0.230000000000000038,9.348704898461544843
0.231000000000000039,7.961152395554449868
0.232000000000000040,6.589685857949127978
0.233000000000000040,5.241246979660952654
0.234000000000000041,3.922402018992795725
0.235000000000000042,2.639101097570363930
0.236000000000000043,1.396504598652152040
0.237000000000000044,0.198870625026261655
0.238000000000000045,-0.950503789281667899
0.239000000000000046,-2.049295642920240912
0.240000000000000047,-3.096131166127503054
0.241000000000000048,-4.090531078004965515
0.242000000000000048,-5.032833230648945388
0.243000000000000049,-5.924099302868221173
0.244000000000000050,-6.766011440050400338
0.245000000000000051,-7.560763925405206365
0.246000000000000052,-8.310954153341359785
0.247000000000000053,-9.019476389064555732
0.248000000000000054,-9.689421061337618823
0.249000000000000055,-10.323981661971107116
0.250000000000000056,-10.926370724308098303
0.251000000000000056,-11.499745827377491736
0.252000000000000057,-12.047146122642804045
0.253000000000000058,-12.571439503892285927
0.254000000000000059,-13.075280233506102689
0.255000000000000060,-13.561076594585770749
0.256000000000000061,-14.030967952020597878
0.257000000000000062,-14.486810469940525792
0.258000000000000063,-14.930170641574946444
0.259000000000000064,-15.362325733888686941
0.260000000000000064,-15.784270227420950761
0.261000000000000065,-16.196727335864217423
0.262000000000000066,-16.600164714945577771
0.263000000000000067,-16.994813511496641212
0.264000000000000068,-17.380689957147488656
0.265000000000000069,-17.757618773309921778
0.266000000000000070,-18.125257721985697401
0.267000000000000071,-18.483122707884934499
0.268000000000000071,-18.830612909239054176
0.269000000000000072,-19.167035485813315177
0.270000000000000073,-19.491629481590045714
0.271000000000000074,-19.803588605341303719
0.272000000000000075,-20.102082634053527244
0.273000000000000076,-20.386277241347443123
0.274000000000000077,-20.655352105304928045
0.275000000000000078,-20.908517197279621769
0.276000000000000079,-21.145027195282725785
0.277000000000000079,-21.364194002462053135
0.278000000000000080,-21.565397383179757185
0.279000000000000081,-21.748093756464918158
0.280000000000000082,-21.911823209436722237
0.281000000000000083,-22.056214811970697554
0.282000000000000084,-22.180990328740030293
0.283000000000000085,-22.285966436147671033
0.284000000000000086,-22.371055559915838273
0.285000000000000087,-22.436265454557496213
0.286000000000000087,-22.481697648950792257
0.287000000000000088,-22.507544883089344978
0.288000000000000089,-22.514087660089366238
0.289000000000000090,-22.501690034981631783
0.290000000000000091,-22.470794757961652266
0.291000000000000092,-22.421917884858110881
0.292000000000000093,-22.355642961823100734
0.293000000000000094,-22.272614884847612871
0.294000000000000095,-22.173533527836390533
0.295000000000000095,-22.059147225794852432
0.296000000000000096,-21.930246192323053833
0.297000000000000097,-21.787655943197172803
0.298000000000000098,-21.632230790447501079
0.299000000000000099,-21.464847464102469132
0.300000000000000100,-21.286398911728461769
0.301000000000000101,-21.097788319116791200
0.302000000000000102,-20.899923388997120099
0.303000000000000103,-20.693710908527155112
0.304000000000000103,-20.480051630547876584
0.305000000000000104,-20.259835488220961253
0.306000000000000105,-20.033937157690345998
0.307000000000000106,-19.803211978838039187
0.308000000000000107,-19.568492240034728979
0.309000000000000108,-19.330583829013139763
0.310000000000000109,-19.090263248606529345
0.311000000000000110,-18.848274993085290419
0.312000000000000111,-18.605329278174522756
0.313000000000000111,-18.362100115530552102
0.314000000000000112,-18.119223720473293326
0.315000000000000113,-17.877297240097398401
0.316000000000000114,-17.636877787496999304
0.317000000000000115,-17.398481766716166419
0.318000000000000116,-17.162584472159871041
0.319000000000000117,-16.929619945548211035
0.320000000000000118,-16.699981073049038116
0.321000000000000119,-16.474019904962680982
0.322000000000000119,-16.252048180237718356
0.323000000000000120,-16.034338038150849570
0.324000000000000121,-15.821122899669802564
0.325000000000000122,-15.612598501319798316
0.326000000000000123,-15.408924064775831653
0.327000000000000124,-15.210223585890172870
0.328000000000000125,-15.016587227425409523
0.329000000000000126,-14.828072800383045760
0.330000000000000127,-14.644707319486958141
0.331000000000000127,-14.466488619088696765
0.332000000000000128,-14.293387016497586472
0.333000000000000129,-14.125347010494980537
0.334000000000000130,-13.962289003560769629
0.335000000000000131,-13.804111037114438432
0.336000000000000132,-13.650690529845750376
0.337000000000000133,-13.501886009977573266
0.338000000000000134,-13.357538833058322680
0.339000000000000135,-13.217474877622606755
0.340000000000000135,-13.081506211779432292
0.341000000000000136,-12.949432724487383695
0.342000000000000137,-12.821043715950782627
0.343000000000000138,-12.696119442219854889
0.344000000000000139,-12.574432609697840491
0.345000000000000140,-12.455749815849493700
0.346000000000000141,-12.339832932965723700
0.347000000000000142,-12.226440432369091837
0.348000000000000143,-12.115328646943686053
0.349000000000000143,-12.006252970339982511
0.350000000000000144,-11.898968991641725168
0.351000000000000145,-11.793233564687543691
0.352000000000000146,-11.688805811615077701
0.353000000000000147,-11.585448060541331472
0.354000000000000148,-11.482926717610073553
0.355000000000000149,-11.381013073925888790
0.356000000000000150,-11.279484048157154774
0.357000000000000151,-11.178122865826178867
0.358000000000000151,-11.076719676516621149
0.359000000000000152,-10.975072110416007831
0.360000000000000153,-10.872985775776857764
0.361000000000000154,-10.770274699023978826
0.362000000000000155,-10.666761709359587229
0.363000000000000156,-10.562278769823040037
0.364000000000000157,-10.456667256849243586
0.365000000000000158,-10.349778190440868997
0.366000000000000159,-10.241472417124436234
0.367000000000000159,-10.131620747901431301
0.368000000000000160,-10.020104053433604108
0.369000000000000161,-9.906813318716448435
0.370000000000000162,-9.791649659499649161
0.371000000000000163,-9.674524302707160572
0.372000000000000164,-9.555358533093960105
0.373000000000000165,-9.434083608353352801
0.374000000000000166,-9.310640644856892578
0.375000000000000167,-9.184980476171313413
0.376000000000000167,-9.057063486452637591
0.377000000000000168,-8.926859420768305853
0.378000000000000169,-8.794347174344355977
0.379000000000000170,-8.659514562676779548
0.380000000000000171,-8.522358074384806415
0.381000000000000172,-8.382882608620121800
0.382000000000000173,-8.241101198779309911
0.383000000000000174,-8.097034724199106748
0.384000000000000175,-7.950711611444178928
0.385000000000000175,-7.802167526727015634
0.386000000000000176,-7.651445060928274700
0.387000000000000177,-7.498593408614818934
0.388000000000000178,-7.343668042381513494
0.389000000000000179,-7.186730383772017561
0.390000000000000180,-7.027847471963724502
0.391000000000000181,-6.867091631332543855
0.392000000000000182,-6.704540138945378480
0.393000000000000183,-6.540274892960573183
0.394000000000000183,-6.374382082851594689
0.395000000000000184,-6.206951862304921796
0.396000000000000185,-6.038078025580664310
0.397000000000000186,-5.867857688064232136
0.398000000000000187,-5.696390971678248150
0.399000000000000188,-5.523780695767298354
0.400000000000000189,-5.350132074013551176
0.401000000000000190,-5.175552417887899992
0.402000000000000191,-5.000150847091505035
0.403000000000000191,-4.824038007393072647
0.404000000000000192,-4.647325796221416283
0.405000000000000193,-4.470127096328097238
0.406000000000000194,-4.292555517792675523
0.407000000000000195,-4.114725148603127103
0.408000000000000196,-3.936750314005353690
0.409000000000000197,-3.758745344780018538
0.410000000000000198,-3.580824354570647294
0.411000000000000199,-3.403101026354649061
0.412000000000000199,-3.225688408118701833
0.413000000000000200,-3.048698717771828548
0.414000000000000201,-2.872243157302484473
0.415000000000000202,-2.696431736161443382
0.416000000000000203,-2.521373103829408713
0.417000000000000204,-2.347174391506249069
0.418000000000000205,-2.173941062839738869
0.419000000000000206,-2.001776773592955916
0.420000000000000207,-1.830783240132679790
0.421000000000000207,-1.661060116606423831
0.422000000000000208,-1.492704880660960187
0.423000000000000209,-1.325812727543405511
0.424000000000000210,-1.160476472413982441
0.425000000000000211,-0.996786460689759957
0.426000000000000212,-0.834830486229553137
0.427000000000000213,-0.674693717162244910
0.428000000000000214,-0.516458629154046944
0.429000000000000214,-0.360204945904079588
0.430000000000000215,-0.206009586652831450
0.431000000000000216,-0.053946620484138563
0.432000000000000217,0.095912772802497465
0.433000000000000218,0.243500335474280460
0.434000000000000219,0.388750758529480822
0.435000000000000220,0.531601702471916404
0.436000000000000221,0.671993812424278802
0.437000000000000222,0.809870727808873925
0.438000000000000222,0.945179086823595305
0.439000000000000223,1.077868525939863265
0.440000000000000224,1.207891674647589619
0.441000000000000225,1.335204145670164433
0.442000000000000226,1.459764520869738513
0.443000000000000227,1.581534333060690800
0.444000000000000228,1.700478043945527373
0.445000000000000229,1.816563018384278250
0.446000000000000230,1.929759495204500297
0.447000000000000230,2.040040554755225166
0.448000000000000231,2.147382083403771347
0.449000000000000232,2.251762735170034002
0.450000000000000233,2.353163890688349191
0.451000000000000234,2.451569613682169635
0.452000000000000235,2.546966605132110040
0.453000000000000236,2.639344155312925100
0.454000000000000237,2.728694093869841630
0.455000000000000238,2.815010738099855025
0.456000000000000238,2.898290839598085977
0.457000000000000239,2.978533529424582049
0.458000000000000240,3.055740261941183089
0.459000000000000241,3.129914757463512220
0.460000000000000242,3.201062943867347688
0.461000000000000243,3.269192897283941246
0.462000000000000244,3.334314782013356737
0.463000000000000245,3.396440789780028613
0.464000000000000246,3.455585078449548320
0.465000000000000246,3.511763710320632725
0.466000000000000247,3.564994590101472571
0.467000000000000248,3.615297402674636285
0.468000000000000249,3.662693550749858584
0.469000000000000250,3.707206092499507832
0.470000000000000251,3.748859679266717482
0.471000000000000252,3.787680493431756279
0.472000000000000253,3.823696186517648865
0.473000000000000254,3.856935817611796047
0.474000000000000254,3.887429792176106957
0.475000000000000255,3.915209801313888960
0.476000000000000256,3.940308761557916650
0.477000000000000257,3.962760755239915333
0.478000000000000258,3.982600971498088338
0.479000000000000259,3.999865647975548999
0.480000000000000260,4.014592013258786452
0.481000000000000261,4.026818230102064966
0.482000000000000262,4.036583339479938637
0.483000000000000262,4.043927205507209521
0.484000000000000263,4.048890461262045548
0.485000000000000264,4.051514455545381033
0.486000000000000265,4.051841200606367543
0.487000000000000266,4.049913320861111110
0.488000000000000267,4.045774002629159760
0.489000000000000268,4.039466944909340107
0.490000000000000269,4.031036311214486467
0.491000000000000270,4.020526682481685654
0.492000000000000270,4.007983011072798973
0.493000000000000271,3.993450575877436570
0.494000000000000272,3.976974938528845538
0.495000000000000273,3.958601900740655655
0.496000000000000274,3.938377462771035731
0.497000000000000275,3.916347783018623296
0.498000000000000276,3.892559138752873960
0.499000000000000277,3.867057887980108521
0.500000000000000222,3.839890432444490465
0.501000000000000334,3.811103181762212078
0.502000000000000224,3.780742518685261899
0.503000000000000336,3.748854765490207797
0.504000000000000226,3.715486151485951183
0.505000000000000338,3.680682781633245249
0.506000000000000227,3.644490606267818400
0.507000000000000339,3.606955391917686882
0.508000000000000229,3.568122693204491380
0.509000000000000341,3.528037825817468498
0.510000000000000231,3.486745840548322484
0.511000000000000343,3.444291498373838856
0.512000000000000233,3.400719246573036258
0.513000000000000345,3.356073195864303305
0.514000000000000234,3.310397098548000461
0.515000000000000346,3.263734327638846189
0.516000000000000236,3.216127856972465615
0.517000000000000348,3.167620242269374664
0.518000000000000238,3.118253603140034524
0.519000000000000350,3.068069606013298589
0.520000000000000240,3.017109447971221492
0.521000000000000352,2.965413841472032352
0.522000000000000242,2.913022999943553071
0.523000000000000353,2.859976624228389053
0.524000000000000243,2.806313889862864563
0.525000000000000355,2.752073435170687254
0.526000000000000245,2.697293350152946356
0.527000000000000357,2.642011166155290525
0.528000000000000247,2.586263846293730406
0.529000000000000359,2.530087776619873718
0.530000000000000249,2.473518758006876261
0.531000000000000361,2.416591998737020575
0.532000000000000250,2.359342107772283814
0.533000000000000362,2.301803088688771037
0.534000000000000252,2.244008334256759607
0.535000000000000364,2.185990621647108778
0.536000000000000254,2.127782108246274895
0.537000000000000366,2.069414328060843911
0.538000000000000256,2.010918188694000630
0.539000000000000368,1.952323968875385729
0.540000000000000258,1.893661316526936478
0.541000000000000369,1.834959247346563460
0.542000000000000259,1.776246143892763696
0.543000000000000371,1.717549755152379065
0.544000000000000261,1.658897196574895094
0.545000000000000373,1.600314950556261717
0.546000000000000263,1.541828867355941046
0.547000000000000375,1.483464166430484399
0.548000000000000265,1.425245438168251555
0.549000000000000377,1.367196646008783434
0.550000000000000266,1.309341128932066001
0.551000000000000378,1.251701604301843407
0.552000000000000268,1.194300171048547687
0.553000000000000380,1.137158313176854785
0.554000000000000270,1.080296903583789270
0.555000000000000382,1.023736208173009699
0.556000000000000272,0.967495890251843571
0.557000000000000384,0.911595015197274039
0.558000000000000274,0.856052055377931942
0.559000000000000385,0.800884895319017631
0.560000000000000275,0.746110837097746615
0.561000000000000387,0.691746605956790495
0.562000000000000277,0.637808356124005882
0.563000000000000389,0.584311676826392956
0.564000000000000279,0.531271598487229380
0.565000000000000391,0.478702599094905590
0.566000000000000281,0.426618610732994674
0.567000000000000393,0.375033026260638891
0.568000000000000282,0.323958706133354590
0.569000000000000394,0.273407985353926686
0.570000000000000284,0.223392680544132721
0.571000000000000396,0.173924097127367283
0.572000000000000286,0.125013036613544709
0.573000000000000398,0.076669803977003209
0.574000000000000288,0.028904215119155873
0.575000000000000400,-0.018274395592778835
0.576000000000000290,-0.064857167718640502
0.577000000000000401,-0.110835707078007800
0.578000000000000291,-0.156202078029872876
0.579000000000000403,-0.200948795706877237
0.580000000000000293,-0.245068818210947142
0.581000000000000405,-0.288555538777421960
0.582000000000000295,-0.331402777913821167
0.583000000000000407,-0.373604775520096466
0.584000000000000297,-0.415156182995960799
0.585000000000000409,-0.456052055341644558
0.586000000000000298,-0.496287843257294525
0.587000000000000410,-0.535859385246877595
0.588000000000000300,-0.574762899731406263
0.589000000000000412,-0.612994977176893108
0.590000000000000302,-0.650552572241484106
0.591000000000000414,-0.687432995946703818
0.592000000000000304,-0.723633907876962135
0.593000000000000416,-0.759153308411759875
0.594000000000000306,-0.793989530994455794
0.595000000000000417,-0.828141234441649110
0.596000000000000307,-0.861607395296603129
0.597000000000000419,-0.894387300230474303
0.598000000000000309,-0.926480538494525385
0.599000000000000421,-0.957886994426507599
0.600000000000000311,-0.988606840014269905
0.601000000000000423,-1.018640527519473427
0.602000000000000313,-1.047988782163936206
0.603000000000000425,-1.076652594881471803
0.604000000000000314,-1.104633215137257540
0.605000000000000426,-1.131932143817364622
0.606000000000000316,-1.158551126190279446
0.607000000000000428,-1.184492144942610459
0.608000000000000318,-1.209757413290765804
0.609000000000000430,-1.234349368170408301
0.610000000000000320,-1.258270663505177911
0.611000000000000432,-1.281524163556416296
0.612000000000000322,-1.304112936355025898
0.613000000000000433,-1.326040247216971668
0.614000000000000323,-1.347309552343466388
0.615000000000000435,-1.367924492506989553
0.616000000000000325,-1.387888886824012680
0.617000000000000437,-1.407206726615487069
0.618000000000000327,-1.425882169355663809
0.619000000000000439,-1.443919532710125297
0.620000000000000329,-1.461323288663529452
0.621000000000000441,-1.478098057737614379
0.622000000000000330,-1.494248603299938916
0.623000000000000442,-1.509779825963711186
0.624000000000000332,-1.524696758078924352
0.625000000000000444,-1.539004558315184124
0.626000000000000334,-1.552708506336180960
0.627000000000000446,-1.565813997566054327
0.628000000000000336,-1.578326538047566396
0.629000000000000448,-1.590251739392112063
0.630000000000000338,-1.601595313821368549
0.631000000000000449,-1.612363069300576601
0.632000000000000339,-1.622560904763096890
0.633000000000000451,-1.632194805426059769
0.634000000000000341,-1.641270838196751125
0.635000000000000453,-1.649795147169468068
0.636000000000000343,-1.657773949212271392
0.637000000000000455,-1.665213529643404300
0.638000000000000345,-1.672120237996655323
0.639000000000000457,-1.678500483875356775
0.640000000000000346,-1.684360732894284451
0.641000000000000458,-1.689707502708986286
0.642000000000000348,-1.694547359131796993
0.643000000000000460,-1.698886912333980037
0.644000000000000350,-1.702732813133218004
0.645000000000000462,-1.706091749365785670
0.646000000000000352,-1.708970442342605534
0.647000000000000464,-1.711375643388503009
0.648000000000000353,-1.713314130463734042
0.649000000000000465,-1.714792704867091899
0.650000000000000355,-1.715818188019681667
0.651000000000000467,-1.716397418328509783
0.652000000000000357,-1.716537248129072379
0.653000000000000469,-1.716244540705925914
0.654000000000000359,-1.715526167390504897
0.655000000000000471,-1.714389004735107802
0.656000000000000361,-1.712839931762193846
0.657000000000000473,-1.710885827288049610
0.658000000000000362,-1.708533567319834079
0.659000000000000474,-1.705790022525060623
0.660000000000000364,-1.702662055772532046
0.661000000000000476,-1.699156519743754146
0.662000000000000366,-1.695280254613833915
0.663000000000000478,-1.691040085800852966
