# Cu111_CS-66578-AC
# h[nm],U(h)[kJ/mol]
0.149999999999999994,76.169548769406119959
0.150999999999999995,72.931944104523822148
0.151999999999999996,69.711315761793031243
0.152999999999999997,66.508103411968207297
0.153999999999999998,63.364245824593695033
0.154999999999999999,60.317333174426963183
0.156000000000000000,57.386575243931488899
0.157000000000000001,54.573307155854273276
0.158000000000000002,51.866739484449396969
0.159000000000000002,49.250357719426787639
0.160000000000000003,46.707028119140417743
0.161000000000000004,44.222275401956395058
0.162000000000000005,41.785873606088742349
0.163000000000000006,39.392154376487624745
0.164000000000000007,37.039482033196378552
0.165000000000000008,34.729287454876107688
0.166000000000000009,32.464958359310671199
0.167000000000000010,30.250786457556689157
0.168000000000000010,28.091088322526626797
0.169000000000000011,25.989552300794770190
0.170000000000000012,23.948818482148165998
0.171000000000000013,21.970270058436955907
0.172000000000000014,20.053998842509638934
0.173000000000000015,18.198901747778027271
0.174000000000000016,16.402865541940258254
0.175000000000000017,14.663001671154153982
0.176000000000000018,12.975899499802835635
0.177000000000000018,11.337873570607440499
0.178000000000000019,9.745187560026383977
0.179000000000000020,8.194243940341923604
0.180000000000000021,6.681733682438024680
0.181000000000000022,5.204744547795741028
0.182000000000000023,3.760829653408462203
0.183000000000000024,2.348040152429082816
0.184000000000000025,0.964927198653847129
0.185000000000000026,-0.389480989352006535
0.186000000000000026,-1.715721024966615715
0.187000000000000027,-3.013949531019728845
0.188000000000000028,-4.284006438268360029
0.189000000000000029,-5.525481924034915338
0.190000000000000030,-6.737783266645148039
0.191000000000000031,-7.920198662905335141
0.192000000000000032,-9.071955797319640524
0.193000000000000033,-10.192273632198567412
0.194000000000000034,-11.280406488207393778
0.195000000000000034,-12.335679995596542824
0.196000000000000035,-13.357518914827442913
0.197000000000000036,-14.345467154269801568
0.198000000000000037,-15.299200558399491001
0.199000000000000038,-16.218533211043755671
0.200000000000000039,-17.103418104501866281
0.201000000000000040,-17.953943077044421273
0.202000000000000041,-18.770322928432559451
0.203000000000000042,-19.552888595200062838
0.204000000000000042,-20.302074213172858208
0.205000000000000043,-21.018402821731950070
0.206000000000000044,-21.702471379276083496
0.207000000000000045,-22.354935667757363404
0.208000000000000046,-22.976495570586298101
0.209000000000000047,-23.567881116217524351
0.210000000000000048,-24.129839592075644106
0.211000000000000049,-24.663123952147035567
0.212000000000000050,-25.168482667897510652
0.213000000000000050,-25.646651106975731693
0.214000000000000051,-26.098344467792951917
0.215000000000000052,-26.524252250533521647
0.216000000000000053,-26.925034206179468299
0.217000000000000054,-27.301317674252082668
0.218000000000000055,-27.653696196566762922
0.219000000000000056,-27.982729277650332023
0.220000000000000057,-28.288943151823712441
0.221000000000000058,-28.572832411519168971
0.222000000000000058,-28.834862350415807697
0.223000000000000059,-29.075471877689153644
0.224000000000000060,-29.295076865383599340
0.225000000000000061,-29.494073798985890988
0.226000000000000062,-29.672843611113886908
0.227000000000000063,-29.831755589320657407
0.228000000000000064,-29.971171260888269217
0.229000000000000065,-30.091448169757931907
0.230000000000000066,-30.192943473077331618
0.231000000000000066,-30.276017296969644832
0.232000000000000067,-30.341035802814854350
0.233000000000000068,-30.388373926412299397
0.234000000000000069,-30.418417762727596454
0.235000000000000070,-30.431566578426306080
0.236000000000000071,-30.428234442999258391
0.237000000000000072,-30.408851476957504900
0.238000000000000073,-30.373864722310930375
0.239000000000000073,-30.323738646353483261
0.240000000000000074,-30.258955294689133808
0.241000000000000075,-30.180014113484560312
0.242000000000000076,-30.087431464176614071
0.243000000000000077,-29.981739856353165408
0.244000000000000078,-29.863486926325073512
0.245000000000000079,-29.733234190078434267
0.246000000000000080,-29.591555599906534724
0.247000000000000081,-29.439035934134039962
0.248000000000000081,-29.276269049025195557
0.249000000000000082,-29.103856021274879140
0.250000000000000111,-28.922403208474559477
0.251000000000000112,-28.732520253677762412
0.252000000000000113,-28.534818058715519129
0.253000000000000114,-28.329906749273639832
0.254000000000000115,-28.118393652987794695
0.255000000000000115,-27.900881309974192135
0.256000000000000116,-27.677965533328926284
0.257000000000000117,-27.450233535227482662
0.258000000000000118,-27.218262132363641115
0.259000000000000119,-26.982616042606629492
0.260000000000000120,-26.743846282946570625
0.261000000000000121,-26.502488677055055177
0.262000000000000122,-26.259062479125645950
0.263000000000000123,-26.014069119085867499
0.264000000000000123,-25.767991072797173047
0.265000000000000124,-25.521290859486995828
0.266000000000000125,-25.274410167391589965
0.267000000000000126,-25.027769107431204532
0.268000000000000127,-24.781765593690614935
0.269000000000000128,-24.536774848537621807
0.270000000000000129,-24.293149029376955639
0.271000000000000130,-24.051216973304711644
0.272000000000000131,-23.811284055295285356
0.273000000000000131,-23.573632155013452660
0.274000000000000132,-23.338519726895086137
0.275000000000000133,-23.106181967775349051
0.276000000000000134,-22.876831076056802772
0.277000000000000135,-22.650656596197954684
0.278000000000000136,-22.427825842157311342
0.279000000000000137,-22.208484393345383268
0.280000000000000138,-21.992756656610929156
0.281000000000000139,-21.780746487811299517
0.282000000000000139,-21.572537866587591537
0.283000000000000140,-21.368195618074956599
0.284000000000000141,-21.167766175424439723
0.285000000000000142,-20.971278377189229047
0.286000000000000143,-20.778744293830943235
0.287000000000000144,-20.590160077826496376
0.288000000000000145,-20.405506832099487013
0.289000000000000146,-20.224751491757796629
0.290000000000000147,-20.047847714388257856
0.291000000000000147,-19.874736774436605913
0.292000000000000148,-19.705348457483964353
0.293000000000000149,-19.539601950516836126
0.294000000000000150,-19.377406724573511099
0.295000000000000151,-19.218663406435688046
0.296000000000000152,-19.063264636314695366
0.297000000000000153,-18.911095908759708806
0.298000000000000154,-18.762036394285097174
0.299000000000000155,-18.615959739478029178
0.300000000000000155,-18.472734843601845256
0.301000000000000156,-18.332226609956506991
0.302000000000000157,-18.194296670492882129
0.303000000000000158,-18.058804082402858171
0.304000000000000159,-17.925605995621264555
0.305000000000000160,-17.794558290378496679
0.306000000000000161,-17.665516184134123279
0.307000000000000162,-17.538334807401838589
0.308000000000000163,-17.412869748144096604
0.309000000000000163,-17.288977564572000745
0.310000000000000164,-17.166516266331132812
0.311000000000000165,-17.045345764188510884
0.312000000000000166,-16.925328288459294157
0.313000000000000167,-16.806328776524310342
0.314000000000000168,-16.688215229892197300
0.315000000000000169,-16.570859041352154151
0.316000000000000170,-16.454135292846309824
0.317000000000000171,-16.337923024764357649
0.318000000000000171,-16.222105477427845699
0.319000000000000172,-16.106570305588412850
0.320000000000000173,-15.991209766812417570
0.321000000000000174,-15.875920884666063770
0.322000000000000175,-15.760605587648768733
0.323000000000000176,-15.645170824850506364
0.324000000000000177,-15.529528659329610463
0.325000000000000178,-15.413596340223611136
0.326000000000000179,-15.297296354615578906
0.327000000000000179,-15.180556460183714407
0.328000000000000180,-15.063309699662699614
0.329000000000000181,-14.945494398141997650
0.330000000000000182,-14.827054144218459797
0.331000000000000183,-14.707937756010574404
0.332000000000000184,-14.588099233027165269
0.333000000000000185,-14.467497694866997549
0.334000000000000186,-14.346097307706415336
0.335000000000000187,-14.223867199510612735
0.336000000000000187,-14.100781364881115110
0.337000000000000188,-13.976818560426343296
0.338000000000000189,-13.851962191516392409
0.339000000000000190,-13.726200191254807947
0.340000000000000191,-13.599524892471512416
0.341000000000000192,-13.471932893512041929
0.342000000000000193,-13.343424918567041715
0.343000000000000194,-13.214005673256485451
0.344000000000000195,-13.083683696151187092
0.345000000000000195,-12.952471206883771515
0.346000000000000196,-12.820383951469874972
0.347000000000000197,-12.687441045429244113
0.348000000000000198,-12.553664815266033727
0.349000000000000199,-12.419080638836618391
0.350000000000000200,-12.283716785103608871
0.351000000000000201,-12.147604253744848535
0.352000000000000202,-12.010776615057331185
0.353000000000000203,-11.873269850567474748
0.354000000000000203,-11.735122194731431478
0.355000000000000204,-11.596373978082088030
0.356000000000000205,-11.457067472153145360
0.357000000000000206,-11.317246736485213177
0.358000000000000207,-11.176957467993995365
0.359000000000000208,-11.036246852957152242
0.360000000000000209,-10.895163421853148122
0.361000000000000210,-10.753756907263456455
0.362000000000000210,-10.612078105028206920
0.363000000000000211,-10.470178738825159925
0.364000000000000212,-10.328111328322242102
0.365000000000000213,-10.185929061035512433
0.366000000000000214,-10.043685668006594014
0.367000000000000215,-9.901435303396883825
0.368000000000000216,-9.759232428079865684
0.369000000000000217,-9.617131697297669035
0.370000000000000218,-9.475187852433856861
0.371000000000000218,-9.333455616940792510
0.372000000000000219,-9.191989596447374566
0.373000000000000220,-9.050844183060965165
0.374000000000000221,-8.910073463866188703
0.375000000000000222,-8.769731133612840068
0.376000000000000223,-8.629870411575458533
0.377000000000000224,-8.490543962558046331
0.378000000000000225,-8.351803822009109979
0.379000000000000226,-8.213701325204414871
0.380000000000000226,-8.076287040447839516
0.381000000000000227,-7.939610706233968251
0.382000000000000228,-7.803721172310472021
0.383000000000000229,-7.668666344572625526
0.384000000000000230,-7.534493133717452551
0.385000000000000231,-7.401247407580880733
0.386000000000000232,-7.268973947077022046
0.387000000000000233,-7.137716405655439189
0.388000000000000234,-7.007517272189171642
0.389000000000000234,-6.878417837203778973
0.390000000000000235,-6.750458162355132963
0.391000000000000236,-6.623677053062246856
0.392000000000000237,-6.498112034199410303
0.393000000000000238,-6.373799328751178273
0.394000000000000239,-6.250773839332428139
0.395000000000000240,-6.129069132475366999
0.396000000000000241,-6.008717425584938709
0.397000000000000242,-5.889749576463865210
0.398000000000000242,-5.772195075308909296
0.399000000000000243,-5.656082039080118307
0.400000000000000244,-5.541437208145250537
0.401000000000000245,-5.428285945102794940
0.402000000000000246,-5.316652235687292283
0.403000000000000247,-5.206558691662053207
0.404000000000000248,-5.098026555605631671
0.405000000000000249,-4.991075707499528669
0.406000000000000250,-4.885724673026215825
0.407000000000000250,-4.781990633488037545
0.408000000000000251,-4.679889437259227236
0.409000000000000252,-4.579435612685119672
0.410000000000000253,-4.480642382344207419
0.411000000000000254,-4.383521678590894588
0.412000000000000255,-4.288084160298476277
0.413000000000000256,-4.194339230724033030
0.414000000000000257,-4.102295056418819641
0.415000000000000258,-4.011958587109973884
0.416000000000000258,-3.923335576481316256
0.417000000000000259,-3.836430603783147486
0.418000000000000260,-3.751247096203222497
0.419000000000000261,-3.667787351932957129
0.420000000000000262,-3.586052563865381071
0.421000000000000263,-3.506042843863239167
0.422000000000000264,-3.427757247537909002
0.423000000000000265,-3.351193799481857472
0.424000000000000266,-3.276349518899616786
0.425000000000000266,-3.203220445584142873
0.426000000000000267,-3.131801666187661315
0.427000000000000268,-3.062087340738089303
0.428000000000000269,-2.994070729354181726
0.429000000000000270,-2.927744219114484903
0.430000000000000271,-2.863099351037235785
0.431000000000000272,-2.800126847130170127
0.432000000000000273,-2.738816637471205517
0.433000000000000274,-2.679157887282751727
0.434000000000000274,-2.621139023964244252
0.435000000000000275,-2.564747764049273737
0.436000000000000276,-2.509971140055486938
0.437000000000000277,-2.456795527196968365
0.438000000000000278,-2.405206669930696428
0.439000000000000279,-2.355189708310110763
0.440000000000000280,-2.306729204120456789
0.441000000000000281,-2.259809166772095423
0.442000000000000282,-2.214413078929513556
0.443000000000000282,-2.170523921855058713
0.444000000000000283,-2.128124200447996550
0.445000000000000284,-2.087195967960746135
0.446000000000000285,-2.047720850375383428
0.447000000000000286,-2.009680070425025722
0.448000000000000287,-1.973054471245565322
0.449000000000000288,-1.937824539644767752
0.450000000000000289,-1.903970428976615947
0.451000000000000290,-1.871471981610015600
0.452000000000000290,-1.840308750981973773
0.453000000000000291,-1.810460023226434290
0.454000000000000292,-1.781904838370857336
0.455000000000000293,-1.754622011093594169
0.456000000000000294,-1.728590151036054179
0.457000000000000295,-1.703787682664380965
0.458000000000000296,-1.680192864676385511
0.459000000000000297,-1.657783808950031856
0.460000000000000298,-1.636538499030728122
0.461000000000000298,-1.616434808155204905
0.462000000000000299,-1.597450516810648535
0.463000000000000300,-1.579563329828175267
0.464000000000000301,-1.562750893010539155
0.465000000000000302,-1.546990809294428004
0.466000000000000303,-1.532260654448354575
0.467000000000000304,-1.518537992307498863
0.468000000000000305,-1.505800389547633289
0.469000000000000306,-1.494025430000424537
0.470000000000000306,-1.483190728513053003
0.471000000000000307,-1.473273944355408593
0.472000000000000308,-1.464252794178586781
0.473000000000000309,-1.456105064528630422
0.474000000000000310,-1.448808623919964456
0.475000000000000311,-1.442341434473212614
0.476000000000000312,-1.436681563122343963
0.477000000000000313,-1.431807192396419071
0.478000000000000314,-1.427696630781471576
0.479000000000000314,-1.424328322668253932
0.480000000000000315,-1.421680857891769012
0.481000000000000316,-1.419732980868810390
0.482000000000000317,-1.418463599339779835
0.483000000000000318,-1.417851792721298132
0.484000000000000319,-1.417876820076224842
0.485000000000000320,-1.418518127707900867
0.486000000000000321,-1.419755356385425271
0.487000000000000322,-1.421568348206984300
0.488000000000000322,-1.423937153108306930
0.489000000000000323,-1.426842035023339728
0.490000000000000324,-1.430263477704392772
0.491000000000000325,-1.434182190208994623
0.492000000000000326,-1.438579112060707876
0.493000000000000327,-1.443435418091268074
0.494000000000000328,-1.448732522971360570
0.495000000000000329,-1.454452085437380360
0.496000000000000330,-1.460576012221519004
0.497000000000000330,-1.467086461692492794
0.498000000000000331,-1.473965847214287583
0.499000000000000332,-1.481196840230106115
0.500000000000000333,-1.488762373078881263
0.501000000000000334,-1.496645641551522132
0.502000000000000335,-1.504830107194056188
0.503000000000000336,-1.513299499364827883
0.504000000000000337,-1.522037817052779962
0.505000000000000338,-1.531029330463844484
0.506000000000000338,-1.540258582382367569
0.507000000000000339,-1.549710389314436831
0.508000000000000340,-1.559369842419909169
0.509000000000000341,-1.569222308239798913
0.510000000000000342,-1.579253429225728533
0.511000000000000343,-1.589449124077901843
0.512000000000000344,-1.599795587898114935
0.513000000000000345,-1.610279292164086495
0.514000000000000346,-1.620886984531454855
0.515000000000000346,-1.631605688469524029
0.516000000000000347,-1.642422702736870521
0.517000000000000348,-1.653325600702767462
0.518000000000000349,-1.664302229520264076
0.519000000000000350,-1.675340709156689645
0.520000000000000351,-1.686429431287270742
0.521000000000000352,-1.697557058057321600
0.522000000000000353,-1.708712520718514982
0.523000000000000353,-1.719885018144557076
0.524000000000000354,-1.731064015231439823
0.525000000000000355,-1.742239241187452548
0.526000000000000356,-1.753400687717890039
0.527000000000000357,-1.764538607109392698
0.528000000000000358,-1.775643510218737120
0.529000000000000359,-1.786706164370623684
0.530000000000000360,-1.797717591169214923
0.531000000000000361,-1.808669064227739209
0.532000000000000361,-1.819552106820580217
0.533000000000000362,-1.830358489462083682
0.534000000000000363,-1.841080227416240334
0.535000000000000364,-1.851709578141241153
0.536000000000000365,-1.862239038672880209
0.537000000000000366,-1.872661342950601604
0.538000000000000367,-1.882969459089935738
0.539000000000000368,-1.893156586604924030
0.540000000000000369,-1.903216153584091686
0.541000000000000369,-1.913141813823339588
0.542000000000000370,-1.922927443919143942
0.543000000000000371,-1.932567140325218258
0.544000000000000372,-1.942055216375855320
0.545000000000000373,-1.951386199278889677
0.546000000000000374,-1.960554827081322671
0.547000000000000375,-1.969556045610376671
0.548000000000000376,-1.978385005392823359
0.549000000000000377,-1.987037058555185087
0.550000000000000377,-1.995507755707439213
0.551000000000000378,-2.003792842812737618
0.552000000000000379,-2.011888258045506639
0.553000000000000380,-2.019790128640318372
0.554000000000000381,-2.027494767733752035
0.555000000000000382,-2.034998671201430298
0.556000000000000383,-2.042298514492316475
0.557000000000000384,-2.049391149462307382
0.558000000000000385,-2.056273601209047452
0.559000000000000385,-2.062943064909855462
0.560000000000000386,-2.069396902664515814
0.561000000000000387,-2.075632640344724056
0.562000000000000388,-2.081647964451809774
0.563000000000000389,-2.087440718984306276
0.564000000000000390,-2.093008902316942255
0.565000000000000391,-2.098350664092474283
0.566000000000000392,-2.103464302127782570
0.567000000000000393,-2.108348259335547148
0.568000000000000393,-2.113001120662786558
0.569000000000000394,-2.117421610047489189
0.570000000000000395,-2.121608587394486101
0.571000000000000396,-2.125561045571649377
0.572000000000000397,-2.129278107427519107
0.573000000000000398,-2.132759022831303142
0.574000000000000399,-2.136003165736221288
0.575000000000000400,-2.139010031267107870
0.576000000000000401,-2.141779232833060931
0.577000000000000401,-2.144310499266013359
0.578000000000000402,-2.146603671985926276
0.579000000000000403,-2.148658702193341430
0.580000000000000404,-2.150475648089933856
0.581000000000000405,-2.152054672127733603
0.582000000000000406,-2.153396038287533010
0.583000000000000407,-2.154500109387099016
0.584000000000000408,-2.155367344419635955
0.585000000000000409,-2.155998295922989083
0.586000000000000409,-2.156393607380023170
0.587000000000000410,-2.156554010650580722
0.588000000000000411,-2.156480323435347124
0.589000000000000412,-2.156173446771997959
0.590000000000000413,-2.155634362563890960
0.591000000000000414,-2.154864131141598360
0.592000000000000415,-2.153863888857484366
0.593000000000000416,-2.152634845713567557
0.594000000000000417,-2.151178283022846749
0.595000000000000417,-2.149495551104210200
0.596000000000000418,-2.147588067011107160
0.597000000000000419,-2.145457312294053231
0.598000000000000420,-2.143104830797051719
0.599000000000000421,-2.140532226488009115
0.600000000000000422,-2.137741161323156724
0.601000000000000423,-2.134733353145496615
0.602000000000000424,-2.131510573617282134
0.603000000000000425,-2.128074646186489449
0.604000000000000425,-2.124427444087234385
0.605000000000000426,-2.120570888374083918
0.606000000000000427,-2.116506945990176636
0.607000000000000428,-2.112237627869040235
0.608000000000000429,-2.107764987070019025
0.609000000000000430,-2.103091116947159556
