# Cu111_Water
# h[nm],U(h)[kJ/mol]
0.200000000000000011,35.864054339887879053
0.201000000000000012,33.793950616908333018
0.202000000000000013,32.390633016764844854
0.203000000000000014,31.235099974009944646
0.204000000000000015,30.119897019608536937
0.205000000000000016,28.961838500703652954
0.206000000000000016,27.745504119767939954
0.207000000000000017,26.487904746569238768
0.208000000000000018,25.217438675081488952
0.209000000000000019,23.962267287171034269
0.210000000000000020,22.744706932605645022
0.211000000000000021,21.579298098768720848
0.212000000000000022,20.472977166250263537
0.213000000000000023,19.426318567597814280
0.214000000000000024,18.435195016412180280
0.215000000000000024,17.492464931130250250
0.216000000000000025,16.589472284703425942
0.217000000000000026,15.717259381612260327
0.218000000000000027,14.867465561686492137
0.219000000000000028,14.032927764641883073
0.220000000000000029,13.208021830268213748
0.221000000000000030,12.388793215689114291
0.222000000000000031,11.572927334285372680
0.223000000000000032,10.759606336147751193
0.224000000000000032,9.949293157152187206
0.225000000000000033,9.143476586846878362
0.226000000000000034,8.344403915317798237
0.227000000000000035,7.554820999048954988
0.228000000000000036,6.777733651425033479
0.229000000000000037,6.016199251655839575
0.230000000000000038,5.273153397209055626
0.231000000000000039,4.551273248712138120
0.232000000000000040,3.852876842005132918
0.233000000000000040,3.179855959994073000
0.234000000000000041,2.533639052704692141
0.235000000000000042,1.915180056999462810
0.236000000000000043,1.324968696534460033
0.237000000000000044,0.763057848336800015
0.238000000000000045,0.229103768417698278
0.239000000000000046,-0.277584688568793481
0.240000000000000047,-0.757991293120424792
0.241000000000000048,-1.213335074081326237
0.242000000000000048,-1.645012842911791395
0.243000000000000049,-2.054543616968898867
0.244000000000000050,-2.443516503006311957
0.245000000000000051,-2.813543193356369265
0.246000000000000052,-3.166215863040636513
0.247000000000000053,-3.503070939478236223
0.248000000000000054,-3.825558948016617222
0.249000000000000055,-4.135020414770323782
0.250000000000000056,-4.432667630446848861
0.251000000000000056,-4.719571941302891815
0.252000000000000057,-4.996656131932573963
0.253000000000000058,-5.264691394823987736
0.254000000000000059,-5.524298339100247368
0.255000000000000060,-5.775951471285047489
0.256000000000000061,-6.019986580252497887
0.257000000000000062,-6.256610473003075157
0.258000000000000063,-6.485912534185199085
0.259000000000000064,-6.707877617365943124
0.260000000000000064,-6.922399817342880013
0.261000000000000065,-7.129296718050288639
0.262000000000000066,-7.328323757971309860
0.263000000000000067,-7.519188402871627375
0.264000000000000068,-7.701563862869950761
0.265000000000000069,-7.875102136370640160
0.266000000000000070,-8.039446206454559984
0.267000000000000071,-8.194241255412745062
0.268000000000000071,-8.339144799842610922
0.269000000000000072,-8.473835681889173799
0.270000000000000073,-8.598021881704145386
0.271000000000000074,-8.711447142016487177
0.272000000000000075,-8.813896417940679129
0.273000000000000076,-8.905200183936344160
0.274000000000000077,-8.985237645366462189
0.275000000000000078,-9.053938914602571941
0.276000000000000079,-9.111286221340808567
0.277000000000000079,-9.157314233978643969
0.278000000000000080,-9.192109573821470647
0.279000000000000081,-9.215809606800876352
0.280000000000000082,-9.228600598547007650
0.281000000000000083,-9.230715318308469364
0.282000000000000084,-9.222430175586046275
0.283000000000000085,-9.204061970655697422
0.284000000000000086,-9.175964336599662374
0.285000000000000087,-9.138523946224918149
0.286000000000000087,-9.092156552487425714
0.287000000000000088,-9.037302925906436357
0.288000000000000089,-8.974424747073886266
0.289000000000000090,-8.904000506853574137
0.290000000000000091,-8.826521461320387729
0.291000000000000092,-8.742487682994928733
0.292000000000000093,-8.652404244553348889
0.293000000000000094,-8.556777565993611390
0.294000000000000095,-8.456111951264215776
0.295000000000000095,-8.350906335645486678
0.296000000000000096,-8.241651260745285867
0.297000000000000097,-8.128826089848553593
0.298000000000000098,-8.012896472556359839
0.299000000000000099,-7.894312064171901788
0.300000000000000100,-7.773504502138207428
0.301000000000000101,-7.650885639002504846
0.302000000000000102,-7.526846028868689586
0.303000000000000103,-7.401753662090837516
0.304000000000000103,-7.275952941046044842
0.305000000000000104,-7.149763888189125005
0.306000000000000105,-7.023481576219154476
0.307000000000000106,-6.897375769061629747
0.308000000000000107,-6.771690761473204034
0.309000000000000108,-6.646645404390371326
0.310000000000000109,-6.522433302651141851
0.311000000000000110,-6.399223171403169985
0.312000000000000111,-6.277159337353825919
0.313000000000000111,-6.156362371002651379
0.314000000000000112,-6.036929836106763148
0.315000000000000113,-5.918937142850392519
0.316000000000000114,-5.802438491506448415
0.317000000000000115,-5.687467893776389616
0.318000000000000116,-5.574040259462384128
0.319000000000000117,-5.462152536650974000
0.320000000000000118,-5.351784894158443606
0.321000000000000119,-5.242901935595503105
0.322000000000000119,-5.135453935043092777
0.323000000000000120,-5.029378084983756381
0.324000000000000121,-4.924599747796544413
0.325000000000000122,-4.821033702791381437
0.326000000000000123,-4.718585381424778902
0.327000000000000124,-4.617152083997742906
0.328000000000000125,-4.516624171784473063
0.329000000000000126,-4.416886229172190426
0.330000000000000127,-4.317818191005480699
0.331000000000000127,-4.219296430920381979
0.332000000000000128,-4.121194807020558848
0.333000000000000129,-4.023385661789892431
0.334000000000000130,-3.925740773650370219
0.335000000000000131,-3.828132258060422455
0.336000000000000132,-3.730433416506392152
0.337000000000000133,-3.632519532167933107
0.338000000000000134,-3.534268611436667040
0.339000000000000135,-3.435562070837274717
0.340000000000000135,-3.336285369240120424
0.341000000000000136,-3.236328585566937477
0.342000000000000137,-3.135586942475067751
0.343000000000000138,-3.033961276763132098
0.344000000000000139,-2.931358457471941570
0.345000000000000140,-2.827691752860860497
0.346000000000000141,-2.722881147621513787
0.347000000000000142,-2.616853611850117112
0.348000000000000143,-2.509543323437144924
0.349000000000000143,-2.400891845649741452
0.350000000000000144,-2.290848261780046080
0.351000000000000145,-2.179369268811909954
0.352000000000000146,-2.066419232120947136
0.353000000000000147,-1.951970203269645099
0.354000000000000148,-1.836001902991454271
0.355000000000000149,-1.718501671476349912
0.356000000000000150,-1.599464388076991650
0.357000000000000151,-1.478892362549592443
0.358000000000000151,-1.356795199928614526
0.359000000000000152,-1.233189641110149948
0.360000000000000153,-1.108099381186232524
0.361000000000000154,-0.981554867532642761
0.362000000000000155,-0.853593079606061567
0.363000000000000156,-0.724257292354660298
0.364000000000000157,-0.593596825089000468
0.365000000000000158,-0.461666777599063660
0.366000000000000159,-0.328527755238550490
0.367000000000000159,-0.194245584629723078
0.368000000000000160,-0.058891021572667901
0.369000000000000161,0.077460547329352730
0.370000000000000162,0.214729407889444474
0.371000000000000163,0.352831825036080626
0.372000000000000164,0.491680351700760632
0.373000000000000165,0.631184138676969320
0.374000000000000166,0.771249244307582682
0.375000000000000167,0.911778942930295266
0.376000000000000167,1.052674031083362660
0.377000000000000168,1.193833130544688759
0.378000000000000169,1.335152987346934772
0.379000000000000170,1.476528765979209457
0.380000000000000171,1.617854338052438834
0.381000000000000172,1.759022564769297192
0.382000000000000173,1.899925572602381818
0.383000000000000174,2.040455021643987177
0.384000000000000175,2.180502366149081439
0.385000000000000175,2.319959106848372699
0.386000000000000176,2.458717034662010192
0.387000000000000177,2.596668465494986755
0.388000000000000178,2.733706465844107036
0.389000000000000179,2.869725068992423633
0.390000000000000180,3.004619481610664167
0.391000000000000181,3.138286280626895852
0.392000000000000182,3.270623600264027431
0.393000000000000183,3.401531309182261875
0.394000000000000183,3.530911177697286352
0.395000000000000184,3.658667035077503904
0.396000000000000185,3.784704916953664622
0.397000000000000186,3.908933202901728521
0.398000000000000187,4.031262744285933231
0.399000000000000188,4.151606982472694440
0.400000000000000189,4.269882057547483178
0.401000000000000190,4.386006907687415080
0.402000000000000191,4.499903359359553434
0.403000000000000191,4.611496208532176233
0.404000000000000192,4.720713293100360808
0.405000000000000193,4.827485556740692019
0.406000000000000194,4.931747104421473793
0.407000000000000195,5.033435249804888656
0.408000000000000196,5.132490554786478754
0.409000000000000197,5.228856861424802105
0.410000000000000198,5.322481316520280892
0.411000000000000199,5.413314389107453550
0.412000000000000199,5.501309881128895185
0.413000000000000200,5.586424931561826845
0.414000000000000201,5.668620014270723928
0.415000000000000202,5.747858929860203858
0.416000000000000203,5.824108791802570018
0.417000000000000204,5.897340007114330263
0.418000000000000205,5.967526251854209818
0.419000000000000206,6.034644441713693297
0.420000000000000207,6.098674697968460734
0.421000000000000207,6.159600309055822898
0.422000000000000208,6.217407688039999769
0.423000000000000209,6.272086326222662933
0.424000000000000210,6.323628743151869180
0.425000000000000211,6.372030433277517503
0.426000000000000212,6.417289809496312003
0.427000000000000213,6.459408143823599069
0.428000000000000214,6.498389505423664225
0.429000000000000214,6.534240696224133060
0.430000000000000215,6.566971184333723954
0.431000000000000216,6.596593035476331579
0.432000000000000217,6.623120842647847617
0.433000000000000218,6.646571654195414958
0.434000000000000219,6.666964900512136083
0.435000000000000220,6.684322319533471557
0.436000000000000221,6.698667881214629638
0.437000000000000222,6.710027711161463237
0.438000000000000222,6.718430013580541704
0.439000000000000223,6.723904993707108702
0.440000000000000224,6.726484779863026731
0.441000000000000225,6.726203345289832214
0.442000000000000226,6.723096429895440096
0.443000000000000227,6.717201462046482163
0.444000000000000228,6.708557480531564643
0.445000000000000229,6.697205056814484969
0.446000000000000230,6.683186217689856434
0.447000000000000230,6.666544368447818947
0.448000000000000231,6.647324216647930939
0.449000000000000232,6.625571696596646021
0.450000000000000233,6.601333894617144260
0.451000000000000234,6.574658975194049404
0.452000000000000235,6.545596108070709462
0.453000000000000236,6.514195396370833002
0.454000000000000237,6.480507805811242861
0.455000000000000238,6.444585095067507652
0.456000000000000238,6.406479747349090204
0.457000000000000239,6.366244903236120578
0.458000000000000240,6.323934294825166447
0.459000000000000241,6.279602181226888291
0.460000000000000242,6.233303285454429243
0.461000000000000243,6.185092732736931609
0.462000000000000244,6.135025990288937692
0.463000000000000245,6.083158808562354025
0.464000000000000246,6.029547164004208426
0.465000000000000246,5.974247203339847268
0.466000000000000247,5.917315189397827524
0.467000000000000248,5.858807448489668168
0.468000000000000249,5.798780319354564838
0.469000000000000250,5.737290103676099484
0.470000000000000251,5.674393018175516445
0.471000000000000252,5.610145148283230299
0.472000000000000253,5.544602403387857592
0.473000000000000254,5.477820473659802403
0.474000000000000254,5.409854788444020457
0.475000000000000255,5.340760476214593488
0.476000000000000256,5.270592326081780854
0.477000000000000257,5.199404750840351142
0.478000000000000258,5.127251751546089586
0.479000000000000259,5.054186883606138103
0.480000000000000260,4.980263224366840547
0.481000000000000261,4.905533342181678691
0.482000000000000262,4.830049266940437569
0.483000000000000262,4.753862462039593062
0.484000000000000263,4.677023797772675628
0.485000000000000264,4.599583526118540711
0.486000000000000265,4.521591256904271106
0.487000000000000266,4.443095935318828182
0.488000000000000267,4.364145820752689531
0.489000000000000268,4.284788466937951235
0.490000000000000269,4.205070703362899565
0.491000000000000270,4.125038617934395191
0.492000000000000270,4.044737540860961822
0.493000000000000271,3.964212029729073716
0.494000000000000272,3.883505855744863400
0.495000000000000273,3.802661991112839868
0.496000000000000274,3.721722597523581921
0.497000000000000275,3.640729015721549722
0.498000000000000276,3.559721756124387237
0.499000000000000277,3.478740490465067836
0.500000000000000222,3.397824044427785850
0.501000000000000334,3.317010391249073820
0.502000000000000224,3.236336646255222771
0.503000000000000336,3.155839062307260523
0.504000000000000226,3.075553026125226186
0.505000000000000338,2.995513055462893703
0.506000000000000227,2.915752797105281680
0.507000000000000339,2.836305025660406098
0.508000000000000229,2.757201643118090129
0.509000000000000341,2.678473679147800546
0.510000000000000231,2.600151292108958678
0.511000000000000343,2.522263770746250522
0.512000000000000233,2.444839536544050507
0.513000000000000345,2.367906146713229187
0.514000000000000234,2.291490297785153452
0.515000000000000346,2.215617829786932003
0.516000000000000236,2.140313730973535833
0.517000000000000348,2.065602143091669340
0.518000000000000238,1.991506367151849588
0.519000000000000350,1.918048869684464419
0.520000000000000240,1.845251289457161548
0.521000000000000352,1.773134444630296347
0.522000000000000242,1.701718340328650658
0.523000000000000353,1.631022176607083152
0.524000000000000243,1.561064356789352292
0.525000000000000355,1.491862496158720131
0.526000000000000245,1.423433430980472814
0.527000000000000357,1.355793227835999870
0.528000000000000247,1.288957193249536948
0.529000000000000359,1.222939883588224363
0.530000000000000249,1.157755115217462549
0.531000000000000361,1.093415974893331644
0.532000000000000250,1.029934830374964916
0.533000000000000362,0.967323341239546108
0.534000000000000252,0.905592469883999440
0.535000000000000364,0.844752492696751234
0.536000000000000254,0.784813011384757453
0.537000000000000366,0.725782964440138789
0.538000000000000256,0.667670638732386967
0.539000000000000368,0.610483681211628992
0.540000000000000258,0.554229110709720696
0.541000000000000369,0.498913329825522667
0.542000000000000259,0.444542136882177974
0.543000000000000371,0.391120737943555563
0.544000000000000261,0.338653758878424749
0.545000000000000373,0.287145257460663106
0.546000000000000263,0.236598735494727291
0.547000000000000375,0.187017150955471945
0.548000000000000265,0.138402930132577429
0.549000000000000377,0.090757979769320235
0.550000000000000266,0.044083699186740898
0.551000000000000378,-0.001619007616158685
0.552000000000000268,-0.046349719894526756
0.553000000000000380,-0.090108488130572900
0.554000000000000270,-0.132895822054947960
0.555000000000000382,-0.174712678724368520
0.556000000000000272,-0.215560450662442310
0.557000000000000384,-0.255440954070743742
0.558000000000000274,-0.294356417116522606
0.559000000000000385,-0.332309468303355782
0.560000000000000275,-0.369303124930513427
0.561000000000000387,-0.405340781646752024
0.562000000000000277,-0.440426199103641836
0.563000000000000389,-0.474563492713635238
0.564000000000000279,-0.507757121517323218
0.565000000000000391,-0.540011877164578324
0.566000000000000281,-0.571332873013481013
0.567000000000000393,-0.601725533351166186
0.568000000000000282,-0.631195582740026184
0.569000000000000394,-0.659749035492875557
0.570000000000000284,-0.687392185279999790
0.571000000000000396,-0.714131594871300512
0.572000000000000286,-0.739974086015963928
0.573000000000000398,-0.764926729462374722
0.574000000000000288,-0.788996835120371998
0.575000000000000400,-0.812191942368086117
0.576000000000000290,-0.834519810505070181
0.577000000000000401,-0.855988409353603430
0.578000000000000291,-0.876605910009477185
0.579000000000000403,-0.896380675743783328
0.580000000000000293,-0.915321253056694317
0.581000000000000405,-0.933436362884394244
0.582000000000000295,-0.950734891959833739
0.583000000000000407,-0.967225884328178465
0.584000000000000297,-0.982918533017283935
0.585000000000000409,-0.997822171863805174
0.586000000000000298,-1.011946267495040130
0.587000000000000410,-1.025300411466742334
0.588000000000000300,-1.037894312556843390
0.589000000000000412,-1.049737789215061667
0.590000000000000302,-1.060840762168067997
0.591000000000000414,-1.071213247179971573
0.592000000000000304,-1.080865347967647327
0.593000000000000416,-1.089807249270348333
0.594000000000000306,-1.098049210073009707
0.595000000000000417,-1.105601556982536149
0.596000000000000307,-1.112474677756202679
0.597000000000000419,-1.118679014981335262
0.598000000000000309,-1.124225059905295865
0.599000000000000421,-1.129123346414707907
0.600000000000000311,-1.133384445162843646
0.601000000000000423,-1.137018957843985545
0.602000000000000313,-1.140037511613486432
0.603000000000000425,-1.142450753652334283
0.604000000000000314,-1.144269345874732391
0.605000000000000426,-1.145503959777412817
0.606000000000000316,-1.146165271429161248
0.607000000000000428,-1.146263956599059997
0.608000000000000318,-1.145810686021973890
0.609000000000000430,-1.144816120799593495
0.610000000000000320,-1.143290907935522016
0.611000000000000432,-1.141245676002676568
0.612000000000000322,-1.138691030941402671
0.613000000000000433,-1.135637551986492966
0.614000000000000323,-1.132095787721495217
0.615000000000000435,-1.128076252258437773
0.616000000000000325,-1.123589421541258959
0.617000000000000437,-1.118645729771140962
0.618000000000000327,-1.113255565951893011
0.619000000000000439,-1.107429270553583089
0.620000000000000329,-1.101177132292589400
0.621000000000000441,-1.094509385026155579
0.622000000000000330,-1.087436204759675507
0.623000000000000442,-1.079967706764747515
0.624000000000000332,-1.072113942806192766
0.625000000000000444,-1.063884898476098684
0.626000000000000334,-1.055290490633072231
0.627000000000000446,-1.046340564944735707
0.628000000000000336,-1.037044893531669842
0.629000000000000448,-1.027413172710847977
0.630000000000000338,-1.017455020836741220
0.631000000000000449,-1.007179976238162356
0.632000000000000339,-0.996597495249066823
0.633000000000000451,-0.985716950331327446
0.634000000000000341,-0.974547628287761647
0.635000000000000453,-0.963098728563454243
0.636000000000000343,-0.951379361633634124
0.637000000000000455,-0.939398547476193002
0.638000000000000345,-0.927165214127118276
0.639000000000000457,-0.914688196316952529
0.640000000000000346,-0.901976234186595227
0.641000000000000458,-0.889037972080559791
0.642000000000000348,-0.875881957416045909
0.643000000000000460,-0.862516639625955150
0.644000000000000350,-0.848950369174280572
0.645000000000000462,-0.835191396641964401
0.646000000000000352,-0.821247871881746860
0.647000000000000464,-0.807127843240125431
0.648000000000000353,-0.792839256844955598
0.649000000000000465,-0.778389955956849677
0.650000000000000355,-0.763787680382992606
0.651000000000000467,-0.749040065951517064
0.652000000000000357,-0.734154644045107108
0.653000000000000469,-0.719138841192019429
0.654000000000000359,-0.703999978713224062
0.655000000000000471,-0.688745272423943677
0.656000000000000361,-0.673381832388225798
0.657000000000000473,-0.657916662724962409
0.658000000000000362,-0.642356661464003942
0.659000000000000474,-0.626708620450841414
0.660000000000000364,-0.610979225298504347
0.661000000000000476,-0.595175055385207652
0.662000000000000366,-0.579302583896481926
0.663000000000000478,-0.563368177910291479
0.664000000000000368,-0.547378098523973011
0.665000000000000480,-0.531338501021532794
0.666000000000000369,-0.515255435080131052
0.667000000000000481,-0.499134845014421402
