# Cu111_CYTOSINE
# h[nm],U(h)[kJ/mol]
0.200000000000000011,26.741204327274111563
0.201000000000000012,22.303291403786538183
0.202000000000000013,19.307449635061008308
0.203000000000000014,17.013812258367348562
0.204000000000000015,14.998909291514422648
0.205000000000000016,13.041766785713416965
0.206000000000000016,11.045825891715574940
0.207000000000000017,8.986541469652001624
0.208000000000000018,6.877165649277993786
0.209000000000000019,4.747219343792938417
0.210000000000000020,2.629655478418033265
0.211000000000000021,0.553838839409188433
0.212000000000000022,-1.457700369500400495
0.213000000000000023,-3.390169035809898812
0.214000000000000024,-5.236051602599403054
0.215000000000000024,-6.993946515681331633
0.216000000000000025,-8.667125323982943996
0.217000000000000026,-10.262078267431901324
0.218000000000000027,-11.787197693270552890
0.219000000000000028,-13.251674782977787004
0.220000000000000029,-14.664635568217615713
0.221000000000000030,-16.034511406551764878
0.222000000000000031,-17.368621312374656895
0.223000000000000032,-18.672934644183360575
0.224000000000000032,-19.951979624685932890
0.225000000000000033,-21.208863858965155913
0.226000000000000034,-22.445375897987446479
0.227000000000000035,-23.662140920341848016
0.228000000000000036,-24.858808068414521841
0.229000000000000037,-26.034251419367365088
0.230000000000000038,-27.186770717021044419
0.231000000000000039,-28.314281683295966729
0.232000000000000040,-29.414488897808297452
0.233000000000000040,-30.485036868788938591
0.234000000000000041,-31.523637040888143446
0.235000000000000042,-32.528170140057945048
0.236000000000000043,-33.496764497920473502
0.237000000000000044,-34.427851887089758520
0.238000000000000045,-35.320202993399732350
0.239000000000000046,-36.172945005898618831
0.240000000000000047,-36.985563970606023076
0.241000000000000048,-37.757894573181161491
0.242000000000000048,-38.490099926425074273
0.243000000000000049,-39.182643772513394254
0.244000000000000050,-39.836257292992023338
0.245000000000000051,-40.451902472786017029
0.246000000000000052,-41.030733704202162926
0.247000000000000053,-41.574059055760500314
0.248000000000000054,-42.083302378001285149
0.249000000000000055,-42.559967180816997256
0.250000000000000056,-43.005602998771855994
0.251000000000000056,-43.421774764936202473
0.252000000000000057,-43.810035541227605904
0.253000000000000058,-44.171902804290652966
0.254000000000000059,-44.508838359943766250
0.255000000000000060,-44.822231854975697729
0.256000000000000061,-45.113387771010046379
0.257000000000000062,-45.383515719444531555
0.258000000000000063,-45.633723807170291309
0.259000000000000064,-45.865014807900536198
0.260000000000000064,-46.078284851541056355
0.261000000000000065,-46.274324332249413771
0.262000000000000066,-46.453820732906926594
0.263000000000000067,-46.617363068056377529
0.264000000000000068,-46.765447657477103860
0.265000000000000069,-46.898484957176790999
0.266000000000000070,-47.016807192524218806
0.267000000000000071,-47.120676558535066647
0.268000000000000071,-47.210293774096690811
0.269000000000000072,-47.285806799459336958
0.270000000000000073,-47.347319549029300845
0.271000000000000074,-47.394900453889256653
0.272000000000000075,-47.428590750152480382
0.273000000000000076,-47.448412389929934818
0.274000000000000077,-47.454375491128892861
0.275000000000000078,-47.446485260350435453
0.276000000000000079,-47.424748339706567890
0.277000000000000079,-47.389178543384602449
0.278000000000000080,-47.339801963227415627
0.279000000000000081,-47.276661434491593639
0.280000000000000082,-47.199820363333103046
0.281000000000000083,-47.109365926511770795
0.282000000000000084,-47.005411661379469024
0.283000000000000085,-46.888099470510539390
0.284000000000000086,-46.757601070437388557
0.285000000000000087,-46.614118917972909628
0.286000000000000087,-46.457886650629987457
0.287000000000000088,-46.289169079789431294
0.288000000000000089,-46.108261776617290195
0.289000000000000090,-45.915490291386660715
0.290000000000000091,-45.711209046904578202
0.291000000000000092,-45.495799946270992109
0.292000000000000093,-45.269670734278676605
0.293000000000000094,-45.033253150477058568
0.294000000000000095,-44.787000910335528658
0.295000000000000095,-44.531387549114569424
0.296000000000000096,-44.266904161040841359
0.297000000000000097,-43.994057064236386623
0.298000000000000098,-43.713365419614753193
0.299000000000000099,-43.425358829667729310
0.300000000000000100,-43.130574940760070035
0.301000000000000101,-42.829557070253024165
0.302000000000000102,-42.522851877518306196
0.303000000000000103,-42.211007095700722402
0.304000000000000103,-41.894569338958604021
0.305000000000000104,-41.574081997869569705
0.306000000000000105,-41.250083233747396605
0.307000000000000106,-40.923104080779090452
0.308000000000000107,-40.593666663169180708
0.309000000000000108,-40.262282532872411878
0.310000000000000109,-39.929451132008246361
0.311000000000000110,-39.595658382683190268
0.312000000000000111,-39.261375405696426810
0.313000000000000111,-38.927057368471949417
0.314000000000000112,-38.593142461538967325
0.315000000000000113,-38.260051001972989582
0.316000000000000114,-37.928184661403953726
0.317000000000000115,-37.597925815492985180
0.318000000000000116,-37.269637011169791663
0.319000000000000117,-36.943660547402231487
0.320000000000000118,-36.620318164833854269
0.321000000000000119,-36.299910839266814833
0.322000000000000119,-35.982718673683251609
0.323000000000000120,-35.669000883279082359
0.324000000000000121,-35.358995867827530901
0.325000000000000122,-35.052921365588552760
0.326000000000000123,-34.750974682929843596
0.327000000000000124,-34.453332993819437036
0.328000000000000125,-34.160153703386470170
0.329000000000000126,-33.871574869817649756
0.330000000000000127,-33.587715678960044841
0.331000000000000127,-33.308676966132416908
0.332000000000000128,-33.034541779801394057
0.333000000000000129,-32.765375981953397400
0.334000000000000130,-32.501228880184868331
0.335000000000000131,-32.242133886738791659
0.336000000000000132,-31.988109199931045623
0.337000000000000133,-31.739158503634939734
0.338000000000000134,-31.495271680722463969
0.339000000000000135,-31.256425536594996117
0.340000000000000135,-31.022584529172178236
0.341000000000000136,-30.793701501944031662
0.342000000000000137,-30.569718416926143334
0.343000000000000138,-30.350567084590046818
0.344000000000000139,-30.136169888069019862
0.345000000000000140,-29.926440499163355469
0.346000000000000141,-29.721284583886237840
0.347000000000000142,-29.520600495502726801
0.348000000000000143,-29.324279953218422179
0.349000000000000143,-29.132208704870361515
0.350000000000000144,-28.944267172160969892
0.351000000000000145,-28.760331077155946389
0.352000000000000146,-28.580272048937985119
0.353000000000000147,-28.403958209470811624
0.354000000000000148,-28.231254737881727124
0.355000000000000149,-28.062024412515654603
0.356000000000000150,-27.896128130249923771
0.357000000000000151,-27.733425402686112449
0.358000000000000151,-27.573774828954420002
0.359000000000000152,-27.417034544976115029
0.360000000000000153,-27.263062649132166371
0.361000000000000154,-27.111717604380061175
0.362000000000000155,-26.962858616947613655
0.363000000000000156,-26.816345991811516569
0.364000000000000157,-26.672041465240113212
0.365000000000000158,-26.529808514745251813
0.366000000000000159,-26.389512646846291943
0.367000000000000159,-26.251021663101141712
0.368000000000000160,-26.114205904906309996
0.369000000000000161,-25.978938477607488977
0.370000000000000162,-25.845095454497844401
0.371000000000000163,-25.712556061311722999
0.372000000000000164,-25.581202841845897211
0.373000000000000165,-25.450921805362590078
0.374000000000000166,-25.321602556444524623
0.375000000000000167,-25.193138407985646410
0.376000000000000167,-25.065426478010429889
0.377000000000000168,-24.938367771020800490
0.378000000000000169,-24.811867244572599844
0.379000000000000170,-24.685833861783983423
0.380000000000000171,-24.560180630475336727
0.381000000000000172,-24.434824629636132443
0.382000000000000173,-24.309687023906640491
0.383000000000000174,-24.184693066754295643
0.384000000000000175,-24.059772093013357619
0.385000000000000175,-23.934857501444962935
0.386000000000000176,-23.809886727961004027
0.387000000000000177,-23.684801210140467020
0.388000000000000178,-23.559546343651671663
0.389000000000000179,-23.434071431176743516
0.390000000000000180,-23.308329624417581272
0.391000000000000181,-23.182277859744587545
0.392000000000000182,-23.055876788030939650
0.393000000000000183,-22.929090699195985081
0.394000000000000183,-22.801887441962623626
0.395000000000000184,-22.674238339313685486
0.396000000000000185,-22.546118100112888527
0.397000000000000186,-22.417504727336403647
0.398000000000000187,-22.288379423341531549
0.399000000000000188,-22.158726492579226885
0.400000000000000189,-22.028533242138294668
0.401000000000000190,-21.897789880489465730
0.402000000000000191,-21.766489414779272238
0.403000000000000191,-21.634627547004516401
0.404000000000000192,-21.502202569380216346
0.405000000000000193,-21.369215259195989631
0.406000000000000194,-21.235668773438273860
0.407000000000000195,-21.101568543439046977
0.408000000000000196,-20.966922169794646180
0.409000000000000197,-20.831739317782606236
0.410000000000000198,-20.696031613488695911
0.411000000000000199,-20.559812540841011952
0.412000000000000199,-20.423097339733487843
0.413000000000000200,-20.285902905407262153
0.414000000000000201,-20.148247689244357161
0.415000000000000202,-20.010151601115218511
0.416000000000000203,-19.871635913409331664
0.417000000000000204,-19.732723166865504538
0.418000000000000205,-19.593437078307616162
0.419000000000000206,-19.453802450379974687
0.420000000000000207,-19.313845083366111055
0.421000000000000207,-19.173591689165174756
0.422000000000000208,-19.033069807489820136
0.423000000000000209,-18.892307724341197428
0.424000000000000210,-18.751334392807564200
0.425000000000000211,-18.610179356225092562
0.426000000000000212,-18.468872673731755896
0.427000000000000213,-18.327444848237981034
0.428000000000000214,-18.185926756830909312
0.429000000000000214,-18.044349583622626199
0.430000000000000215,-17.902744755046789749
0.431000000000000216,-17.761143877602769692
0.432000000000000217,-17.619578678040376474
0.433000000000000218,-17.478080945974415528
0.434000000000000219,-17.336682478912869954
0.435000000000000220,-17.195415029678962071
0.436000000000000221,-17.054310256203041973
0.437000000000000222,-16.913399673656968503
0.438000000000000222,-16.772714608900219702
0.439000000000000223,-16.632286157204092092
0.440000000000000224,-16.492145141217509519
0.441000000000000225,-16.352322072135589082
0.442000000000000226,-16.212847113030068869
0.443000000000000227,-16.073750044298186879
0.444000000000000228,-15.935060231185612878
0.445000000000000229,-15.796806593336834013
0.446000000000000230,-15.659017576325329202
0.447000000000000230,-15.521721125114831707
0.448000000000000231,-15.384944659401792677
0.449000000000000232,-15.248715050788328895
0.450000000000000233,-15.113058601734611130
0.451000000000000234,-14.978001026238720428
0.452000000000000235,-14.843567432192099176
0.453000000000000236,-14.709782305357922638
0.454000000000000237,-14.576669494920404091
0.455000000000000238,-14.444252200552167409
0.456000000000000238,-14.312552960947758862
0.457000000000000239,-14.181593643770852964
0.458000000000000240,-14.051395436963854735
0.459000000000000241,-13.921978841367987911
0.460000000000000242,-13.793363664603424112
0.461000000000000243,-13.665569016158858773
0.462000000000000244,-13.538613303640946839
0.463000000000000245,-13.412514230134354065
0.464000000000000246,-13.287288792624327272
0.465000000000000246,-13.162953281434056407
0.466000000000000247,-13.039523280630252344
0.467000000000000248,-12.917013669350833283
0.468000000000000249,-12.795438624010149198
0.469000000000000250,-12.674811621337251921
0.470000000000000251,-12.555145442204571182
0.471000000000000252,-12.436452176204493725
0.472000000000000253,-12.318743226933117185
0.473000000000000254,-12.202029317940807474
0.474000000000000254,-12.086320499310691190
0.475000000000000255,-11.971626154826974897
0.476000000000000256,-11.857955009696130588
0.477000000000000257,-11.745315138785157316
0.478000000000000258,-11.633713975341789748
0.479000000000000259,-11.523158320163190638
0.480000000000000260,-11.413654351180110069
0.481000000000000261,-11.305207633424876335
0.482000000000000262,-11.197823129352654448
0.483000000000000262,-11.091505209486225425
0.484000000000000263,-10.986257663355761593
0.485000000000000264,-10.882083710705952484
0.486000000000000265,-10.778986012944026029
0.487000000000000266,-10.676966684802934537
0.488000000000000267,-10.576027306195181055
0.489000000000000268,-10.476168934233704988
0.490000000000000269,-10.377392115396958161
0.491000000000000270,-10.279696897816670287
0.492000000000000270,-10.183082843667154549
0.493000000000000271,-10.087549041636508562
0.494000000000000272,-9.993094119460453228
0.495000000000000273,-9.899716256500607159
0.496000000000000274,-9.807413196350001527
0.497000000000000275,-9.716182259449047010
0.498000000000000276,-9.626020355696436326
0.499000000000000277,-9.536923997039879808
0.500000000000000222,-9.448889310032566158
0.501000000000000334,-9.361912048341798354
0.502000000000000224,-9.275987605197295593
0.503000000000000336,-9.191111025766705467
0.504000000000000226,-9.107277019447618471
0.505000000000000338,-9.024479972064630928
0.506000000000000227,-8.942713957962251214
0.507000000000000339,-8.861972751983394403
0.508000000000000229,-8.782249841325395323
0.509000000000000341,-8.703538437264676020
0.510000000000000231,-8.625831486742990606
0.511000000000000343,-8.549121683807499039
0.512000000000000233,-8.473401480898676397
0.513000000000000345,-8.398663099979390978
0.514000000000000234,-8.324898543500131254
0.515000000000000346,-8.252099605194624488
0.516000000000000236,-8.180257880701747197
0.517000000000000348,-8.109364778008993468
0.518000000000000238,-8.039411527714076300
0.519000000000000350,-7.970389193100842817
0.520000000000000240,-7.902288680026829937
0.521000000000000352,-7.835100746619483303
0.522000000000000242,-7.768816012778946067
0.523000000000000353,-7.703424969485216600
0.524000000000000243,-7.638917987908247831
0.525000000000000355,-7.575285328319372624
0.526000000000000245,-7.512517148803324218
0.527000000000000357,-7.450603513769618935
0.528000000000000247,-7.389534402263363333
0.529000000000000359,-7.329299716074625159
0.530000000000000249,-7.269889287646892129
0.531000000000000361,-7.211292887784333416
0.532000000000000250,-7.153500233158807120
0.533000000000000362,-7.096500993616726483
0.534000000000000252,-7.040284799287054973
0.535000000000000364,-6.984841247491114125
0.536000000000000254,-6.930159909455653633
0.537000000000000366,-6.876230336830230883
0.538000000000000256,-6.823042068010765959
0.539000000000000368,-6.770584634270491620
0.540000000000000258,-6.718847565700533764
0.541000000000000369,-6.667820396961507967
0.542000000000000259,-6.617492672848699797
0.543000000000000371,-6.567853953672404543
0.544000000000000261,-6.518893820456154842
0.545000000000000373,-6.470601879954694269
0.546000000000000263,-6.422967769494526635
0.547000000000000375,-6.375981161639093564
0.548000000000000265,-6.329631768681567294
0.549000000000000377,-6.283909346967449849
0.550000000000000266,-6.238803701050014361
0.551000000000000378,-6.194304687681027488
0.552000000000000268,-6.150402219639775403
0.553000000000000380,-6.107086269402955736
0.554000000000000270,-6.064346872658559207
0.555000000000000382,-6.022174131666313102
0.556000000000000272,-5.980558218467956877
0.557000000000000384,-5.939489377949861648
0.558000000000000274,-5.898957930761383750
0.559000000000000385,-5.858954276091508540
0.560000000000000275,-5.819468894307075146
0.561000000000000387,-5.780492349455323975
0.562000000000000277,-5.742015291633934204
0.563000000000000389,-5.704028459231324177
0.564000000000000279,-5.666522681040445875
0.565000000000000391,-5.629488878248752215
0.566000000000000281,-5.592918066307561276
0.567000000000000393,-5.556801356683507720
0.568000000000000282,-5.521129958495309076
0.569000000000000394,-5.485895180038371066
0.570000000000000284,-5.451088430200548451
0.571000000000000396,-5.416701219771542952
0.572000000000000286,-5.382725162649117934
0.573000000000000398,-5.349151976944632736
0.574000000000000288,-5.315973485990959091
0.575000000000000400,-5.283181619255374883
0.576000000000000290,-5.250768413160249892
0.577000000000000401,-5.218726011814144528
0.578000000000000291,-5.187046667656113996
0.579000000000000403,-5.155722742015679039
0.580000000000000293,-5.124746705591261886
0.581000000000000405,-5.094111138849450882
0.582000000000000295,-5.063808732347779618
0.583000000000000407,-5.033832286983385806
0.584000000000000297,-5.004174714170110505
0.585000000000000409,-4.974829035946319422
0.586000000000000298,-4.945788385015955413
0.587000000000000410,-4.917046004725007968
0.588000000000000300,-4.888595248975844854
0.589000000000000412,-4.860429582081472688
0.590000000000000302,-4.832542578562108559
0.591000000000000414,-4.804927922886110814
0.592000000000000304,-4.777579409157454826
0.593000000000000416,-4.750490940751760149
0.594000000000000306,-4.723656529903032641
0.595000000000000417,-4.697070297242995629
0.596000000000000307,-4.670726471295038706
0.597000000000000419,-4.644619387924656451
0.598000000000000309,-4.618743489748323050
0.599000000000000421,-4.593093325502515256
0.600000000000000311,-4.567663549374809229
0.601000000000000423,-4.542448920298670423
0.602000000000000313,-4.517444301213795477
0.603000000000000425,-4.492644658293462712
0.604000000000000314,-4.468045060140798164
0.605000000000000426,-4.443640676955229907
0.606000000000000316,-4.419426779671011829
0.607000000000000428,-4.395398739068965277
0.608000000000000318,-4.371552024863290420
0.609000000000000430,-4.347882204764531799
0.610000000000000320,-4.324384943520370506
0.611000000000000432,-4.301056001935365636
0.612000000000000322,-4.277891235871193132
0.613000000000000433,-4.254886595228440704
0.614000000000000323,-4.232038122911412792
0.615000000000000435,-4.209341953776978507
0.616000000000000325,-4.186794313568789505
0.617000000000000437,-4.164391517837886525
0.618000000000000327,-4.142129970850903398
0.619000000000000439,-4.120006164486855305
0.620000000000000329,-4.098016677123651696
0.621000000000000441,-4.076158172515215838
0.622000000000000330,-4.054427398660353177
0.623000000000000442,-4.032821186664120816
0.624000000000000332,-4.011336449592819875
0.625000000000000444,-3.989970181323304388
0.626000000000000334,-3.968719455387631712
0.627000000000000446,-3.947581423813731227
0.628000000000000336,-3.926553315963035029
0.629000000000000448,-3.905632437365690546
0.630000000000000338,-3.884816168554272142
0.631000000000000449,-3.864101963896501957
0.632000000000000339,-3.843487350427905902
0.633000000000000451,-3.822969926684841369
0.634000000000000341,-3.802547361538723969
0.635000000000000453,-3.782217393031927166
0.636000000000000343,-3.761977827216057335
0.637000000000000455,-3.741826536993099417
0.638000000000000345,-3.721761460960008261
0.639000000000000457,-3.701780602257252806
0.640000000000000346,-3.681882027421856662
0.641000000000000458,-3.662063865245348548
0.642000000000000348,-3.642324305637148374
0.643000000000000460,-3.622661598493747359
0.644000000000000350,-3.603074052574239516
0.645000000000000462,-3.583560034382414550
0.646000000000000352,-3.564117967055971725
0.647000000000000464,-3.544746329263082973
0.648000000000000353,-3.525443654106779068
0.649000000000000465,-3.506208528037310312
0.650000000000000355,-3.487039589773026194
0.651000000000000467,-3.467935529229813962
0.652000000000000357,-3.448895086459610404
0.653000000000000469,-3.429917050598027650
0.654000000000000359,-3.411000258821578424
0.655000000000000471,-3.392143595314486504
0.656000000000000361,-3.373345990245518067
