# Cu111_ATRAZINE-AC
# h[nm],U(h)[kJ/mol]
0.200000000000000011,77.540554935769208100
0.201000000000000012,72.636731407817279660
0.202000000000000013,68.889737634031973812
0.203000000000000014,65.741894667540080377
0.204000000000000015,62.858642527860730809
0.205000000000000016,60.053976516106956751
0.206000000000000016,57.237557592454592736
0.207000000000000017,54.377839797493365381
0.208000000000000018,51.476916284063143792
0.209000000000000019,48.553838155213242089
0.210000000000000020,45.633972548661844826
0.211000000000000021,42.742590310595161895
0.212000000000000022,39.901350386439176532
0.213000000000000023,37.126710310711679597
0.214000000000000024,34.429565603136211394
0.215000000000000024,31.815625693015039843
0.216000000000000025,29.286186061328997710
0.217000000000000026,26.839068017883903394
0.218000000000000027,24.469578591689106872
0.219000000000000028,22.171400919172533861
0.220000000000000029,19.937366077399218511
0.221000000000000030,17.760085001471285437
0.222000000000000031,15.632437372347691706
0.223000000000000032,13.547925770933129996
0.224000000000000032,11.500909937439200093
0.225000000000000033,9.486739129526549519
0.226000000000000034,7.501801436020859803
0.227000000000000035,5.543508280647897024
0.228000000000000036,3.610230825259038934
0.229000000000000037,1.701202968854890418
0.230000000000000038,-0.183596574846619370
0.231000000000000039,-2.043572858956994587
0.232000000000000040,-3.877645784728071199
0.233000000000000040,-5.684377434843405297
0.234000000000000041,-7.462091092808096349
0.235000000000000042,-9.208978821408388526
0.236000000000000043,-10.923195672365363151
0.237000000000000044,-12.602939572809169988
0.238000000000000045,-14.246516702463733139
0.239000000000000046,-15.852392762063374221
0.240000000000000047,-17.419230963197193773
0.241000000000000048,-18.945917866698252396
0.242000000000000048,-20.431578383705279123
0.243000000000000049,-21.875581351496315108
0.244000000000000050,-23.277537123739204361
0.245000000000000051,-24.637288588215120910
0.246000000000000052,-25.954896958282894559
0.247000000000000053,-27.230623589144194341
0.248000000000000054,-28.464908956068267543
0.249000000000000055,-29.658349807060488956
0.250000000000000056,-30.811675373316443682
0.251000000000000056,-31.925723392099179421
0.252000000000000057,-33.001416572122288073
0.253000000000000058,-34.039740013814295594
0.254000000000000059,-35.041719987845588946
0.255000000000000060,-36.008404376191563756
0.256000000000000061,-36.940844991411289300
0.257000000000000062,-37.840081911929885905
0.258000000000000063,-38.707129903777747870
0.259000000000000064,-39.542966942067401703
0.260000000000000064,-40.348524797897830751
0.261000000000000065,-41.124681617669040179
0.262000000000000066,-41.872256391190305180
0.263000000000000067,-42.592005181658045387
0.264000000000000068,-43.284618973742098547
0.265000000000000069,-43.950722984845320696
0.266000000000000070,-44.590877278308482801
0.267000000000000071,-45.205578515192918587
0.268000000000000071,-45.795262682597368098
0.269000000000000072,-46.360308640632183597
0.270000000000000073,-46.901042336612121630
0.271000000000000074,-47.417741543232239110
0.272000000000000075,-47.910640987010800984
0.273000000000000076,-48.379937743723118615
0.274000000000000077,-48.825796788574436391
0.275000000000000078,-49.248356600175576148
0.276000000000000079,-49.647734728749853161
0.277000000000000079,-50.024033250212696089
0.278000000000000080,-50.377344038658556258
0.279000000000000081,-50.707753800239864006
0.280000000000000082,-51.015348821321900630
0.281000000000000083,-51.300219393078677399
0.282000000000000084,-51.562463883302200429
0.283000000000000085,-51.802192434101151264
0.284000000000000086,-52.019530271352593331
0.285000000000000087,-52.214620618233084315
0.286000000000000087,-52.387627210914423870
0.287000000000000088,-52.538736419573773162
0.288000000000000089,-52.668158982271208401
0.289000000000000090,-52.776131363020262199
0.290000000000000091,-52.862916748553814728
0.291000000000000092,-52.928805700912747056
0.292000000000000093,-52.974116485093148299
0.293000000000000094,-52.999195092627303438
0.294000000000000095,-53.004414983183529841
0.295000000000000095,-52.990176567092419191
0.296000000000000096,-52.956906452183105216
0.297000000000000097,-52.905056478482308080
0.298000000000000098,-52.835102564227554467
0.299000000000000099,-52.747543386311704694
0.300000000000000100,-52.642898917738889963
0.301000000000000101,-52.521708843967132907
0.302000000000000102,-52.384530879165296824
0.303000000000000103,-52.231939002450928911
0.304000000000000103,-52.064521633123526101
0.305000000000000104,-51.882879762786487277
0.306000000000000105,-51.687625061082712818
0.307000000000000106,-51.479377970565849409
0.308000000000000107,-51.258765805013737804
0.309000000000000108,-51.026420864270804145
0.310000000000000109,-50.782978577496734829
0.311000000000000110,-50.529075685508900051
0.312000000000000111,-50.265348471746094106
0.313000000000000111,-49.992431050254808156
0.314000000000000112,-49.710953718017620417
0.315000000000000113,-49.421541377906272885
0.316000000000000114,-49.124812037556864652
0.317000000000000115,-48.821375388532530337
0.318000000000000116,-48.511831469261764482
0.319000000000000117,-48.196769414421581246
0.320000000000000118,-47.876766292670417613
0.321000000000000119,-47.552386033931441034
0.322000000000000119,-47.224178446776775786
0.323000000000000120,-46.892678325870740252
0.324000000000000121,-46.558404648890721944
0.325000000000000122,-46.221859861858263230
0.326000000000000123,-45.883529251378320168
0.327000000000000124,-45.543880401896998933
0.328000000000000125,-45.203362735749678336
0.329000000000000126,-44.862407133475180387
0.330000000000000127,-44.521425631617645990
0.331000000000000127,-44.180811195024453752
0.332000000000000128,-43.840937560470145229
0.333000000000000129,-43.502159148294104796
0.334000000000000130,-43.164811038627433959
0.335000000000000131,-42.829209008704651751
0.336000000000000132,-42.495649627699535245
0.337000000000000133,-42.164410405495750922
0.338000000000000134,-41.835749991795630365
0.339000000000000135,-41.509908421983702453
0.340000000000000135,-41.187107406193135262
0.341000000000000136,-40.867550658071742475
0.342000000000000137,-40.551424259806438499
0.343000000000000138,-40.238897060041139753
0.344000000000000139,-39.930121101408744266
0.345000000000000140,-39.625232074495400525
0.346000000000000141,-39.324349795158610732
0.347000000000000142,-39.027578702232062824
0.348000000000000143,-38.735008372767666174
0.349000000000000143,-38.446714052085170010
0.350000000000000144,-38.162757196025147266
0.351000000000000145,-37.883186022927603176
0.352000000000000146,-37.608036072986735121
0.353000000000000147,-37.337330772761305298
0.354000000000000148,-37.071082002749292883
0.355000000000000149,-36.809290666062864261
0.356000000000000150,-36.551947256367633088
0.357000000000000151,-36.299032423374107736
0.358000000000000151,-36.050517534292666255
0.359000000000000152,-35.806365229783068571
0.360000000000000153,-35.566529973046641544
0.361000000000000154,-35.330958590822888254
0.362000000000000155,-35.099590805162357299
0.363000000000000156,-34.872359754954011635
0.364000000000000157,-34.649192506287249671
0.365000000000000158,-34.430010550827852001
0.366000000000000159,-34.214730291480385915
0.367000000000000159,-34.003263514699810344
0.368000000000000160,-33.795517848900729518
0.369000000000000161,-33.591397208493958715
0.370000000000000162,-33.390802223156754280
0.371000000000000163,-33.193630652016608451
0.372000000000000164,-32.999777782496018119
0.373000000000000165,-32.809136813631191387
0.374000000000000166,-32.621599223737163697
0.375000000000000167,-32.437055122348425584
0.376000000000000167,-32.255393586417127949
0.377000000000000168,-32.076502980798821341
0.378000000000000169,-31.900271263101650732
0.379000000000000170,-31.726586273015765727
0.380000000000000171,-31.555336006278501770
0.381000000000000172,-31.386408873465114766
0.382000000000000173,-31.219693943827014238
0.383000000000000174,-31.055081174428096347
0.384000000000000175,-30.892461624855393154
0.385000000000000175,-30.731727657803531883
0.386000000000000176,-30.572773125852883425
0.387000000000000177,-30.415493544779259594
0.388000000000000178,-30.259786253748778506
0.389000000000000179,-30.105550562764754829
0.390000000000000180,-29.952687887744911421
0.391000000000000181,-29.801101873616723026
0.392000000000000182,-29.650698505825896945
0.393000000000000183,-29.501386210659120479
0.394000000000000183,-29.353075944786201745
0.395000000000000184,-29.205681274429565519
0.396000000000000185,-29.059118444570124495
0.397000000000000186,-28.913306438599004622
0.398000000000000187,-28.768167028822762887
0.399000000000000188,-28.623624818228201150
0.400000000000000189,-28.479607273908982279
0.401000000000000190,-28.336044752552453474
0.402000000000000191,-28.192870518379827161
0.403000000000000191,-28.050020753927320527
0.404000000000000192,-27.907434564049072634
0.405000000000000193,-27.765053973515996688
0.406000000000000194,-27.622823918576592916
0.407000000000000195,-27.480692232838446643
0.408000000000000196,-27.338609627819703718
0.409000000000000197,-27.196529668511676192
0.410000000000000198,-27.054408744284465627
0.411000000000000199,-26.912206035457650444
0.412000000000000199,-26.769883475848907040
0.413000000000000200,-26.627405711603707061
0.414000000000000201,-26.484740056598816693
0.415000000000000202,-26.341856444702820284
0.416000000000000203,-26.198727379166712126
0.417000000000000204,-26.055327879407364833
0.418000000000000205,-25.911635425436912783
0.419000000000000206,-25.767629900180860858
0.420000000000000207,-25.623293529917738454
0.421000000000000207,-25.478610823063757351
0.422000000000000208,-25.333568507515142443
0.423000000000000209,-25.188155466752487399
0.424000000000000210,-25.042362674900889630
0.425000000000000211,-24.896183130930822358
0.426000000000000212,-24.749611792175610248
0.427000000000000213,-24.602645507331942554
0.428000000000000214,-24.455282949101711409
0.429000000000000214,-24.307524546624250661
0.430000000000000215,-24.159372417840042857
0.431000000000000216,-24.010830301919007468
0.432000000000000217,-23.861903491877846761
0.433000000000000218,-23.712598767504033503
0.434000000000000219,-23.562924328695991960
0.435000000000000220,-23.412889729322188259
0.436000000000000221,-23.262505811694317970
0.437000000000000222,-23.111784641743732038
0.438000000000000222,-22.960739444982976920
0.439000000000000223,-22.809384543328633299
0.440000000000000224,-22.657735292855154086
0.441000000000000225,-22.505808022543732250
0.442000000000000226,-22.353619974084846689
0.443000000000000227,-22.201189242787194189
0.444000000000000228,-22.048534719641331492
0.445000000000000229,-21.895676034580727531
0.446000000000000230,-21.742633500978612915
0.447000000000000230,-21.589428061414473348
0.448000000000000231,-21.436081234739759793
0.449000000000000232,-21.282615064468018318
0.450000000000000233,-21.129052068511310125
0.451000000000000234,-20.975415190280589428
0.452000000000000235,-20.821727751164626596
0.453000000000000236,-20.668013404398323019
0.454000000000000237,-20.514296090328681288
0.455000000000000238,-20.360599993083223325
0.456000000000000238,-20.206949498643275831
0.457000000000000239,-20.053369154321522672
0.458000000000000240,-19.899883629641411886
0.459000000000000241,-19.746517678612764968
0.460000000000000242,-19.593296103396806274
0.461000000000000243,-19.440243719351023799
0.462000000000000244,-19.287385321442986452
0.463000000000000245,-19.134745652019763185
0.464000000000000246,-18.982349369919102600
0.465000000000000246,-18.830221020905920426
0.466000000000000247,-18.678385009416949458
0.467000000000000248,-18.526865571594790083
0.468000000000000249,-18.375686749592034630
0.469000000000000250,-18.224872367124113737
0.470000000000000251,-18.074446006249694108
0.471000000000000252,-17.924430985355634505
0.472000000000000253,-17.774850338323478383
0.473000000000000254,-17.625726794853328272
0.474000000000000254,-17.477082761920563314
0.475000000000000255,-17.328940306340307131
0.476000000000000256,-17.181321138414080707
0.477000000000000257,-17.034246596632844017
0.478000000000000258,-16.887737633410068838
0.479000000000000259,-16.741814801818453162
0.480000000000000260,-16.596498243303809517
0.481000000000000261,-16.451807676349044840
0.482000000000000262,-16.307762386061703808
0.483000000000000262,-16.164381214658163799
0.484000000000000263,-16.021682552817473777
0.485000000000000264,-15.879684331878337389
0.486000000000000265,-15.738404016852422629
0.487000000000000266,-15.597858600227507253
0.488000000000000267,-15.458064596534125457
0.489000000000000268,-15.319038037649715278
0.490000000000000269,-15.180794468814150733
0.491000000000000270,-15.043348945331302957
0.492000000000000270,-14.906716029931112999
0.493000000000000271,-14.770909790767330350
0.494000000000000272,-14.635943800026177897
0.495000000000000273,-14.501831133121592998
0.496000000000000274,-14.368584368453408473
0.497000000000000275,-14.236215587704521113
0.498000000000000276,-14.104736376654292584
0.499000000000000277,-13.974157826485400946
0.500000000000000222,-13.844490535561726929
0.501000000000000334,-13.715744611655674490
0.502000000000000224,-13.587929674603582697
0.503000000000000336,-13.461054859367909131
0.504000000000000226,-13.335128819486516960
0.505000000000000338,-13.210159730888161533
0.506000000000000227,-13.086155296055698827
0.507000000000000339,-12.963122748516974880
0.508000000000000229,-12.841068857645847601
0.509000000000000341,-12.719999933754365884
0.510000000000000231,-12.599921833459500675
0.511000000000000343,-12.480839965306325112
0.512000000000000233,-12.362759295631994050
0.513000000000000345,-12.245684354653517900
0.514000000000000234,-12.129619242764613674
0.515000000000000346,-12.014567637025361790
0.516000000000000236,-11.900532797831107956
0.517000000000000348,-11.787517575745296128
0.518000000000000238,-11.675524418483359312
0.519000000000000350,-11.564555378033539057
0.520000000000000240,-11.454612117902431834
0.521000000000000352,-11.345695920472248730
0.522000000000000242,-11.237807694458297192
0.523000000000000353,-11.130947982454570067
0.524000000000000243,-11.025116968556851305
0.525000000000000355,-10.920314486052046021
0.526000000000000245,-10.816540025164002259
0.527000000000000357,-10.713792740845207163
0.528000000000000247,-10.612071460605600137
0.529000000000000359,-10.511374692368612216
0.530000000000000249,-10.411700632346297724
0.531000000000000361,-10.313047172924624917
0.532000000000000250,-10.215411910551456032
0.533000000000000362,-10.118792153618921148
0.534000000000000252,-10.023184930333426834
0.535000000000000364,-9.928586996565860190
0.536000000000000254,-9.834994843675756826
0.537000000000000366,-9.742404706302506767
0.538000000000000256,-9.650812570118358025
0.539000000000000368,-9.560214179536600909
0.540000000000000258,-9.470605045370442454
0.541000000000000369,-9.381980452436483375
0.542000000000000259,-9.294335467098886028
0.543000000000000371,-9.207664944748806590
0.544000000000000261,-9.121963537215457052
0.545000000000000373,-9.037225700104198012
0.546000000000000263,-8.953445700058402679
0.547000000000000375,-8.870617621940819930
0.548000000000000265,-8.788735375931990390
0.549000000000000377,-8.707792704541670759
0.550000000000000266,-8.627783189531223584
0.551000000000000378,-8.548700258743606284
0.552000000000000268,-8.470537192839085350
0.553000000000000380,-8.393287131933842460
0.554000000000000270,-8.316943082139946597
0.555000000000000382,-8.241497922004251464
0.556000000000000272,-8.166944408845074221
0.557000000000000384,-8.093275184984459969
0.558000000000000274,-8.020482783875355182
0.559000000000000385,-7.948559636121791172
0.560000000000000275,-7.877498075391590859
0.561000000000000387,-7.807290344220179534
0.562000000000000277,-7.737928599705147903
0.563000000000000389,-7.669404919090517581
0.564000000000000279,-7.601711305240565153
0.565000000000000391,-7.534839692002480938
0.566000000000000281,-7.468781949457840241
0.567000000000000393,-7.403529889062477665
0.568000000000000282,-7.339075268675036234
0.569000000000000394,-7.275409797473774809
0.570000000000000284,-7.212525140762316767
0.571000000000000396,-7.150412924664055758
0.572000000000000286,-7.089064740706024104
0.573000000000000398,-7.028472150292159881
0.574000000000000288,-6.968626689066883095
0.575000000000000400,-6.909519871169294447
0.576000000000000290,-6.851143193378732121
0.577000000000000401,-6.793488139152327854
0.578000000000000291,-6.736546182555477102
0.579000000000000403,-6.680308792085813074
0.580000000000000293,-6.624767434391894305
0.581000000000000405,-6.569913577887180445
0.582000000000000295,-6.515738696260697793
0.583000000000000407,-6.462234271885021641
0.584000000000000297,-6.409391799123021372
0.585000000000000409,-6.357202787534208532
0.586000000000000298,-6.305658764982132958
0.587000000000000410,-6.254751280643693789
0.588000000000000300,-6.204471907921981000
0.589000000000000412,-6.154812247263505398
0.590000000000000302,-6.105763928881492220
0.591000000000000414,-6.057318615386266814
0.592000000000000304,-6.009468004324242330
0.593000000000000416,-5.962203830626739531
0.594000000000000306,-5.915517868970184168
0.595000000000000417,-5.869401936048885382
0.596000000000000307,-5.823847892761946810
0.597000000000000419,-5.778847646315655062
0.598000000000000309,-5.734393152242865277
0.599000000000000421,-5.690476416340660037
0.600000000000000311,-5.647089496527959440
0.601000000000000423,-5.604224504624276904
0.602000000000000313,-5.561873608051405959
0.603000000000000425,-5.520029031459039892
0.604000000000000314,-5.478683058276378581
0.605000000000000426,-5.437828032190545002
0.606000000000000316,-5.397456358553889721
0.607000000000000428,-5.357560505721065347
0.608000000000000318,-5.318133006317853351
0.609000000000000430,-5.279166458442764664
0.610000000000000320,-5.240653526803173534
0.611000000000000432,-5.202586943787181895
0.612000000000000322,-5.164959510472866278
0.613000000000000433,-5.127764097576112512
0.614000000000000323,-5.090993646338671574
0.615000000000000435,-5.054641169357619646
0.616000000000000325,-5.018699751357822869
0.617000000000000437,-4.983162549908604078
0.618000000000000327,-4.948022796086159580
0.619000000000000439,-4.913273795082878870
0.620000000000000329,-4.878908926765137544
0.621000000000000441,-4.844921646180670116
0.622000000000000330,-4.811305484017063705
0.623000000000000442,-4.778054047012416206
0.624000000000000332,-4.745161018319715929
0.625000000000000444,-4.712620157825982758
0.626000000000000334,-4.680425302427584811
0.627000000000000446,-4.648570366262863018
0.628000000000000336,-4.617049340903364829
0.629000000000000448,-4.585856295504804336
0.630000000000000338,-4.554985376919075790
0.631000000000000449,-4.524430809768258399
0.632000000000000339,-4.494186896482088578
0.633000000000000451,-4.464248017299682125
0.634000000000000341,-4.434608630236922977
0.635000000000000453,-4.405263271020425364
0.636000000000000343,-4.376206552989223120
0.637000000000000455,-4.347433166965279483
0.638000000000000345,-4.318937881093807718
0.639000000000000457,-4.290715540654404414
0.640000000000000346,-4.262761067844142993
0.641000000000000458,-4.235069461533442770
0.642000000000000348,-4.207635796995823796
0.643000000000000460,-4.180455225612382364
0.644000000000000350,-4.153522974552099178
0.645000000000000462,-4.126834346428656097
0.646000000000000352,-4.100384718934906303
0.647000000000000464,-4.074169544455670255
0.648000000000000353,-4.048184349659947223
0.649000000000000465,-4.022424735073084179
0.650000000000000355,-3.996886374630116201
0.651000000000000467,-3.971565015210686056
0.652000000000000357,-3.946456476156702475
0.653000000000000469,-3.921556648773189213
0.654000000000000359,-3.896861495813404908
0.655000000000000471,-3.872367050948655187
0.656000000000000361,-3.848069418223805549
