# Cu111_ARG-AC
# h[nm],U(h)[kJ/mol]
0.149999999999999994,93.086957585239559876
0.150999999999999995,81.820764606704528887
0.151999999999999996,77.747493617250398756
0.152999999999999997,75.293145143074070802
0.153999999999999998,72.412747587990253351
0.154999999999999999,68.714124235193082768
0.156000000000000000,64.449176953602176354
0.157000000000000001,60.013769159793206143
0.158000000000000002,55.733214661269713019
0.159000000000000002,51.798322645620984872
0.160000000000000003,48.272930837978734075
0.161000000000000004,45.128779648503275723
0.162000000000000005,42.284802762446403790
0.163000000000000006,39.640363659720676992
0.164000000000000007,37.098919363590631804
0.165000000000000008,34.582179819069907012
0.166000000000000009,32.036431302264347210
0.167000000000000010,29.433176215439374346
0.168000000000000010,26.766146836668376352
0.169000000000000011,24.046397611688281160
0.170000000000000012,21.296751654868408821
0.171000000000000013,18.546468309672693664
0.172000000000000014,15.826653843124734777
0.173000000000000015,13.166670414464567429
0.174000000000000016,10.591606891522697964
0.175000000000000017,8.120748643826669166
0.176000000000000018,5.766909118371924770
0.177000000000000018,3.536450835779656021
0.178000000000000019,1.429815900416339547
0.179000000000000020,-0.557603331630132315
0.180000000000000021,-2.434401580100925777
0.181000000000000022,-4.212027783691635996
0.182000000000000023,-5.903676298032562109
0.183000000000000024,-7.523270118493222469
0.184000000000000025,-9.084580675914438075
0.185000000000000026,-10.600508958057082154
0.186000000000000026,-12.082536785050690398
0.187000000000000027,-13.540344900283457719
0.188000000000000028,-14.981585795032884789
0.189000000000000029,-16.411793412229943812
0.190000000000000030,-17.834408571386155984
0.191000000000000031,-19.250897624119403417
0.192000000000000032,-20.660942022390038630
0.193000000000000033,-22.062677745349855485
0.194000000000000034,-23.452965531289464707
0.195000000000000034,-24.827675305926401705
0.196000000000000035,-26.181970853761349360
0.197000000000000036,-27.510583466017543230
0.198000000000000037,-28.808065884771970389
0.199000000000000038,-30.069020256594626517
0.200000000000000039,-31.288295951889018909
0.201000000000000040,-32.461154966353582552
0.202000000000000041,-33.583404187389717777
0.203000000000000042,-34.651495085155382014
0.204000000000000042,-35.662592390633363948
0.205000000000000043,-36.614614074279423050
0.206000000000000044,-37.506245465734203037
0.207000000000000045,-38.336930687082805491
0.208000000000000046,-39.106844739002148970
0.209000000000000047,-39.816849609758243389
0.210000000000000048,-40.468437698541478653
0.211000000000000049,-41.063665681852917544
0.212000000000000050,-41.605081726693903477
0.213000000000000050,-42.095648686444747000
0.214000000000000051,-42.538665621018154184
0.215000000000000052,-42.937689675879468609
0.216000000000000053,-43.296460046045474712
0.217000000000000054,-43.618825450093638096
0.218000000000000055,-43.908676252347035529
0.219000000000000056,-44.169882103741500146
0.220000000000000057,-44.406235726875912917
0.221000000000000058,-44.621403250496896931
0.222000000000000058,-44.818881304217939032
0.223000000000000059,-45.001960915747353909
0.224000000000000060,-45.173698109751590835
0.225000000000000061,-45.336890988618698373
0.226000000000000062,-45.494062979323601326
0.227000000000000063,-45.647451855582460212
0.228000000000000064,-45.799004088589143180
0.229000000000000065,-45.950374040843506407
0.230000000000000066,-46.102927493874339859
0.231000000000000066,-46.257748990037342196
0.232000000000000067,-46.415652469103790168
0.233000000000000068,-46.577194690234954066
0.234000000000000069,-46.742690947469519358
0.235000000000000070,-46.912232610485951056
0.236000000000000071,-47.085706050734813743
0.237000000000000072,-47.262812544817464300
0.238000000000000073,-47.443088781108876617
0.239000000000000073,-47.625927631123389006
0.240000000000000074,-47.810598883180560392
0.241000000000000075,-47.996269671844522975
0.242000000000000076,-48.182024371807202101
0.243000000000000077,-48.366883758896499046
0.244000000000000078,-48.549823273339903551
0.245000000000000079,-48.729790251020887126
0.246000000000000080,-48.905720017019433499
0.247000000000000081,-49.076550762095507707
0.248000000000000081,-49.241237146865266538
0.249000000000000082,-49.398762600210922358
0.250000000000000111,-49.548150297960496857
0.251000000000000112,-49.688472825118310539
0.252000000000000113,-49.818860539996080661
0.253000000000000114,-49.938508671573849540
0.254000000000000115,-50.046683192430222675
0.255000000000000115,-50.142725518734792445
0.256000000000000116,-50.226056096231033621
0.257000000000000117,-50.296176936986071837
0.258000000000000118,-50.352673176083200701
0.259000000000000119,-50.395213720523500456
0.260000000000000120,-50.423551064516324516
0.261000000000000121,-50.437520346205708677
0.262000000000000122,-50.437037720830815601
0.263000000000000123,-50.422098124466671720
0.264000000000000123,-50.392772500955189230
0.265000000000000124,-50.349204562517044792
0.266000000000000125,-50.291607151933320097
0.267000000000000126,-50.220258271188200183
0.268000000000000127,-50.135496838157685318
0.269000000000000128,-50.037718229382974755
0.270000000000000129,-49.927369663252441967
0.271000000000000130,-49.804945474091155688
0.272000000000000131,-49.670982323774104827
0.273000000000000131,-49.526054393586015578
0.274000000000000132,-49.370768595187037420
0.275000000000000133,-49.205759835744530051
0.276000000000000134,-49.031686368585219782
0.277000000000000135,-48.849225257134534672
0.278000000000000136,-48.659067976461145122
0.279000000000000137,-48.461916173449047562
0.280000000000000138,-48.258477603492345054
0.281000000000000139,-48.049462258654401126
0.282000000000000139,-47.835578699463425778
0.283000000000000140,-47.617530599931335189
0.284000000000000141,-47.396013512985213367
0.285000000000000142,-47.171711861289509216
0.286000000000000143,-46.945296156410073252
0.287000000000000144,-46.717420447424423458
0.288000000000000145,-46.488719998412719292
0.289000000000000146,-46.259809192761963459
0.290000000000000147,-46.031279660879135918
0.291000000000000147,-45.803698626726443877
0.292000000000000148,-45.577607467558799215
0.293000000000000149,-45.353520480349352795
0.294000000000000150,-45.131923847627362534
0.295000000000000151,-44.913274794813915491
0.296000000000000152,-44.698000930617055815
0.297000000000000153,-44.486499761630831529
0.298000000000000154,-44.279138371963270515
0.299000000000000155,-44.076253258489650477
0.300000000000000155,-43.878150312180267179
0.301000000000000156,-43.685104935880147536
0.302000000000000157,-43.497362288913500095
0.303000000000000158,-43.315137648941160364
0.304000000000000159,-43.138616881609493703
0.305000000000000160,-42.967957008685580433
0.306000000000000161,-42.803286865573248576
0.307000000000000162,-42.644707839338693134
0.308000000000000163,-42.492294678640696759
0.309000000000000163,-42.346096367252172854
0.310000000000000164,-42.206137053173321760
0.311000000000000165,-42.072417025668059409
0.312000000000000166,-41.944913732899280490
0.313000000000000167,-41.823582833194691943
0.314000000000000168,-41.708359273335332773
0.315000000000000169,-41.599158387626893330
0.316000000000000170,-41.495877011879983343
0.317000000000000171,-41.398394606794134631
0.318000000000000171,-41.306574385602999655
0.319000000000000172,-41.220264441199631733
0.320000000000000173,-41.139298868312735635
0.321000000000000174,-41.063498876651514990
0.322000000000000175,-40.992673891273469167
0.323000000000000176,-40.926622636756924578
0.324000000000000177,-40.865134202076504266
0.325000000000000178,-40.807989083385130868
0.326000000000000179,-40.754960202199164598
0.327000000000000179,-40.705813896764290405
0.328000000000000180,-40.660310884648012575
0.329000000000000181,-40.618207194859770937
0.330000000000000182,-40.579255068041717891
0.331000000000000183,-40.543203823503013439
0.332000000000000184,-40.509800692085732976
0.333000000000000185,-40.478791614054614456
0.334000000000000186,-40.449922001392636162
0.335000000000000187,-40.422937464063011248
0.336000000000000187,-40.397584499963521409
0.337000000000000188,-40.373611148452859254
0.338000000000000189,-40.350767607471269116
0.339000000000000190,-40.328806814408579839
0.340000000000000191,-40.307484990991802931
0.341000000000000192,-40.286562152576244955
0.342000000000000193,-40.265802582321583714
0.343000000000000194,-40.244975270825179336
0.344000000000000195,-40.223854321866241435
0.345000000000000195,-40.202219324985712490
0.346000000000000196,-40.179855695690861239
0.347000000000000197,-40.156554984129869013
0.348000000000000198,-40.132115153129433338
0.349000000000000199,-40.106340826530882282
0.350000000000000200,-40.079043508794363504
0.351000000000000201,-40.050041776870230592
0.352000000000000202,-40.019161445358847118
0.353000000000000203,-39.986235705998822709
0.354000000000000203,-39.951105242535177808
0.355000000000000204,-39.913618322027659246
0.356000000000000205,-39.873630863662924639
0.357000000000000206,-39.831006486134235445
0.358000000000000207,-39.785616534647864739
0.359000000000000208,-39.737340088609265365
0.360000000000000209,-39.686063951031009367
0.361000000000000210,-39.631682620692117780
0.362000000000000210,-39.574098248062639982
0.363000000000000211,-39.513220575990374073
0.364000000000000212,-39.448966866126639275
0.365000000000000213,-39.381261812046631121
0.366000000000000214,-39.310037439998012587
0.367000000000000215,-39.235232998185963993
0.368000000000000216,-39.156794835479146855
0.369000000000000217,-39.074676270393567279
0.370000000000000218,-38.988837451185517580
0.371000000000000218,-38.899245207856388618
0.372000000000000219,-38.805872896844292086
0.373000000000000220,-38.708700239149536060
0.374000000000000221,-38.607713152611445651
0.375000000000000222,-38.502903579026202863
0.376000000000000223,-38.394269306765536953
0.377000000000000224,-38.281813789528897018
0.378000000000000225,-38.165545961831455202
0.379000000000000226,-38.045480051803210131
0.380000000000000226,-37.921635391846557184
0.381000000000000227,-37.794036227670844141
0.382000000000000228,-37.662711526197107048
0.383000000000000229,-37.527694782797716755
0.384000000000000230,-37.389023828310911313
0.385000000000000231,-37.246740636244126677
0.386000000000000232,-37.100891130554558117
0.387000000000000233,-36.951524994372398680
0.388000000000000234,-36.798695480006834657
0.389000000000000234,-36.642459220553938337
0.390000000000000235,-36.482876043401120114
0.391000000000000236,-36.320008785903269199
0.392000000000000237,-36.153923113483493523
0.393000000000000238,-35.984687340392156329
0.394000000000000239,-35.812372253337613870
0.395000000000000240,-35.637050938184657412
0.396000000000000241,-35.458798609897733911
0.397000000000000242,-35.277692445889030637
0.398000000000000242,-35.093811422915813125
0.399000000000000243,-34.907236157654480735
0.400000000000000244,-34.718048751064920054
0.401000000000000245,-34.526332636643573437
0.402000000000000246,-34.332172432650608584
0.403000000000000247,-34.135653798383060575
0.404000000000000248,-33.936863294553958781
0.405000000000000249,-33.735888247825769781
0.406000000000000250,-33.532816619534834501
0.407000000000000250,-33.327736878634155460
0.408000000000000251,-33.120737878870883719
0.409000000000000252,-32.911908740206527568
0.410000000000000253,-32.701338734478632375
0.411000000000000254,-32.489117175295092466
0.412000000000000255,-32.275333312143963838
0.413000000000000256,-32.060076228695194800
0.414000000000000257,-31.843434745263653696
0.415000000000000258,-31.625497325396946025
0.416000000000000258,-31.406351986545740118
0.417000000000000259,-31.186086214768938163
0.418000000000000260,-30.964786883421730579
0.419000000000000261,-30.742540175769157429
0.420000000000000262,-30.519431511465075602
0.421000000000000263,-30.295545476831694742
0.422000000000000264,-30.070965758871967211
0.423000000000000265,-29.845775082944129508
0.424000000000000266,-29.620055154025330069
0.425000000000000266,-29.393886601488048882
0.426000000000000267,-29.167348927312126250
0.427000000000000268,-28.940520457652439745
0.428000000000000269,-28.713478297681433560
0.429000000000000270,-28.486298289624119917
0.430000000000000271,-28.259054973901999830
0.431000000000000272,-28.031821553302059158
0.432000000000000273,-27.804669860085699185
0.433000000000000274,-27.577670325952766461
0.434000000000000274,-27.350891954774784409
0.435000000000000275,-27.124402298012416423
0.436000000000000276,-26.898267432731511661
0.437000000000000277,-26.672551942132351144
0.438000000000000278,-26.447318898507933937
0.439000000000000279,-26.222629848546652909
0.440000000000000280,-25.998544800895835749
0.441000000000000281,-25.775122215903515155
0.442000000000000282,-25.552418997456324945
0.443000000000000282,-25.330490486832538011
0.444000000000000283,-25.109390458490278064
0.445000000000000284,-24.889171117712187709
0.446000000000000285,-24.669883100028545897
0.447000000000000286,-24.451575472343009210
0.448000000000000287,-24.234295735685190465
0.449000000000000288,-24.018089829517016653
0.450000000000000289,-23.803002137520081760
0.451000000000000290,-23.589075494793394938
0.452000000000000290,-23.376351196392043619
0.453000000000000291,-23.164869007139021306
0.454000000000000292,-22.954667172643866024
0.455000000000000293,-22.745782431463311468
0.456000000000000294,-22.538250028340979014
0.457000000000000295,-22.332103728464439030
0.458000000000000296,-22.127375832679614831
0.459000000000000297,-21.924097193604570322
0.460000000000000298,-21.722297232585368931
0.461000000000000298,-21.522003957439544308
0.462000000000000299,-21.323243980933305863
0.463000000000000300,-21.126042539940605991
0.464000000000000301,-20.930423515233975706
0.465000000000000302,-20.736409451858470732
0.466000000000000303,-20.544021580041224695
0.467000000000000304,-20.353279836591557483
0.468000000000000305,-20.164202886747265353
0.469000000000000306,-19.976808146424797741
0.470000000000000306,-19.791111804832336674
0.471000000000000307,-19.607128847406084304
0.472000000000000308,-19.424873079032121126
0.473000000000000309,-19.244357147516829798
0.474000000000000310,-19.065592567271064439
0.475000000000000311,-18.888589743173916702
0.476000000000000312,-18.713357994584313815
0.477000000000000313,-18.539905579468474173
0.478000000000000314,-18.368239718614301381
0.479000000000000314,-18.198366619903779906
0.480000000000000315,-18.030291502616250909
0.481000000000000316,-17.864018621736686754
0.482000000000000317,-17.699551292244073863
0.483000000000000318,-17.536891913356292605
0.484000000000000319,-17.376041992709076567
0.485000000000000320,-17.217002170447663900
0.486000000000000321,-17.059772243210936438
0.487000000000000322,-16.904351187988623906
0.488000000000000322,-16.750737185833582288
0.489000000000000323,-16.598927645411901466
0.490000000000000324,-16.448919226374588476
0.491000000000000325,-16.300707862535496417
0.492000000000000326,-16.154288784841174476
0.493000000000000327,-16.009656544119145849
0.494000000000000328,-15.866805033591919738
0.495000000000000329,-15.725727511145048965
0.496000000000000330,-15.586416621338013755
0.497000000000000330,-15.448864417147888162
0.498000000000000331,-15.313062381436173709
0.499000000000000332,-15.179001448130176044
0.500000000000000333,-15.046672023110653882
0.501000000000000334,-14.916064004798471387
0.502000000000000335,-14.787166804433500289
0.503000000000000336,-14.659969366039636185
0.504000000000000337,-14.534460186070276677
0.505000000000000338,-14.410627332729500694
0.506000000000000338,-14.288458464964429950
0.507000000000000339,-14.167940851124859236
0.508000000000000340,-14.049061387286906566
0.509000000000000341,-13.931806615237761093
0.510000000000000342,-13.816162740119100505
0.511000000000000343,-13.702115647727207914
0.512000000000000344,-13.589650921468308553
0.513000000000000345,-13.478753858967962742
0.514000000000000346,-13.369409488333801050
0.515000000000000346,-13.261602584071246369
0.516000000000000347,-13.155317682652116318
0.517000000000000348,-13.050539097736665539
0.518000000000000349,-12.947250935049371634
0.519000000000000350,-12.845437106909795233
0.520000000000000351,-12.745081346419457446
0.521000000000000352,-12.646167221306399142
0.522000000000000353,-12.548678147429161100
0.523000000000000353,-12.452597401942124833
0.524000000000000354,-12.357908136124665432
0.525000000000000355,-12.264593387876303154
0.526000000000000356,-12.172636093880708330
0.527000000000000357,-12.082019101441421327
0.528000000000000358,-11.992725179992152817
0.529000000000000359,-11.904737032285048315
0.530000000000000360,-11.818037305260236991
0.531000000000000361,-11.732608600600077153
0.532000000000000361,-11.648433484971805640
0.533000000000000362,-11.565494499962394315
0.534000000000000363,-11.483774171709422163
0.535000000000000364,-11.403255020231949146
0.536000000000000365,-11.323919568465516505
0.537000000000000366,-11.245750351005437295
0.538000000000000367,-11.168729922562562251
0.539000000000000368,-11.092840866135949440
0.540000000000000369,-11.018065800906679641
0.541000000000000369,-10.944387389857407555
0.542000000000000370,-10.871788347122041785
0.543000000000000371,-10.800251445070115253
0.544000000000000372,-10.729759521130421973
0.545000000000000373,-10.660295484358508489
0.546000000000000374,-10.591842321752663381
0.547000000000000375,-10.524383104323014493
0.548000000000000376,-10.457900992918457206
0.549000000000000377,-10.392379243816028733
0.550000000000000377,-10.327801214077373615
0.551000000000000378,-10.264150366677057491
0.552000000000000379,-10.201410275407326367
0.553000000000000380,-10.139564629564004505
0.554000000000000381,-10.078597238418113946
0.555000000000000382,-10.018492035477969182
0.556000000000000383,-9.959233082546170124
0.557000000000000384,-9.900804573576271750
0.558000000000000385,-9.843190838333516268
0.559000000000000385,-9.786376345864294279
0.560000000000000386,-9.730345707778715436
0.561000000000000387,-9.675083681350839626
0.562000000000000388,-9.620575172440931411
0.563000000000000389,-9.566805238244107557
0.564000000000000390,-9.513759089869818553
0.565000000000000391,-9.461422094756324341
0.566000000000000392,-9.409779778924530547
0.567000000000000393,-9.358817829075320560
0.568000000000000393,-9.308522094534552593
0.569000000000000394,-9.258878589049832186
0.570000000000000395,-9.209873492443167109
0.571000000000000396,-9.161493152123355799
0.572000000000000397,-9.113724084462253572
0.573000000000000398,-9.066552976038623868
0.574000000000000399,-9.019966684753560671
0.575000000000000400,-8.973952240821160942
0.576000000000000401,-8.928496847638177414
0.577000000000000401,-8.883587882536408742
0.578000000000000402,-8.839212897421306891
0.579000000000000403,-8.795359619300398890
0.580000000000000404,-8.752015950705089864
0.581000000000000405,-8.709169970009117634
0.582000000000000406,-8.666809931647161847
0.583000000000000407,-8.624924266236835280
0.584000000000000408,-8.583501580607372006
0.585000000000000409,-8.542530657738113931
0.586000000000000409,-8.502000456610009138
0.587000000000000410,-8.461900111973147176
0.588000000000000411,-8.422218934033327997
0.589000000000000412,-8.382946408060632848
0.590000000000000413,-8.344072193922889014
0.591000000000000414,-8.305586125546856380
0.592000000000000415,-8.267478210309880282
0.593000000000000416,-8.229738628364739128
0.594000000000000417,-8.192357731900353102
0.595000000000000417,-8.155326044340977631
0.596000000000000418,-8.118634259486251281
0.597000000000000419,-8.082273240594894048
0.598000000000000420,-8.046234019414121974
0.599000000000000421,-8.010507795157426614
0.600000000000000422,-7.975085933432879415
0.601000000000000423,-7.939959965124272046
0.602000000000000424,-7.905121585227325554
0.603000000000000425,-7.870562651643007612
0.604000000000000425,-7.836275183930214716
