# Cu111_ETHANAMINE-AC
# h[nm],U(h)[kJ/mol]
0.149999999999999994,94.874972153040729950
0.150999999999999995,93.158606228801858151
0.151999999999999996,89.871049639349891436
0.152999999999999997,86.273447503179269802
0.153999999999999998,82.879403900622151014
0.154999999999999999,79.819643608349892361
0.156000000000000000,77.053528374221542663
0.157000000000000001,74.484605233371084410
0.158000000000000002,72.017916479825728970
0.159000000000000002,69.583494713491774064
0.160000000000000003,67.141474129979698660
0.161000000000000004,64.678261726900146300
0.162000000000000005,62.199297206032419183
0.163000000000000006,59.721428807363544422
0.164000000000000007,57.266381454488865188
0.165000000000000008,54.855871594037033390
0.166000000000000009,52.508408429045992705
0.167000000000000010,50.237563241380101431
0.168000000000000010,48.051386276043800194
0.169000000000000011,45.952637894013157904
0.170000000000000012,43.939534825180174948
0.171000000000000013,42.006766923264670766
0.172000000000000014,40.146599152040337799
0.173000000000000015,38.349928962378143638
0.174000000000000016,36.607216573556051742
0.175000000000000017,34.909243514454615820
0.176000000000000018,33.247683265237910177
0.177000000000000018,31.615487962006898925
0.178000000000000019,30.007108244962445553
0.179000000000000020,28.418570881986831012
0.180000000000000021,26.847442136338116825
0.181000000000000022,25.292705154091553510
0.182000000000000023,23.754577909919568413
0.183000000000000024,22.234295254633515526
0.184000000000000025,20.733874956335160533
0.185000000000000026,19.255883760695787998
0.186000000000000026,17.803215723198320575
0.187000000000000027,16.378891588599493900
0.188000000000000028,14.985884928867463373
0.189000000000000029,13.626978156725215285
0.190000000000000030,12.304649419187587256
0.191000000000000031,11.020989724911151697
0.192000000000000032,9.777648431921646122
0.193000000000000033,8.575804368284257961
0.194000000000000034,7.416159322543658838
0.195000000000000034,6.298950367790363991
0.196000000000000035,5.223977420073985911
0.197000000000000036,4.190642530095165519
0.198000000000000037,3.197997623722887539
0.199000000000000038,2.244797704950596273
0.200000000000000039,1.329556883484276142
0.201000000000000040,0.450604963044757056
0.202000000000000041,-0.393857294268237068
0.203000000000000042,-1.205705742795444291
0.204000000000000042,-1.986844434172320373
0.205000000000000043,-2.739162051374774087
0.206000000000000044,-3.464493756941783520
0.207000000000000045,-4.164588766202067305
0.208000000000000046,-4.841083742855515126
0.209000000000000047,-5.495481936724209149
0.210000000000000048,-6.129137840128143111
0.211000000000000049,-6.743247027667662152
0.212000000000000050,-7.338840761264462387
0.213000000000000050,-7.916784884918536491
0.214000000000000051,-8.477782498492535623
0.215000000000000052,-9.022379883678066648
0.216000000000000053,-9.550975155003357031
0.217000000000000054,-10.063829121377871445
0.218000000000000055,-10.561077866541928927
0.219000000000000056,-11.042746587470764652
0.220000000000000057,-11.508764266123622022
0.221000000000000058,-11.958978790049240359
0.222000000000000058,-12.393172179662439447
0.223000000000000059,-12.811075623133671542
0.224000000000000060,-13.212384062678401264
0.225000000000000061,-13.596770117696561186
0.226000000000000062,-13.963897169993922276
0.227000000000000063,-14.313431473689387730
0.228000000000000064,-14.645053186995891537
0.229000000000000065,-14.958466254612210022
0.230000000000000066,-15.253407097837662576
0.231000000000000066,-15.529652094678050744
0.232000000000000067,-15.787023854174886850
0.233000000000000068,-16.025396308052044958
0.234000000000000069,-16.244698658666578694
0.235000000000000070,-16.444918235346268176
0.236000000000000071,-16.626102321687231012
0.237000000000000072,-16.788359024484748261
0.238000000000000073,-16.931857260896812534
0.239000000000000073,-17.056825944416715402
0.240000000000000074,-17.163552452480931976
0.241000000000000075,-17.252380459274423430
0.242000000000000076,-17.323707216726859315
0.243000000000000077,-17.377980365013776520
0.244000000000000078,-17.415694351271554297
0.245000000000000079,-17.437386531871723605
0.246000000000000080,-17.443633029635282838
0.247000000000000081,-17.435044412941781644
0.248000000000000081,-17.412261258926246654
0.249000000000000082,-17.375949657972572737
0.250000000000000111,-17.326796711603343226
0.251000000000000112,-17.265506070717478337
0.252000000000000113,-17.192793556013935330
0.253000000000000114,-17.109382897421586023
0.254000000000000115,-17.016001624486591481
0.255000000000000115,-16.913377134988262895
0.256000000000000116,-16.802232964598552201
0.257000000000000117,-16.683285276192815871
0.258000000000000118,-16.557239583479251621
0.259000000000000119,-16.424787719954860421
0.260000000000000120,-16.286605060823511337
0.261000000000000121,-16.143348002428520971
0.262000000000000122,-15.995651700959214736
0.263000000000000123,-15.844128069679996429
0.264000000000000123,-15.689364031698136870
0.265000000000000124,-15.531920023318994240
0.266000000000000125,-15.372328741327331514
0.267000000000000126,-15.211094126063994025
0.268000000000000127,-15.048690570927970356
0.269000000000000128,-14.885562347907788094
0.270000000000000129,-14.722123237919714001
0.271000000000000130,-14.558756354087254437
0.272000000000000131,-14.395814145622590985
0.273000000000000131,-14.233618569649982177
0.274000000000000132,-14.072461418129989852
0.275000000000000133,-13.912604786987055050
0.276000000000000134,-13.754281674597311991
0.277000000000000135,-13.597696696947043193
0.278000000000000136,-13.443026907010411364
0.279000000000000137,-13.290422706208179449
0.280000000000000138,-13.140008836185490537
0.281000000000000139,-12.991885439575593608
0.282000000000000139,-12.846129178889759359
0.283000000000000140,-12.702794403181155047
0.284000000000000141,-12.561914352665846550
0.285000000000000142,-12.423502392038718867
0.286000000000000143,-12.287553263790595537
0.287000000000000144,-12.154044353408334445
0.288000000000000145,-12.022936958918034378
0.289000000000000146,-11.894177557806850487
0.290000000000000147,-11.767699064928333286
0.291000000000000147,-11.643422075555259099
0.292000000000000148,-11.521256088290304120
0.293000000000000149,-11.401100703075442766
0.294000000000000150,-11.282846790053472574
0.295000000000000151,-11.166377625528829398
0.296000000000000152,-11.051569991746262644
0.297000000000000153,-10.938295237656820547
0.298000000000000154,-10.826420298266979714
0.299000000000000155,-10.715808670570922345
0.300000000000000155,-10.606321344445436949
0.301000000000000156,-10.497817687243012230
0.302000000000000157,-10.390156281150566997
0.303000000000000158,-10.283195712689826351
0.304000000000000159,-10.176795314020536054
0.305000000000000160,-10.070815855969922126
0.306000000000000161,-9.965120192952433342
0.307000000000000162,-9.859573860162402781
0.308000000000000163,-9.754045623620388739
0.309000000000000163,-9.648407983832280266
0.310000000000000164,-9.542537633979415901
0.311000000000000165,-9.436315873698735146
0.312000000000000166,-9.329628979636208186
0.313000000000000167,-9.222368534063733136
0.314000000000000168,-9.114431712942115738
0.315000000000000169,-9.005721534890081870
0.316000000000000170,-8.896147072583477922
0.317000000000000171,-8.785623628160168508
0.318000000000000171,-8.674072874245657871
0.319000000000000172,-8.561422962243501189
0.320000000000000173,-8.447608599553133146
0.321000000000000174,-8.332571097387278414
0.322000000000000175,-8.216258390862295258
0.323000000000000176,-8.098625033028270082
0.324000000000000177,-7.979632164492002744
0.325000000000000178,-7.859247460266393759
0.326000000000000179,-7.737445055454450937
0.327000000000000179,-7.614205451345594788
0.328000000000000180,-7.489515403467231991
0.329000000000000181,-7.363367793096434077
0.330000000000000182,-7.235761483693823770
0.331000000000000183,-7.106701163678041944
0.332000000000000184,-6.976197176911270503
0.333000000000000185,-6.844265342217774162
0.334000000000000186,-6.710926763206593648
0.335000000000000187,-6.576207629617710104
0.336000000000000187,-6.440139011358510857
0.337000000000000188,-6.302756646343942393
0.338000000000000189,-6.164100723200465204
0.339000000000000190,-6.024215659840231218
0.340000000000000191,-5.883149878858530357
0.341000000000000192,-5.740955580655136004
0.342000000000000193,-5.597688515127011044
0.343000000000000194,-5.453407752729297897
0.344000000000000195,-5.308175455650063768
0.345000000000000195,-5.162056649795319530
0.346000000000000196,-5.015118998232072300
0.347000000000000197,-4.867432576690136514
0.348000000000000198,-4.719069651677761712
0.349000000000000199,-4.570104461721463451
0.350000000000000200,-4.420613002197896435
0.351000000000000201,-4.270672814183843258
0.352000000000000202,-4.120362777710822044
0.353000000000000203,-3.969762909772469150
0.354000000000000203,-3.818954167396043431
0.355000000000000204,-3.668018256054517590
0.356000000000000205,-3.517037443662216045
0.357000000000000206,-3.366094380364926586
0.358000000000000207,-3.215271924305302953
0.359000000000000208,-3.064652973515624268
0.360000000000000209,-2.914320304062731459
0.361000000000000210,-2.764356414544395513
0.362000000000000210,-2.614843377012145087
0.363000000000000211,-2.465862694372954245
0.364000000000000212,-2.317495164300910293
0.365000000000000213,-2.169820749669979953
0.366000000000000214,-2.022918455500647639
0.367000000000000215,-1.876866212395771116
0.368000000000000216,-1.731740766425150069
0.369000000000000217,-1.587617575403486914
0.370000000000000218,-1.444570711492839221
0.371000000000000218,-1.302672770048208806
0.372000000000000219,-1.161994784613530562
0.373000000000000220,-1.022606147964937540
0.374000000000000221,-0.884574539088980094
0.375000000000000222,-0.747965855974836780
0.376000000000000223,-0.612844154092218152
0.377000000000000224,-0.479271590419964089
0.378000000000000225,-0.347308372884512717
0.379000000000000226,-0.217012715062299216
0.380000000000000226,-0.088440795995902599
0.381000000000000227,0.038353275030024191
0.382000000000000228,0.163317488909877018
0.383000000000000229,0.286401962494516549
0.384000000000000230,0.407558959886245742
0.385000000000000231,0.526742909413518423
0.386000000000000232,0.643910416448688405
0.387000000000000233,0.759020272232267756
0.388000000000000234,0.872033458867041977
0.389000000000000234,0.982913150644845635
0.390000000000000235,1.091624711868113273
0.391000000000000236,1.198135691326692509
0.392000000000000237,1.302415813589365090
0.393000000000000238,1.404436967267189473
0.394000000000000239,1.504173190404036520
0.395000000000000240,1.601600653147189801
0.396000000000000241,1.696697637848318063
0.397000000000000242,1.789444516742487279
0.398000000000000242,1.879823727349804630
0.399000000000000243,1.967819745741304249
0.400000000000000244,2.053419057807632786
0.401000000000000245,2.136610128665266561
0.402000000000000246,2.217383370332160375
0.403000000000000247,2.295731107800893511
0.404000000000000248,2.371647543633728095
0.405000000000000249,2.445128721200591215
0.406000000000000250,2.516172486677121789
0.407000000000000250,2.584778449916261600
0.408000000000000251,2.650947944303209791
0.409000000000000252,2.714683985699597901
0.410000000000000253,2.775991230579305302
0.411000000000000254,2.834875933454256813
0.412000000000000255,2.891345903685100804
0.413000000000000256,2.945410461767763000
0.414000000000000257,2.997080395183369994
0.415000000000000258,3.046367913895218216
0.416000000000000258,3.093286605573075221
0.417000000000000259,3.137851390621393843
0.418000000000000260,3.180078477084599786
0.419000000000000261,3.219985315499272360
0.420000000000000262,3.257590553759452945
0.421000000000000263,3.292913992058232431
0.422000000000000264,3.325976537965414259
0.423000000000000265,3.356800161697963691
0.424000000000000266,3.385407851636712984
0.425000000000000266,3.411823570139996153
0.426000000000000267,3.436072209701772184
0.427000000000000268,3.458179549498995975
0.428000000000000269,3.478172212370231442
0.429000000000000270,3.496077622264782914
0.430000000000000271,3.511923962198947979
0.431000000000000272,3.525740132753582223
0.432000000000000273,3.537555711144541704
0.433000000000000274,3.547400910895330384
0.434000000000000274,3.555306542138862991
0.435000000000000275,3.561303972573159449
0.436000000000000276,3.565425089093499089
0.437000000000000277,3.567702260121625280
0.438000000000000278,3.568168298650556292
0.439000000000000279,3.566856426021624227
0.440000000000000280,3.563800236448554593
0.441000000000000281,3.559033662301724910
0.442000000000000282,3.552590940163834254
0.443000000000000282,3.544506577666906910
0.444000000000000283,3.534815321118708109
0.445000000000000284,3.523552123925408175
0.446000000000000285,3.510752115815843233
0.447000000000000286,3.496450572871302231
0.448000000000000287,3.480682888363660688
0.449000000000000288,3.463484544403351073
0.450000000000000289,3.444891084397500691
0.451000000000000290,3.424938086317615760
0.452000000000000290,3.403661136775000706
0.453000000000000291,3.381095805901214391
0.454000000000000292,3.357277623029931934
0.455000000000000293,3.332242053175720198
0.456000000000000294,3.306024474304382288
0.457000000000000295,3.278660155388879449
0.458000000000000296,3.250184235243891440
0.459000000000000297,3.220631702131760754
0.460000000000000298,3.190037374131498904
0.461000000000000298,3.158435880262471684
0.462000000000000299,3.125861642353295888
0.463000000000000300,3.092348857646461280
0.464000000000000301,3.057931482128412259
0.465000000000000302,3.022643214574608272
0.466000000000000303,2.986517481298483823
0.467000000000000304,2.949587421593188541
0.468000000000000305,2.911885873854303863
0.469000000000000306,2.873445362371758183
0.470000000000000306,2.834298084778777316
0.471000000000000307,2.794475900145417135
0.472000000000000308,2.754010317704179478
0.473000000000000309,2.712932486194932657
0.474000000000000310,2.671273183816294416
0.475000000000000311,2.629062808770321169
0.476000000000000312,2.586331370387652928
0.477000000000000313,2.543108480819652684
0.478000000000000314,2.499423347284507990
0.479000000000000314,2.455304764853903698
0.480000000000000315,2.410781109767047958
0.481000000000000316,2.365880333258702173
0.482000000000000317,2.320629955888001916
0.483000000000000318,2.275057062354777226
0.484000000000000319,2.229188296790228119
0.485000000000000320,2.183049858508795182
0.486000000000000321,2.136667498208193017
0.487000000000000322,2.090066514604639547
0.488000000000000322,2.043271751490367549
0.489000000000000323,1.996307595200784490
0.490000000000000324,1.949197972478493357
0.491000000000000325,1.901966348721769950
0.492000000000000326,1.854635726605077028
0.493000000000000327,1.807228645059441474
0.494000000000000328,1.759767178600545989
0.495000000000000329,1.712272936992706107
0.496000000000000330,1.664767065236921528
0.497000000000000330,1.617270243871471891
0.498000000000000331,1.569802689573593035
0.499000000000000332,1.522384156051156179
0.500000000000000333,1.475033935213133862
0.501000000000000334,1.427770858608135685
0.502000000000000335,1.380613299120326820
0.503000000000000336,1.333579172912288335
0.504000000000000337,1.286685941604512218
0.505000000000000338,1.239950614681538443
0.506000000000000338,1.193389752114831337
0.507000000000000339,1.147019467192742503
0.508000000000000340,1.100855429548105224
0.509000000000000341,1.054912868374275892
0.510000000000000342,1.009206575820458918
0.511000000000000343,0.963750910557585660
0.512000000000000344,0.918559801506038553
0.513000000000000345,0.873646751716859904
0.514000000000000346,0.829024842398126127
0.515000000000000346,0.784706737078560090
0.516000000000000347,0.740704685900496207
0.517000000000000348,0.697030530034598916
0.518000000000000349,0.653695706208892613
0.519000000000000350,0.610711251344946415
0.520000000000000351,0.568087807294053615
0.521000000000000352,0.525835625666725592
0.522000000000000353,0.483964572748765143
0.523000000000000353,0.442484134497443282
0.524000000000000354,0.401403421611647215
0.525000000000000355,0.360731174669743304
0.526000000000000356,0.320475769329427729
0.527000000000000357,0.280645221583759041
0.528000000000000358,0.241247193067789911
0.529000000000000359,0.202288996410637856
0.530000000000000360,0.163777600627552339
0.531000000000000361,0.125719636547167057
0.532000000000000361,0.088121402268961896
0.533000000000000362,0.050988868646341390
0.534000000000000363,0.014327684790734574
0.535000000000000364,-0.021856816407600250
0.536000000000000365,-0.057559612746286834
0.537000000000000366,-0.092775987169109106
0.538000000000000367,-0.127501522219771679
0.539000000000000368,-0.161732094494871692
0.540000000000000369,-0.195463869099740617
0.541000000000000369,-0.228693294110563633
0.542000000000000370,-0.261417095046175829
0.543000000000000371,-0.293632269352686381
0.544000000000000372,-0.325336080904026326
0.545000000000000373,-0.356526054521322744
0.546000000000000374,-0.387199970513970315
0.547000000000000375,-0.417355859245012784
0.548000000000000376,-0.446991995723476809
0.549000000000000377,-0.476106894226037913
0.550000000000000377,-0.504699302950428974
0.551000000000000378,-0.532768198702751272
0.552000000000000379,-0.560312781620842637
0.553000000000000380,-0.587332469935707313
0.554000000000000381,-0.613826894772904752
0.555000000000000382,-0.639795894995720316
0.556000000000000383,-0.665239512091816754
0.557000000000000384,-0.690157985104981608
0.558000000000000385,-0.714551745613506095
0.559000000000000385,-0.738421412756627982
0.560000000000000386,-0.761767788310353744
0.561000000000000387,-0.784591851813978391
0.562000000000000388,-0.806894755748436387
0.563000000000000389,-0.828677820767616646
0.564000000000000390,-0.849942530983629707
0.565000000000000391,-0.870690529307027283
0.566000000000000392,-0.890923612842811741
0.567000000000000393,-0.910643728343052627
0.568000000000000393,-0.929852967716852552
0.569000000000000394,-0.948553563598360738
0.570000000000000395,-0.966747884973397698
0.571000000000000396,-0.984438432865274216
0.572000000000000397,-1.001627836080297485
0.573000000000000398,-1.018318847013392148
0.574000000000000399,-1.034514337514188309
0.575000000000000400,-1.050217294813964086
0.576000000000000401,-1.065430817513652428
0.577000000000000401,-1.080158111633177764
0.578000000000000402,-1.094402486722296564
0.579000000000000403,-1.108167352033058384
0.580000000000000404,-1.121456212753986437
0.581000000000000405,-1.134272666306031407
0.582000000000000406,-1.146620398700292087
0.583000000000000407,-1.158503180957467515
0.584000000000000408,-1.169924865589004881
0.585000000000000409,-1.180889383139770654
0.586000000000000409,-1.191400738792181446
0.587000000000000410,-1.201463009031572104
0.588000000000000411,-1.211080338372604093
0.589000000000000412,-1.220256936146502103
0.590000000000000413,-1.228997073348829128
0.591000000000000414,-1.237305079547528663
0.592000000000000415,-1.245185339850914730
0.593000000000000416,-1.252642291935257113
0.594000000000000417,-1.259680423131629201
0.595000000000000417,-1.266304267571581210
0.596000000000000418,-1.272518403391291519
0.597000000000000419,-1.278327449993724496
0.598000000000000420,-1.283736065368362933
0.599000000000000421,-1.288748943468057684
0.600000000000000422,-1.293370811642506668
0.601000000000000423,-1.297606428127858980
0.602000000000000424,-1.301460579591943389
0.603000000000000425,-1.304938078734619422
0.604000000000000425,-1.308043761942631278
0.605000000000000426,-1.310782486998518737
0.606000000000000427,-1.313159130842944666
0.607000000000000428,-1.315178587389896236
0.608000000000000429,-1.316845765394182521
0.609000000000000430,-1.318165586370609654
0.610000000000000431,-1.319142982564275535
0.611000000000000432,-1.319782894971323728
0.612000000000000433,-1.320090271409586569
0.613000000000000433,-1.320070064638481977
0.614000000000000434,-1.319727230527526274
