# AuFCC100-Ablate50_CHL-JS
# h[nm],U(h)[kJ/mol]
0.200000000000000011,166.001227183325283931
0.201000000000000012,156.878090092804086453
0.202000000000000013,151.883686780891792978
0.203000000000000014,148.711775140451152311
0.204000000000000015,146.080847009587415641
0.205000000000000016,143.353945133610579887
0.206000000000000016,140.281353590387851682
0.207000000000000017,136.830472653667584382
0.208000000000000018,133.076728948141948194
0.209000000000000019,129.136520917490742022
0.210000000000000020,125.128528024030401866
0.211000000000000021,121.153658903465455410
0.212000000000000022,117.286816466220301436
0.213000000000000023,113.575775388157666157
0.214000000000000024,110.043997248554703106
0.215000000000000024,106.695301271891139550
0.216000000000000025,103.519078380583579246
0.217000000000000026,100.495269289431277571
0.218000000000000027,97.598688466243871176
0.219000000000000028,94.802513373002724961
0.220000000000000029,92.080908449003246119
0.221000000000000030,89.410842309776171533
0.222000000000000031,86.773203984797376620
0.223000000000000032,84.153343714725124869
0.224000000000000032,81.541165884721564794
0.225000000000000033,78.930893125892310991
0.226000000000000034,76.320606329854655314
0.227000000000000035,73.711648558077371263
0.228000000000000036,71.107963706914262048
0.229000000000000037,68.515424614761187172
0.230000000000000038,65.941190803494038164
0.231000000000000039,63.393123577283901682
0.232000000000000040,60.879275845445135928
0.233000000000000040,58.407465716380457366
0.234000000000000041,55.984936454836862652
0.235000000000000042,53.618100582551868172
0.236000000000000043,51.312362492389489432
0.237000000000000044,49.072011699682313690
0.238000000000000045,46.900177547808851841
0.239000000000000046,44.798835616010713068
0.240000000000000047,42.768856069245607898
0.241000000000000048,40.810084591659865794
0.242000000000000048,38.921447231360296826
0.243000000000000049,37.101071352182792396
0.244000000000000050,35.346415856608459194
0.245000000000000051,33.654404849623453799
0.246000000000000052,32.021559908569024344
0.247000000000000053,30.444127074363802166
0.248000000000000054,28.918195561182670872
0.249000000000000055,27.439805979714471107
0.250000000000000056,26.005046575338855774
0.251000000000000056,24.610136594122124620
0.252000000000000057,23.251496407574737901
0.253000000000000058,21.925804455684424710
0.254000000000000059,20.630041412861153560
0.255000000000000060,19.361522250416037139
0.256000000000000061,18.117917070046345884
0.257000000000000062,16.897261723787320165
0.258000000000000063,15.697959325218642235
0.259000000000000064,14.518773802273878815
0.260000000000000064,13.358816651208893944
0.261000000000000065,12.217528030971724462
0.262000000000000066,11.094653293552305229
0.263000000000000067,9.990215984385311998
0.264000000000000068,8.904488272346565481
0.265000000000000069,7.837959685491533435
0.266000000000000070,6.791304939976276600
0.267000000000000071,5.765351558532522347
0.268000000000000071,4.761047883878749332
0.269000000000000072,3.779432003485379887
0.270000000000000073,2.821602016709184646
0.271000000000000074,1.888687994625922517
0.272000000000000075,0.981825907754242388
0.273000000000000076,0.102133727841953556
0.274000000000000077,-0.749310152700451537
0.275000000000000078,-1.571486096145103595
0.276000000000000079,-2.363449951459350551
0.277000000000000079,-3.124347347937008301
0.278000000000000080,-3.853425592306311209
0.279000000000000081,-4.550043242251238240
0.280000000000000082,-5.213677454901560537
0.281000000000000083,-5.843929229421334526
0.282000000000000084,-6.440526678784093129
0.283000000000000085,-7.003326477608075251
0.284000000000000086,-7.532313640975175417
0.285000000000000087,-8.027599793902613357
0.286000000000000087,-8.489420092992785882
0.287000000000000088,-8.918128961148443778
0.288000000000000089,-9.314194793478609569
0.289000000000000090,-9.678193787983241592
0.290000000000000091,-10.010803048606566890
0.291000000000000092,-10.312793101086612069
0.292000000000000093,-10.585019953958971328
0.293000000000000094,-10.828416828337484645
0.294000000000000095,-11.043985670898569751
0.295000000000000095,-11.232788555026960609
0.296000000000000096,-11.395939065495602094
0.297000000000000097,-11.534593752492094509
0.298000000000000098,-11.649943731382549572
0.299000000000000099,-11.743206495421787849
0.300000000000000100,-11.815617999753545320
0.301000000000000101,-11.868425066562942050
0.302000000000000102,-11.902878153194608402
0.303000000000000103,-11.920224517471876169
0.304000000000000103,-11.921701807370457260
0.305000000000000104,-11.908532095632615722
0.306000000000000105,-11.881916373861397318
0.307000000000000106,-11.843029515109190442
0.308000000000000107,-11.793015708967910626
0.309000000000000108,-11.732984368665201558
0.310000000000000109,-11.664006505659891388
0.311000000000000110,-11.587111563690388749
0.312000000000000111,-11.503284701141392787
0.313000000000000111,-11.413464507933245073
0.314000000000000112,-11.318541140880309825
0.315000000000000113,-11.219354859582811201
0.316000000000000114,-11.116694943386569605
0.317000000000000115,-11.011298968737161630
0.318000000000000116,-10.903852425345919031
0.319000000000000117,-10.794988648947054344
0.320000000000000118,-10.685289048032771575
0.321000000000000119,-10.575283601782818010
0.322000000000000119,-10.465451606432214504
0.323000000000000120,-10.356222647523136260
0.324000000000000121,-10.247977775843898129
0.325000000000000122,-10.141050865348370635
0.326000000000000123,-10.035730131954398558
0.327000000000000124,-9.932259792822659250
0.328000000000000125,-9.830841846501723325
0.329000000000000126,-9.731637955174411658
0.330000000000000127,-9.634771411142638797
0.331000000000000127,-9.540329170630204914
0.332000000000000128,-9.448363938951786167
0.333000000000000129,-9.358896292084654789
0.334000000000000130,-9.271916820675055959
0.335000000000000131,-9.187388283508203912
0.336000000000000132,-9.105247758459270813
0.337000000000000133,-9.025408779919406044
0.338000000000000134,-8.947763452647166105
0.339000000000000135,-8.872184532929388467
0.340000000000000135,-8.798527468840706689
0.341000000000000136,-8.726632392265290861
0.342000000000000137,-8.656326056184969531
0.343000000000000138,-8.587423711541990912
0.344000000000000139,-8.519730918751372784
0.345000000000000140,-8.453045289665485740
0.346000000000000141,-8.387158156480891691
0.347000000000000142,-8.321856164725048188
0.348000000000000143,-8.256922788067843300
0.349000000000000143,-8.192139763269180364
0.350000000000000144,-8.127288444101429477
0.351000000000000145,-8.062151073573199156
0.352000000000000146,-7.996511974230598341
0.353000000000000147,-7.930158656724517918
0.354000000000000148,-7.862882847208767956
0.355000000000000149,-7.794481434475012627
0.356000000000000150,-7.724757338038545917
0.357000000000000151,-7.653520298664398425
0.358000000000000151,-7.580587593068351282
0.359000000000000152,-7.505784674743283702
0.360000000000000153,-7.428945743049557571
0.361000000000000154,-7.349914242870271508
0.362000000000000155,-7.268543297269746795
0.363000000000000156,-7.184696075708371765
0.364000000000000157,-7.098246100459538965
0.365000000000000158,-7.009077493948185911
0.366000000000000159,-6.917085169783968368
0.367000000000000159,-6.822174970299860419
0.368000000000000160,-6.724263753428340706
0.369000000000000161,-6.623279431753800850
0.370000000000000162,-6.519160966573705807
0.371000000000000163,-6.411858319782666626
0.372000000000000164,-6.301332366363703308
0.373000000000000165,-6.187554770232591927
0.374000000000000166,-6.070507826132716112
0.375000000000000167,-5.950184270222362848
0.376000000000000167,-5.826587061934310086
0.377000000000000168,-5.699729139618643359
0.378000000000000169,-5.569633152406639809
0.379000000000000170,-5.436331170655799738
0.380000000000000171,-5.299864377254325021
0.381000000000000172,-5.160282741979502319
0.382000000000000173,-5.017644681017291219
0.383000000000000174,-4.872016703662559678
0.384000000000000175,-4.723473048129287477
0.385000000000000175,-4.572095308310146322
0.386000000000000176,-4.417972053234069385
0.387000000000000177,-4.261198440879908844
0.388000000000000178,-4.101875827914613026
0.389000000000000179,-3.940111376834720680
0.390000000000000180,-3.776017661902538070
0.391000000000000181,-3.609712275181067298
0.392000000000000182,-3.441317433887542077
0.393000000000000183,-3.270959590201359735
0.394000000000000183,-3.098769044581815901
0.395000000000000184,-2.924879563571652241
0.396000000000000185,-2.749428002985598418
0.397000000000000186,-2.572553937309279171
0.398000000000000187,-2.394399296061599625
0.399000000000000188,-2.215108007804584389
0.400000000000000189,-2.034825652418386976
0.401000000000000190,-1.853699122194550686
0.402000000000000191,-1.671876292240301876
0.403000000000000191,-1.489505700627057339
0.404000000000000192,-1.306736238661345695
0.405000000000000193,-1.123716851602631017
0.406000000000000194,-0.940596250102264775
0.407000000000000195,-0.757522632590002742
0.408000000000000196,-0.574643418788979177
0.409000000000000197,-0.392104994497593118
0.410000000000000198,-0.210052467736630083
0.411000000000000199,-0.028629436321869407
0.412000000000000199,0.152022233112611760
0.413000000000000200,0.331762614648237364
0.414000000000000201,0.510453921211517780
0.415000000000000202,0.687960691366753196
0.416000000000000203,0.864149964865063125
0.417000000000000204,1.038891447068245544
0.418000000000000205,1.212057662387400203
0.419000000000000206,1.383524096897371214
0.420000000000000207,1.553169330306839013
0.421000000000000207,1.720875157480026285
0.422000000000000208,1.886526699722460787
0.423000000000000209,2.050012506055717942
0.424000000000000210,2.211224644719078647
0.425000000000000211,2.370058785146388125
0.426000000000000212,2.526414270675677365
0.427000000000000213,2.680194182257467084
0.428000000000000214,2.831305393434010220
0.429000000000000214,2.979658616867937759
0.430000000000000215,3.125168442702899174
0.431000000000000216,3.267753369042305955
0.432000000000000217,3.407335824835320714
0.433000000000000218,3.543842185460269967
0.434000000000000219,3.677202781296894152
0.435000000000000220,3.807351899578650833
0.436000000000000221,3.934227779815741677
0.437000000000000222,4.057772603078007911
0.438000000000000222,4.177932475424870340
0.439000000000000223,4.294657405766842295
0.440000000000000224,4.407901278440208515
0.441000000000000225,4.517621820772676600
0.442000000000000226,4.623780565913573781
0.443000000000000227,4.726342811198334104
0.444000000000000228,4.825277572311402530
0.445000000000000229,4.920557533507231796
0.446000000000000230,5.012158994143105950
0.447000000000000230,5.100061811772239828
0.448000000000000231,5.184249342039394470
0.449000000000000232,5.264708375615303027
0.450000000000000233,5.341429072399956013
0.451000000000000234,5.414404893218199177
0.452000000000000235,5.483632529224862218
0.453000000000000236,5.549111829229847359
0.454000000000000237,5.610845725146817564
0.455000000000000238,5.668840155762815414
0.456000000000000238,5.723103989018834881
0.457000000000000239,5.773648942985208699
0.458000000000000240,5.820489505708287048
0.459000000000000241,5.863642854098817914
0.460000000000000242,5.903128772025111104
0.461000000000000243,5.938969567767948377
0.462000000000000244,5.971189990987216589
0.463000000000000245,5.999817149344118583
0.464000000000000246,6.024880424915964205
0.465000000000000246,6.046411390534580654
0.466000000000000247,6.064443726172912719
0.467000000000000248,6.079013135498422038
0.468000000000000249,6.090157262705739427
0.469000000000000250,6.097915609735177433
0.470000000000000251,6.102329453978049045
0.471000000000000252,6.103441766563980408
0.472000000000000253,6.101297131319871170
0.473000000000000254,6.095941664484966438
0.474000000000000254,6.087422935261139756
0.475000000000000255,6.075789887272372347
0.476000000000000256,6.061092761002671914
0.477000000000000257,6.043383017276616975
0.478000000000000258,6.022713261842238985
0.479000000000000259,5.999137171111509126
0.480000000000000260,5.972709419109065720
0.481000000000000261,5.943485605675958183
0.482000000000000262,5.911522185970797594
0.483000000000000262,5.876876401307093545
0.484000000000000263,5.839606211361462407
0.485000000000000264,5.799770227784127208
0.486000000000000265,5.757427649239176937
0.487000000000000266,5.712638197899197579
0.488000000000000267,5.665462057415370012
0.489000000000000268,5.615959812380948435
0.490000000000000269,5.564192389303576292
0.491000000000000270,5.510220999098424777
0.492000000000000270,5.454107081112050004
0.493000000000000271,5.395912248683807810
0.494000000000000272,5.335698236249750259
0.495000000000000273,5.273526847990892108
0.496000000000000274,5.209459908026380148
0.497000000000000275,5.143559212149352966
0.498000000000000276,5.075886481101445469
0.499000000000000277,5.006503315380416375
0.500000000000000222,4.935471151572889070
0.501000000000000334,4.862851220203343594
0.502000000000000224,4.788704505088256624
0.503000000000000336,4.713091704183161923
0.504000000000000226,4.636073191909133584
0.505000000000000338,4.557708982943390552
0.506000000000000227,4.478058697458314086
0.507000000000000339,4.397181527791154565
0.508000000000000229,4.315136206526654306
0.509000000000000341,4.231980975972730263
0.510000000000000231,4.147773559009746869
0.511000000000000343,4.062571131291825566
0.512000000000000233,3.976430294779161212
0.513000000000000345,3.889407052578359725
0.514000000000000234,3.801556785068478383
0.515000000000000346,3.712934227288763545
0.516000000000000236,3.623593447564657399
0.517000000000000348,3.533587827347077770
0.518000000000000238,3.442970042240958151
0.519000000000000350,3.351792044197124731
0.520000000000000240,3.260105044843064181
0.521000000000000352,3.167959499926172207
0.522000000000000242,3.075405094844542386
0.523000000000000353,2.982490731238580217
0.524000000000000243,2.889264514618337110
0.525000000000000355,2.795773742999739575
0.526000000000000245,2.702064896524370763
0.527000000000000357,2.608183628036088830
0.528000000000000247,2.514174754589168170
0.529000000000000359,2.420082249861480683
0.530000000000000249,2.325949237447344053
0.531000000000000361,2.231817985004021843
0.532000000000000250,2.137729899226779917
0.533000000000000362,2.043725521626594599
0.534000000000000252,1.949844525086229741
0.535000000000000364,1.856125711168715497
0.536000000000000254,1.762607008154793764
0.537000000000000366,1.669325469783824234
0.538000000000000256,1.576317274675001823
0.539000000000000368,1.483617726404316883
0.540000000000000258,1.391261254214499088
0.541000000000000369,1.299281414333995688
0.542000000000000259,1.207710891883067683
0.543000000000000371,1.116581503343653470
0.544000000000000261,1.025924199571551343
0.545000000000000373,0.935769069328755365
0.546000000000000263,0.846145343314971932
0.547000000000000375,0.757081398676714312
0.548000000000000265,0.668604763974243288
0.549000000000000377,0.580742124585182706
0.550000000000000266,0.493519328525920620
0.551000000000000378,0.406961392670592281
0.552000000000000268,0.321092509349300559
0.553000000000000380,0.235936053306457255
0.554000000000000270,0.151514589001523925
0.555000000000000382,0.067849878233921149
0.556000000000000272,-0.015037111924806102
0.557000000000000384,-0.097126200908869767
0.558000000000000274,-0.178397986162489586
0.559000000000000385,-0.258833834386782979
0.560000000000000275,-0.338415872544834961
0.561000000000000387,-0.417126978640546764
0.562000000000000277,-0.494950772285746798
0.563000000000000389,-0.571871605070600530
0.564000000000000279,-0.647874550750879408
0.565000000000000391,-0.722945395266306412
0.566000000000000281,-0.797070626602804033
0.567000000000000393,-0.870237424512078306
0.568000000000000282,-0.942433650100588993
0.569000000000000394,-1.013647835300594213
0.570000000000000284,-1.083869172234404488
0.571000000000000396,-1.153087502484072768
0.572000000000000286,-1.221293306276788559
0.573000000000000398,-1.288477691597274433
0.574000000000000288,-1.354632383237075466
0.575000000000000400,-1.419749711791168156
0.576000000000000290,-1.483822602611022834
0.577000000000000401,-1.546844564724001447
0.578000000000000291,-1.608809679727522424
0.579000000000000403,-1.669712590667073115
0.580000000000000293,-1.729548490906041236
0.581000000000000405,-1.788313112995793430
0.582000000000000295,-1.846002717553156369
0.583000000000000407,-1.902614082153357256
0.584000000000000297,-1.958144490244837055
0.585000000000000409,-2.012591720093444003
0.586000000000000298,-2.065954033761870701
0.587000000000000410,-2.118230166131229275
0.588000000000000300,-2.169419313970136098
0.589000000000000412,-2.219521125057602351
0.590000000000000302,-2.268535687364657161
0.591000000000000414,-2.316463518300385438
0.592000000000000304,-2.363305554026940758
0.593000000000000416,-2.409063138848531516
0.594000000000000306,-2.453738014678681800
0.595000000000000417,-2.497332310590212767
0.596000000000000307,-2.539848532451681962
0.597000000000000419,-2.581289552654431940
0.598000000000000309,-2.621658599933639699
0.599000000000000421,-2.660959249286755313
0.600000000000000311,-2.699195411992654670
0.601000000000000423,-2.736371325734480386
0.602000000000000313,-2.772491544828766585
0.603000000000000425,-2.807560930563929968
0.604000000000000314,-2.841584641650036325
0.605000000000000426,-2.874568124782632683
0.606000000000000316,-2.906517105322353967
0.607000000000000428,-2.937437578092522816
0.608000000000000318,-2.967335798296428795
0.609000000000000430,-2.996218272555959850
0.610000000000000320,-3.024091750073005347
0.611000000000000432,-3.050963213915175665
0.612000000000000322,-3.076839872426798905
0.613000000000000433,-3.101729150766512788
0.614000000000000323,-3.125638682572277727
0.615000000000000435,-3.148576301754712148
0.616000000000000325,-3.170550034419336249
0.617000000000000437,-3.191568090918566636
0.618000000000000327,-3.211638858033686539
0.619000000000000439,-3.230770891287350288
0.620000000000000329,-3.248972907386838305
0.621000000000000441,-3.266253776798237141
0.622000000000000330,-3.282622516451662698
0.623000000000000442,-3.298088282577537278
0.624000000000000332,-3.312660363673695318
0.625000000000000444,-3.326348173603394631
0.626000000000000334,-3.339161244823706021
0.627000000000000446,-3.351109221744144939
0.628000000000000336,-3.362201854215049135
0.629000000000000448,-3.372448991145271524
0.630000000000000338,-3.381860574248551465
0.631000000000000449,-3.390446631918147880
0.632000000000000339,-3.398217273228855362
0.633000000000000451,-3.405182682065814426
0.634000000000000341,-3.411353111379257008
0.635000000000000453,-3.416738877564497123
0.636000000000000343,-3.421350354966026686
0.637000000000000455,-3.425197970505105438
0.638000000000000345,-3.428292198429571336
0.639000000000000457,-3.430643555185085347
0.640000000000000346,-3.432262594406622291
0.641000000000000458,-3.433159902029169874
0.642000000000000348,-3.433346091516496390
0.643000000000000460,-3.432831799206823575
0.644000000000000350,-3.431627679774229112
0.645000000000000462,-3.429744401804517562
0.646000000000000352,-3.427192643484363366
0.647000000000000464,-3.423983088402435815
0.648000000000000353,-3.420126421461210153
0.649000000000000465,-3.415633324898112111
0.650000000000000355,-3.410514474414764408
0.651000000000000467,-3.404780535412816000
0.652000000000000357,-3.398442159335224311
0.653000000000000469,-3.391509980111278910
0.654000000000000359,-3.383994610704351480
0.655000000000000471,-3.375906639760629879
0.656000000000000361,-3.367256628357611525
0.657000000000000473,-3.358055106850862614
0.658000000000000362,-3.348312571817627425
0.659000000000000474,-3.338039483095821769
0.660000000000000364,-3.327246260916992604
0.661000000000000476,-3.315943283131768116
0.662000000000000366,-3.304140882526376721
0.663000000000000478,-3.291849344228713559
0.664000000000000368,-3.279078903202592876
0.665000000000000480,-3.265839741828658216
