# AuFCC100-Ablate50_CS-1113-AC
# h[nm],U(h)[kJ/mol]
0.149999999999999994,181.540865984296999613
0.150999999999999995,177.484155725223502031
0.151999999999999996,173.295284825026698172
0.152999999999999997,169.086869737058691499
0.153999999999999998,164.912195023745084654
0.154999999999999999,160.793373391338235479
0.156000000000000000,156.737320388580798181
0.157000000000000001,152.744400063922938671
0.158000000000000002,148.812798106513298535
0.159000000000000002,144.940505236024648639
0.160000000000000003,141.126039648196353937
0.161000000000000004,137.368561841334212659
0.162000000000000005,133.667742044528324641
0.163000000000000006,130.023564986194116955
0.164000000000000007,126.436155708899192973
0.165000000000000008,122.905655129398226677
0.166000000000000009,119.432146629398886262
0.167000000000000010,116.015623411404632748
0.168000000000000010,112.655983372894795025
0.169000000000000011,109.353039447394209560
0.170000000000000012,106.106536197410918021
0.171000000000000013,102.916166551095898285
0.172000000000000014,99.781585289069127498
0.173000000000000015,96.702417959861264762
0.174000000000000016,93.678265306984030758
0.175000000000000017,90.708704113204404962
0.176000000000000018,87.793285735821228855
0.177000000000000018,84.931533652571900461
0.178000000000000019,82.122941178313553223
0.179000000000000020,79.366970242222308229
0.180000000000000021,76.663051804370113018
0.181000000000000022,74.010588187677328165
0.182000000000000023,71.408957336639915070
0.183000000000000024,68.857518803830430443
0.184000000000000025,66.355621114435479058
0.185000000000000026,63.902610066279784462
0.186000000000000026,61.497837481645454716
0.187000000000000027,59.140669929024411999
0.188000000000000028,56.830496968095893351
0.189000000000000029,54.566738530182888667
0.190000000000000030,52.348851120477419840
0.191000000000000031,50.176332609882130953
0.192000000000000032,48.048725467201379047
0.193000000000000033,45.965618361803592506
0.194000000000000034,43.926646139260306256
0.195000000000000034,41.931488235485701921
0.196000000000000035,39.979865647210111490
0.197000000000000036,38.071536617685531212
0.198000000000000037,36.206291226454595744
0.199000000000000038,34.383945091414531703
0.200000000000000039,32.604332401213142134
0.201000000000000040,30.867298497378708788
0.202000000000000041,29.172692219783975531
0.203000000000000042,27.520358217386451827
0.204000000000000042,25.910129409951942137
0.205000000000000043,24.341819766873907582
0.206000000000000044,22.815217547346549054
0.207000000000000045,21.330079123029936028
0.208000000000000046,19.886123480805391495
0.209000000000000047,18.483027479979735830
0.210000000000000048,17.120421915939406432
0.211000000000000049,15.797888421241472301
0.212000000000000050,14.514957215795439183
0.213000000000000050,13.271105700384870474
0.214000000000000051,12.065757872441121634
0.215000000000000052,10.898284529788229591
0.216000000000000053,9.768004217031704073
0.217000000000000054,8.674184860313340906
0.218000000000000055,7.616046029210072454
0.219000000000000056,6.592761759494289997
0.220000000000000057,5.603463867141956989
0.221000000000000058,4.647245682223433150
0.222000000000000058,3.723166130951082842
0.223000000000000059,2.830254095029488326
0.224000000000000060,1.967512979372167958
0.225000000000000061,1.133925422049827159
0.226000000000000062,0.328458083858093997
0.227000000000000063,-0.449933541016045713
0.228000000000000064,-1.202300347226361144
0.229000000000000065,-1.929694922571517424
0.230000000000000066,-2.633166978528607594
0.231000000000000066,-3.313758946073015466
0.232000000000000067,-3.972501770738968929
0.233000000000000068,-4.610410935850766556
0.234000000000000069,-5.228482737969461169
0.235000000000000070,-5.827690833908039103
0.236000000000000071,-6.408983074210604869
0.237000000000000072,-6.973278633803728255
0.238000000000000073,-7.521465446631397711
0.239000000000000073,-8.054397947497278665
0.240000000000000074,-8.572895121071951507
0.241000000000000075,-9.077738855076749047
0.242000000000000076,-9.569672592033418468
0.243000000000000077,-10.049400271663619932
0.244000000000000078,-10.517585554023909822
0.245000000000000079,-10.974851311760341233
0.246000000000000080,-11.421779378446430542
0.247000000000000081,-11.858910538815459645
0.248000000000000081,-12.286744745792365308
0.249000000000000082,-12.705741548556733989
0.250000000000000111,-13.116320715406848407
0.251000000000000112,-13.518863034925820088
0.252000000000000113,-13.913711278859295817
0.253000000000000114,-14.301171310174975559
0.254000000000000115,-14.681513319979043075
0.255000000000000115,-15.054973177286200325
0.256000000000000116,-15.421753876070733114
0.257000000000000117,-15.782027064544442041
0.258000000000000118,-16.135934642201213762
0.259000000000000119,-16.483590410824533024
0.260000000000000120,-16.825081766359573976
0.261000000000000121,-17.160471419293688911
0.262000000000000122,-17.489799131959983924
0.263000000000000123,-17.813083461965263155
0.264000000000000123,-18.130323501741209213
0.265000000000000124,-18.441500605014510938
0.266000000000000125,-18.746580091785240541
0.267000000000000126,-19.045512924182681047
0.268000000000000127,-19.338237346333979616
0.269000000000000128,-19.624680482123544323
0.270000000000000129,-19.904759885441034584
0.271000000000000130,-20.178385038207753865
0.272000000000000131,-20.445458792132495063
0.273000000000000131,-20.705878750777955588
0.274000000000000132,-20.959538589114824703
0.275000000000000133,-21.206329308303004666
0.276000000000000134,-21.446140423966106425
0.277000000000000135,-21.678861086716558759
0.278000000000000136,-21.904381134145857857
0.279000000000000137,-22.122592073915495092
0.280000000000000138,-22.333387997970977068
0.281000000000000139,-22.536666428255678341
0.282000000000000139,-22.732329094621441357
0.283000000000000140,-22.920282645922675613
0.284000000000000141,-23.100439295539271001
0.285000000000000142,-23.272717402803770881
0.286000000000000143,-23.437041992010254177
0.287000000000000144,-23.593345210857656014
0.288000000000000145,-23.741566730332102964
0.289000000000000146,-23.881654088158590810
0.290000000000000147,-24.013562978059429298
0.291000000000000147,-24.137257487139844869
0.292000000000000148,-24.252710283788630363
0.293000000000000149,-24.359902758528015454
0.294000000000000150,-24.458825120279787058
0.295000000000000151,-24.549476450530860916
0.296000000000000152,-24.631864717884575100
0.297000000000000153,-24.706006755474771097
0.298000000000000154,-24.771928203698969639
0.299000000000000155,-24.829663420696235221
0.300000000000000155,-24.879255362956023134
0.301000000000000156,-24.920755438396074766
0.302000000000000157,-24.954223334193581962
0.303000000000000158,-24.979726821592635133
0.304000000000000159,-24.997341539845500336
0.305000000000000160,-25.007150761374806081
0.306000000000000161,-25.009245140170129673
0.307000000000000162,-25.003722445355499815
0.308000000000000163,-24.990687281785248786
0.309000000000000163,-24.970250799444819734
0.310000000000000164,-24.942530393351361795
0.311000000000000165,-24.907649395565865547
0.312000000000000166,-24.865736760846125719
0.313000000000000167,-24.816926747386972352
0.314000000000000168,-24.761358594011859680
0.315000000000000169,-24.699176195098932141
0.316000000000000170,-24.630527774444505695
0.317000000000000171,-24.555565559188089253
0.318000000000000171,-24.474445454846186720
0.319000000000000172,-24.387326722427040693
0.320000000000000173,-24.294371658525157898
0.321000000000000174,-24.195745279223647373
0.322000000000000175,-24.091615008563564970
0.323000000000000176,-23.982150372273419947
0.324000000000000177,-23.867522697387876462
0.325000000000000178,-23.747904818323387843
0.326000000000000179,-23.623470789920091306
0.327000000000000179,-23.494395607902589518
0.328000000000000180,-23.360854937158812561
0.329000000000000181,-23.223024848185698232
0.330000000000000182,-23.081081562000793639
0.331000000000000183,-22.935201203774425949
0.332000000000000184,-22.785559565392691894
0.333000000000000185,-22.632331877120854813
0.334000000000000186,-22.475692588498979774
0.335000000000000187,-22.315815158564312526
0.336000000000000187,-22.152871855462638706
0.337000000000000188,-21.987033565477936747
0.338000000000000189,-21.818469611481525305
0.339000000000000190,-21.647347580774116693
0.340000000000000191,-21.473833162268892494
0.341000000000000192,-21.298089992941392268
0.342000000000000193,-21.120279513449695230
0.343000000000000194,-20.940560832809900660
0.344000000000000195,-20.759090601993278824
0.345000000000000195,-20.576022896296528586
0.346000000000000196,-20.391509106321041855
0.347000000000000197,-20.205697837384906990
0.348000000000000198,-20.018734817179673513
0.349000000000000199,-19.830762811473540808
0.350000000000000200,-19.641921547654362712
0.351000000000000201,-19.452347645897525297
0.352000000000000202,-19.262174557737914427
0.353000000000000203,-19.071532511819523137
0.354000000000000203,-18.880548466591854151
0.355000000000000204,-18.689346069718915544
0.356000000000000205,-18.498045623964173956
0.357000000000000206,-18.306764059312985893
0.358000000000000207,-18.115614911093111061
0.359000000000000208,-17.924708303853726932
0.360000000000000209,-17.734150940764003224
0.361000000000000210,-17.544046098292852776
0.362000000000000210,-17.354493625933635315
0.363000000000000211,-17.165589950739388314
0.364000000000000212,-16.977428086436901822
0.365000000000000213,-16.790097646890824734
0.366000000000000214,-16.603684863692649287
0.367000000000000215,-16.418272607652838246
0.368000000000000216,-16.233940413978878325
0.369000000000000217,-16.050764510925795037
0.370000000000000218,-15.868817851710923961
0.371000000000000218,-15.688170149488907867
0.372000000000000219,-15.508887915188296347
0.373000000000000220,-15.331034498016085976
0.374000000000000221,-15.154670128441953381
0.375000000000000222,-14.979851963478918009
0.376000000000000223,-14.806634134083314080
0.377000000000000224,-14.635067794501779304
0.378000000000000225,-14.465201173399055534
0.379000000000000226,-14.297079626605603053
0.380000000000000226,-14.130745691330156788
0.381000000000000227,-13.966239141687236014
0.382000000000000228,-13.803597045395985532
0.383000000000000229,-13.642853821511767620
0.384000000000000230,-13.484041299057460961
0.385000000000000231,-13.327188776427354000
0.386000000000000232,-13.172323081441259518
0.387000000000000233,-13.019468631932335612
0.388000000000000234,-12.868647496756924653
0.389000000000000234,-12.719879457120445210
0.390000000000000235,-12.573182068117620958
0.391000000000000236,-12.428570720391201476
0.392000000000000237,-12.286058701817372807
0.393000000000000238,-12.145657259131477090
0.394000000000000239,-12.007375659411749780
0.395000000000000240,-11.871221251343740732
0.396000000000000241,-11.737199526192210186
0.397000000000000242,-11.605314178411621384
0.398000000000000242,-11.475567165830707239
0.399000000000000243,-11.347958769350389829
0.400000000000000244,-11.222487652098177335
0.401000000000000245,-11.099150917986504439
0.402000000000000246,-10.977944169625398985
0.403000000000000247,-10.858861565543829641
0.404000000000000248,-10.741895876677610033
0.405000000000000249,-10.627038542084681794
0.406000000000000250,-10.514279723852022030
0.407000000000000250,-10.403608361161392537
0.408000000000000251,-10.295012223484105718
0.409000000000000252,-10.188477962877835026
0.410000000000000253,-10.083991165361030795
0.411000000000000254,-9.981536401343422682
0.412000000000000255,-9.881097275093162935
0.413000000000000256,-9.782656473223951821
0.414000000000000257,-9.686195812187312626
0.415000000000000258,-9.591696284757809110
0.416000000000000258,-9.499138105500614770
0.417000000000000259,-9.408500755213136557
0.418000000000000260,-9.319763024334095647
0.419000000000000261,-9.232903055315167862
0.420000000000000262,-9.147898383952194123
0.421000000000000263,-9.064725979674381762
0.422000000000000264,-8.983362284791345687
0.423000000000000265,-8.903783252699422945
0.424000000000000266,-8.825964385050095729
0.425000000000000266,-8.749880767884219424
0.426000000000000267,-8.675507106737345708
0.427000000000000268,-8.602817760722432539
0.428000000000000269,-8.531786775597016259
0.429000000000000270,-8.462387915823274653
0.430000000000000271,-8.394594695629988834
0.431000000000000272,-8.328380409086451053
0.432000000000000273,-8.263718159198973012
0.433000000000000274,-8.200580886041583639
0.434000000000000274,-8.138941393932887181
0.435000000000000275,-8.078772377671912253
0.436000000000000276,-8.020046447846205240
0.437000000000000277,-7.962736155225901946
0.438000000000000278,-7.906814014258055856
0.439000000000000279,-7.852252525675917916
0.440000000000000280,-7.799024198238053707
0.441000000000000281,-7.747101569612746985
0.442000000000000282,-7.696457226423373932
0.443000000000000282,-7.647063823470387156
0.444000000000000283,-7.598894102146319440
0.445000000000000284,-7.551920908059867266
0.446000000000000285,-7.506117207885464104
0.447000000000000286,-7.461456105455118504
0.448000000000000287,-7.417910857108819478
0.449000000000000288,-7.375454886320499170
0.450000000000000289,-7.334061797616058698
0.451000000000000290,-7.293705389800321015
0.452000000000000290,-7.254359668509620107
0.453000000000000291,-7.215998858106655867
0.454000000000000292,-7.178597412934355937
0.455000000000000293,-7.142130027945221116
0.456000000000000294,-7.106571648722706414
0.457000000000000295,-7.071897480910948275
0.458000000000000296,-7.038082999069152024
0.459000000000000297,-7.005103954966695134
0.460000000000000298,-6.972936385334968179
0.461000000000000298,-6.941556619091694635
0.462000000000000299,-6.910941284053438771
0.463000000000000300,-6.881067313151646658
0.464000000000000301,-6.851911950167573373
0.465000000000000302,-6.823452755001092385
0.466000000000000303,-6.795667608488241918
0.467000000000000304,-6.768534716782073524
0.468000000000000305,-6.742032615311345012
0.469000000000000306,-6.716140172331044766
0.470000000000000306,-6.690836592078835743
0.471000000000000307,-6.666101417550974517
0.472000000000000308,-6.641914532911307845
0.473000000000000309,-6.618256165546398506
0.474000000000000310,-6.595106887779796700
0.475000000000000311,-6.572447618258189905
0.476000000000000312,-6.550259623021839950
0.477000000000000313,-6.528524516271458467
0.478000000000000314,-6.507224260843486263
0.479000000000000314,-6.486341168405520996
0.480000000000000315,-6.465857899383114393
0.481000000000000316,-6.445757462629354784
0.482000000000000317,-6.426023214847871756
0.483000000000000318,-6.406638859780114714
0.484000000000000319,-6.387588447167127370
0.485000000000000320,-6.368856371496102398
0.486000000000000321,-6.350427370541462224
0.487000000000000322,-6.332286523710174642
0.488000000000000322,-6.314419250200608680
0.489000000000000323,-6.296811306984144707
0.490000000000000324,-6.279448786618376133
0.491000000000000325,-6.262318114900525146
0.492000000000000326,-6.245406048369513741
0.493000000000000327,-6.228699671664834625
0.494000000000000328,-6.212186394750163210
0.495000000000000329,-6.195853950009417410
0.496000000000000330,-6.179690389222702862
0.497000000000000330,-6.163684080429467471
0.498000000000000331,-6.147823704685790425
0.499000000000000332,-6.132098252722714804
0.500000000000000333,-6.116497021512187438
0.501000000000000334,-6.101009610746958245
0.502000000000000335,-6.085625919240667869
0.503000000000000336,-6.070336141254105478
0.504000000000000337,-6.055130762753377027
0.505000000000000338,-6.040000557605606168
0.506000000000000338,-6.024936583717544814
0.507000000000000339,-6.009930179122311422
0.508000000000000340,-5.994972958019261888
0.509000000000000341,-5.980056806771893108
0.510000000000000342,-5.965173879868353346
0.511000000000000343,-5.950316595849148626
0.512000000000000344,-5.935477633206317272
0.513000000000000345,-5.920649926258247930
0.514000000000000346,-5.905826661004200062
0.515000000000000346,-5.891001270962268777
0.516000000000000347,-5.876167432994558126
0.517000000000000348,-5.861319063123159090
0.518000000000000349,-5.846450312340179423
0.519000000000000350,-5.831555562415239535
0.520000000000000351,-5.816629421703476410
0.521000000000000352,-5.801666720957049606
0.522000000000000353,-5.786662509143019939
0.523000000000000353,-5.771612049270285816
0.524000000000000354,-5.756510814228282591
0.525000000000000355,-5.741354482639797752
0.526000000000000356,-5.726138934730334640
0.527000000000000357,-5.710860248216318880
0.528000000000000358,-5.695514694214179663
0.529000000000000359,-5.680098733172447290
0.530000000000000360,-5.664609010828717039
0.531000000000000361,-5.649042354193358761
0.532000000000000361,-5.633395767561685474
0.533000000000000362,-5.617666428556198355
0.534000000000000363,-5.601851684200481074
0.535000000000000364,-5.585949047026183223
0.536000000000000365,-5.569956191214450847
0.537000000000000366,-5.553870948773115046
0.538000000000000367,-5.537691305750775506
0.539000000000000368,-5.521415398489048165
0.540000000000000369,-5.505041509913796816
0.541000000000000369,-5.488568065866596513
0.542000000000000370,-5.471993631477082509
0.543000000000000371,-5.455316907577181240
0.544000000000000372,-5.438536727157968542
0.545000000000000373,-5.421652051869793709
0.546000000000000374,-5.404661968566396801
0.547000000000000375,-5.387565685893542344
0.548000000000000376,-5.370362530922788480
0.549000000000000377,-5.353051945830755720
0.550000000000000377,-5.335633484624397127
0.551000000000000378,-5.318106809912618971
0.552000000000000379,-5.300471689724591151
0.553000000000000380,-5.282727994374988967
0.554000000000000381,-5.264875693376431798
0.555000000000000382,-5.246914852399340745
0.556000000000000383,-5.228845630279230328
0.557000000000000384,-5.210668276071758420
0.558000000000000385,-5.192383126155361239
0.559000000000000385,-5.173990601381750487
0.560000000000000386,-5.155491204274044392
0.561000000000000387,-5.136885516272709395
0.562000000000000388,-5.118174195029070006
0.563000000000000389,-5.099357971746433016
0.564000000000000390,-5.080437648568596032
0.565000000000000391,-5.061414096015665720
0.566000000000000392,-5.042288250466969046
0.567000000000000393,-5.023061111690873659
0.568000000000000393,-5.003733740421266951
0.569000000000000394,-4.984307255980474416
0.570000000000000395,-4.964782833948367724
0.571000000000000396,-4.945161703877270831
0.572000000000000397,-4.925445147052520234
0.573000000000000398,-4.905634494298194426
0.574000000000000399,-4.885731123827780742
0.575000000000000400,-4.865736459139350600
0.576000000000000401,-4.845651966954898526
0.577000000000000401,-4.825479155203503012
0.578000000000000402,-4.805219571047800287
0.579000000000000403,-4.784874798953440589
0.580000000000000404,-4.764446458801115725
0.581000000000000405,-4.743936204040624105
0.582000000000000406,-4.723345719886665961
0.583000000000000407,-4.702676721555762107
0.584000000000000408,-4.681930952543983615
0.585000000000000409,-4.661110182944893765
0.586000000000000409,-4.640216207807307924
0.587000000000000410,-4.619250845532372196
0.588000000000000411,-4.598215936309415497
0.589000000000000412,-4.577113340590175383
0.590000000000000413,-4.555944937600794553
0.591000000000000414,-4.534712623891171468
0.592000000000000415,-4.513418311921109982
0.593000000000000416,-4.492063928682757279
0.594000000000000417,-4.470651414358821185
0.595000000000000417,-4.449182721016118336
0.596000000000000418,-4.427659811333759521
0.597000000000000419,-4.406084657365705759
0.598000000000000420,-4.384459239336922387
0.599000000000000421,-4.362785544472801647
0.600000000000000422,-4.341065565861226716
0.601000000000000423,-4.319301301346804678
0.602000000000000424,-4.297494752456725742
0.603000000000000425,-4.275647923357761115
0.604000000000000425,-4.253762819843833753
0.605000000000000426,-4.231841448353686808
0.606000000000000427,-4.209885815018167499
0.607000000000000428,-4.187897924736454058
0.608000000000000429,-4.165879780281008138
