# AuFCC100-Ablate50_CS-5439-AC
# h[nm],U(h)[kJ/mol]
0.149999999999999994,148.984762922721984069
0.150999999999999995,146.360225348310649451
0.151999999999999996,143.253817632788866376
0.152999999999999997,140.093765905865893728
0.153999999999999998,137.039229298785016908
0.154999999999999999,134.120650199151469906
0.156000000000000000,131.316512339137517529
0.157000000000000001,128.592289520639752709
0.158000000000000002,125.917801885315384425
0.159000000000000002,123.272937085312648264
0.160000000000000003,120.647660327999162178
0.161000000000000004,118.039687398493612136
0.162000000000000005,115.451621422339670175
0.163000000000000006,112.888414070474624396
0.164000000000000007,110.355474994108249120
0.165000000000000008,107.857466994922333470
0.166000000000000009,105.397689132126103573
0.167000000000000010,102.977901659513321420
0.168000000000000010,100.598445203076394705
0.169000000000000011,98.258527453360755999
0.170000000000000012,95.956579548657813916
0.171000000000000013,93.690613416963273608
0.172000000000000014,91.458536770195948407
0.173000000000000015,89.258402723348766017
0.174000000000000016,87.088586000865632286
0.175000000000000017,84.947887934229441953
0.176000000000000018,82.835578778856472582
0.177000000000000018,80.751389174708151586
0.178000000000000019,78.695463669809015528
0.179000000000000020,76.668288824740258747
0.180000000000000021,74.670607086423473220
0.181000000000000022,72.703325794191087539
0.182000000000000023,70.767428674510483688
0.183000000000000024,68.863895207973726542
0.184000000000000025,66.993631449738742845
0.185000000000000026,65.157414328984060603
0.186000000000000026,63.355850176821604691
0.187000000000000027,61.589347237778689248
0.188000000000000028,59.858101189848881063
0.189000000000000029,58.162092202883663106
0.190000000000000030,56.501091769617218574
0.191000000000000031,54.874677411135010630
0.192000000000000032,53.282253353606527924
0.193000000000000033,51.723075363087374967
0.194000000000000034,50.196278081625834488
0.195000000000000034,48.700903406631546488
0.196000000000000035,47.235928676730530640
0.197000000000000036,45.800293655552444250
0.198000000000000037,44.392925528232481724
0.199000000000000038,43.012761335315772726
0.200000000000000039,41.658767459449933312
0.201000000000000040,40.329955948252568021
0.202000000000000041,39.025397600381815266
0.203000000000000042,37.744231860868268313
0.204000000000000042,36.485673666979359098
0.205000000000000043,35.249017458830408600
0.206000000000000044,34.033638621655789791
0.207000000000000045,32.838992661432492071
0.208000000000000046,31.664612434844904953
0.209000000000000047,30.510103760839161424
0.210000000000000048,29.375139736588351980
0.211000000000000049,28.259454067782264985
0.212000000000000050,27.162833703764185600
0.213000000000000050,26.085111043962712074
0.214000000000000051,25.026155954857546959
0.215000000000000052,23.985867807717863087
0.216000000000000053,22.964167717670857627
0.217000000000000054,21.960991135209233960
0.218000000000000055,20.976280912751928298
0.219000000000000056,20.009980941891122086
0.220000000000000057,19.062030431889105841
0.221000000000000058,18.132358877122292995
0.222000000000000058,17.220881740660004766
0.223000000000000059,16.327496863105395164
0.224000000000000060,15.452081590208342377
0.225000000000000061,14.594490599533937569
0.226000000000000062,13.754554395533187261
0.227000000000000063,12.932078433576895904
0.228000000000000064,12.126842826721716762
0.229000000000000065,11.338602583998842022
0.230000000000000066,10.567088325672088445
0.231000000000000066,9.812007419009770359
0.232000000000000067,9.073045477474584786
0.233000000000000068,8.349868166674166758
0.234000000000000069,7.642123261764552922
0.235000000000000070,6.949442903097943436
0.236000000000000071,6.271445999608821431
0.237000000000000072,5.607740732600798417
0.238000000000000073,4.957927116112773369
0.239000000000000073,4.321599573796987670
0.240000000000000074,3.698349496135750591
0.241000000000000075,3.087767745780958251
0.242000000000000076,2.489447082745354312
0.243000000000000077,1.902984485049131980
0.244000000000000078,1.327983344181721481
0.245000000000000079,0.764055518334902484
0.246000000000000080,0.210823229770970150
0.247000000000000081,-0.332079204118482352
0.248000000000000081,-0.865003813543675726
0.249000000000000082,-1.388287597596431500
0.250000000000000111,-1.902251326362291994
0.251000000000000112,-2.407198523920015099
0.252000000000000113,-2.903414630302398436
0.253000000000000114,-3.391166338746790299
0.254000000000000115,-3.870701103054085657
0.255000000000000115,-4.342246808582268969
0.256000000000000116,-4.806011599320302530
0.257000000000000117,-5.262183852603149248
0.258000000000000118,-5.710932292326328152
0.259000000000000119,-6.152406230986001923
0.260000000000000120,-6.586735930492563007
0.261000000000000121,-7.014033071467030034
0.262000000000000122,-7.434391320619125665
0.263000000000000123,-7.847886985806117544
0.264000000000000123,-8.254579748473149792
0.265000000000000124,-8.654513463362716763
0.266000000000000125,-9.047717015644085592
0.267000000000000126,-9.434205225939175321
0.268000000000000127,-9.813979794101815202
0.269000000000000128,-10.187030273029394678
0.270000000000000129,-10.553335064244063091
0.271000000000000130,-10.912862427464617099
0.272000000000000131,-11.265571496892768266
0.273000000000000131,-11.611413297452822135
0.274000000000000132,-11.950331754744960122
0.275000000000000133,-12.282264692994653288
0.276000000000000134,-12.607144815799454562
0.277000000000000135,-12.924900664984232179
0.278000000000000136,-13.235457553376392070
0.279000000000000137,-13.538738467796772369
0.280000000000000138,-13.834664939030318465
0.281000000000000139,-14.123157875990276722
0.282000000000000139,-14.404138361718178629
0.283000000000000140,-14.677528409269323006
0.284000000000000141,-14.943251675917755605
0.285000000000000142,-15.201234134476175441
0.286000000000000143,-15.451404700863786701
0.287000000000000144,-15.693695817368441325
0.288000000000000145,-15.928043991340851804
0.289000000000000146,-16.154390289323821150
0.290000000000000147,-16.372680786864744817
0.291000000000000147,-16.582866974480193534
0.292000000000000148,-16.784906120441743127
0.293000000000000149,-16.978761591230455252
0.294000000000000150,-17.164403130666691766
0.295000000000000151,-17.341807098861021785
0.296000000000000152,-17.510956672253445987
0.297000000000000153,-17.671842006111969425
0.298000000000000154,-17.824460360949313298
0.299000000000000155,-17.968816194388782748
0.300000000000000155,-18.104921220068451504
0.301000000000000156,-18.232794435217410722
0.302000000000000157,-18.352462118570525007
0.303000000000000158,-18.463957800308786972
0.304000000000000159,-18.567322205723392869
0.305000000000000160,-18.662603174302361708
0.306000000000000161,-18.749855555931198126
0.307000000000000162,-18.829141085883819073
0.308000000000000163,-18.900528240257038703
0.309000000000000163,-18.964092073473828748
0.310000000000000164,-19.019914039446231158
0.311000000000000165,-19.068081797949378853
0.312000000000000166,-19.108689007715433661
0.313000000000000167,-19.141835107709152197
0.314000000000000168,-19.167625087996661648
0.315000000000000169,-19.186169251567161353
0.316000000000000170,-19.197582968412646665
0.317000000000000171,-19.201986423114639990
0.318000000000000171,-19.199504357130045662
0.319000000000000172,-19.190265806910343116
0.320000000000000173,-19.174403838929986676
0.321000000000000174,-19.152055282641388345
0.322000000000000175,-19.123360462315861952
0.323000000000000176,-19.088462928672004892
0.324000000000000177,-19.047509191135905127
0.325000000000000178,-19.000648451521257698
0.326000000000000179,-18.948032339862514561
0.327000000000000179,-18.889814653080115647
0.328000000000000180,-18.826151097103945631
0.329000000000000181,-18.757199033030914848
0.330000000000000182,-18.683117227841680830
0.331000000000000183,-18.604065610155046784
0.332000000000000184,-18.520205031451155264
0.333000000000000185,-18.431697033151017706
0.334000000000000186,-18.338703619896914887
0.335000000000000187,-18.241387039337375597
0.336000000000000187,-18.139909568682028862
0.337000000000000188,-18.034433308253703387
0.338000000000000189,-17.925119982230839355
0.339000000000000190,-17.812130746739402554
0.340000000000000191,-17.695626005421850380
0.341000000000000192,-17.575765232581591846
0.342000000000000193,-17.452706803972599658
0.343000000000000194,-17.326607835278373670
0.344000000000000195,-17.197624028299252075
0.345000000000000195,-17.065909524844801837
0.346000000000000196,-16.931616768306255949
0.347000000000000197,-16.794896372864528189
0.348000000000000198,-16.655897000271107089
0.349000000000000199,-16.514765244122166621
0.350000000000000200,-16.371645521531267065
0.351000000000000201,-16.226679972091581305
0.352000000000000202,-16.080008364006136645
0.353000000000000203,-15.931768007253007013
0.354000000000000203,-15.782093673642132003
0.355000000000000204,-15.631117523610992492
0.356000000000000205,-15.478969039598672097
0.357000000000000206,-15.325774965830428087
0.358000000000000207,-15.171659254338717204
0.359000000000000208,-15.016743017041614294
0.360000000000000209,-14.861144483694980423
0.361000000000000210,-14.704978965531216417
0.362000000000000210,-14.548358824394515665
0.363000000000000211,-14.391393447180576004
0.364000000000000212,-14.234189225387229527
0.365000000000000213,-14.076849539581299808
0.366000000000000214,-13.919474748587242985
0.367000000000000215,-13.762162183202912402
0.368000000000000216,-13.605006144248894984
0.369000000000000217,-13.448097904758700594
0.370000000000000218,-13.291525716119164002
0.371000000000000218,-13.135374817971955608
0.372000000000000219,-12.979727451689688777
0.373000000000000220,-12.824662877242863246
0.374000000000000221,-12.670257393276617819
0.375000000000000222,-12.516584360219457750
0.376000000000000223,-12.363714226249914674
0.377000000000000224,-12.211714555950202055
0.378000000000000225,-12.060650061480213679
0.379000000000000226,-11.910582636108831167
0.380000000000000226,-11.761571389943952681
0.381000000000000227,-11.613672687706415587
0.382000000000000228,-11.466940188397810374
0.383000000000000229,-11.321424886716201286
0.384000000000000230,-11.177175156078213547
0.385000000000000231,-11.034236793110807184
0.386000000000000232,-10.892653063480057796
0.387000000000000233,-10.752464748929174476
0.388000000000000234,-10.613710195402303427
0.389000000000000234,-10.476425362135392660
0.390000000000000235,-10.340643871599572989
0.391000000000000236,-10.206397060187422099
0.392000000000000237,-10.073714029536423809
0.393000000000000238,-9.942621698388776963
0.394000000000000239,-9.813144854890650137
0.395000000000000240,-9.685306209238586206
0.396000000000000241,-9.559126446584693682
0.397000000000000242,-9.434624280116523209
0.398000000000000242,-9.311816504231668290
0.399000000000000243,-9.190718047730868534
0.400000000000000244,-9.071342026957399440
0.401000000000000245,-8.953699798814554356
0.402000000000000246,-8.837801013596269684
0.403000000000000247,-8.723653667569919890
0.404000000000000248,-8.611264155253751440
0.405000000000000249,-8.500637321334783891
0.406000000000000250,-8.391776512176317482
0.407000000000000250,-8.284683626867558104
0.408000000000000251,-8.179359167770744676
0.409000000000000252,-8.075802290524546123
0.410000000000000253,-7.974010853465003379
0.411000000000000254,-7.873981466428494613
0.412000000000000255,-7.775709538903656792
0.413000000000000256,-7.679189327502079720
0.414000000000000257,-7.584413982719790503
0.415000000000000258,-7.491375594964372553
0.416000000000000258,-7.400065239824567875
0.417000000000000259,-7.310473022561700063
0.418000000000000260,-7.222588121804254691
0.419000000000000261,-7.136398832429101446
0.420000000000000262,-7.051892607614798081
0.421000000000000263,-6.969056100054366709
0.422000000000000264,-6.887875202316566359
0.423000000000000265,-6.808335086346550824
0.424000000000000266,-6.730420242098581696
0.425000000000000266,-6.654114515294558885
0.426000000000000267,-6.579401144304159565
0.427000000000000268,-6.506262796143426286
0.428000000000000269,-6.434681601590080291
0.429000000000000270,-6.364639189415173703
0.430000000000000271,-6.296116719731739586
0.431000000000000272,-6.229094916462377896
0.432000000000000273,-6.163554098928633707
0.433000000000000274,-6.099474212566182274
0.434000000000000274,-6.036834858770577128
0.435000000000000275,-5.975615323879397423
0.436000000000000276,-5.915794607297314656
0.437000000000000277,-5.857351448771392022
0.438000000000000278,-5.800264354824680169
0.439000000000000279,-5.744511624356875679
0.440000000000000280,-5.690071373421225154
0.441000000000000281,-5.636921559187683783
0.442000000000000282,-5.585040003102748507
0.443000000000000282,-5.534404413256707400
0.444000000000000283,-5.484992405969853380
0.445000000000000284,-5.436781526609235193
0.446000000000000285,-5.389749269647984953
0.447000000000000286,-5.343873097979907172
0.448000000000000287,-5.299130461501651013
0.449000000000000288,-5.255498814975758215
0.450000000000000289,-5.212955635187547898
0.451000000000000290,-5.171478437409300355
0.452000000000000290,-5.131044791185301435
0.453000000000000291,-5.091632335451333979
0.454000000000000292,-5.053218793002536735
0.455000000000000293,-5.015781984323366416
0.456000000000000294,-4.979299840793736109
0.457000000000000295,-4.943750417285244225
0.458000000000000296,-4.909111904161507667
0.459000000000000297,-4.875362638696654649
0.460000000000000298,-4.842481115925922452
0.461000000000000298,-4.810445998942367574
0.462000000000000299,-4.779236128653586491
0.463000000000000300,-4.748830533012275978
0.464000000000000301,-4.719208435734463691
0.465000000000000302,-4.690349264519044326
0.466000000000000303,-4.662232658782206052
0.467000000000000304,-4.634838476920198680
0.468000000000000305,-4.608146803113832846
0.469000000000000306,-4.582137953687817955
0.470000000000000306,-4.556792483038109687
0.471000000000000307,-4.532091189139996423
0.472000000000000308,-4.508015118649877806
0.473000000000000309,-4.484545571613085535
0.474000000000000310,-4.461664105790285717
0.475000000000000311,-4.439352540614613041
0.476000000000000312,-4.417592960791589363
0.477000000000000313,-4.396367719553602171
0.478000000000000314,-4.375659441580631359
0.479000000000000314,-4.355451025598673809
0.480000000000000315,-4.335725646667007993
0.481000000000000316,-4.316466758165477202
0.482000000000000317,-4.297658093492430886
0.483000000000000318,-4.279283667484111042
0.484000000000000319,-4.261327777565735886
0.485000000000000320,-4.243775004644594340
0.486000000000000321,-4.226610213755029655
0.487000000000000322,-4.209818554465128315
0.488000000000000322,-4.193385461054621288
0.489000000000000323,-4.177296652473377669
0.490000000000000324,-4.161538132089573239
0.491000000000000325,-4.146096187236475217
0.492000000000000326,-4.130957388566452337
0.493000000000000327,-4.116108589220834446
0.494000000000000328,-4.101536923823767999
0.495000000000000329,-4.087229807308198737
0.496000000000000330,-4.073174933581809043
0.497000000000000330,-4.059360274040615835
0.498000000000000331,-4.045774075937580427
0.499000000000000332,-4.032404860613587161
0.500000000000000333,-4.019241421597805619
0.501000000000000334,-4.006272822584223903
0.502000000000000335,-3.993488395291129311
0.503000000000000336,-3.980877737209920664
0.504000000000000337,-3.968430709249564536
0.505000000000000338,-3.956137433282788329
0.506000000000000338,-3.943988289599927644
0.507000000000000339,-3.931973914276139848
0.508000000000000340,-3.920085196457549159
0.509000000000000341,-3.908313275571733136
0.510000000000000342,-3.896649538467696239
0.511000000000000343,-3.885085616490429494
0.512000000000000344,-3.873613382494899948
0.513000000000000345,-3.862224947804174580
0.514000000000000346,-3.850912659116301651
0.515000000000000346,-3.839669095364244722
0.516000000000000347,-3.828487064533161011
0.517000000000000348,-3.817359600439202527
0.518000000000000349,-3.806279959473621854
0.519000000000000350,-3.795241617316135407
0.520000000000000351,-3.784238265621149733
0.521000000000000352,-3.773263808680385356
0.522000000000000353,-3.762312360065311445
0.523000000000000353,-3.751378239252607383
0.524000000000000354,-3.740455968235893103
0.525000000000000355,-3.729540268126620539
0.526000000000000356,-3.718626055747090930
0.527000000000000357,-3.707708440218389967
0.528000000000000358,-3.696782719545819162
0.529000000000000359,-3.685844377204468003
0.530000000000000360,-3.674889078727267666
0.531000000000000361,-3.663912668297953701
0.532000000000000361,-3.652911165351078182
0.533000000000000362,-3.641880761181270465
0.534000000000000363,-3.630817815563710749
0.535000000000000364,-3.619718853387809077
0.536000000000000365,-3.608580561305875456
0.537000000000000366,-3.597399784398585432
0.538000000000000367,-3.586173522858833618
0.539000000000000368,-3.574898928695662281
0.540000000000000369,-3.563573302459615455
0.541000000000000369,-3.552194089991088877
0.542000000000000370,-3.540758879192885900
0.543000000000000371,-3.529265396828318302
0.544000000000000372,-3.517711505346027501
0.545000000000000373,-3.506095199732637724
0.546000000000000374,-3.494414604394276758
0.547000000000000375,-3.482667970067996777
0.548000000000000376,-3.470853670763994536
0.549000000000000377,-3.458970200739481360
0.550000000000000377,-3.447016171505000504
0.551000000000000378,-3.434990308863991260
0.552000000000000379,-3.422891449986204204
0.553000000000000380,-3.410718540515687014
0.554000000000000381,-3.398470631713844448
0.555000000000000382,-3.386146877638207542
0.556000000000000383,-3.373746532357254857
0.557000000000000384,-3.361268947201897284
0.558000000000000385,-3.348713568053855560
0.559000000000000385,-3.336079932671430548
0.560000000000000386,-3.323367668052840340
0.561000000000000387,-3.310576487837517679
0.562000000000000388,-3.297706189745505334
0.563000000000000389,-3.284756653055220799
0.564000000000000390,-3.271727836119691979
0.565000000000000391,-3.258619773921427765
0.566000000000000392,-3.245432575666010511
0.567000000000000393,-3.232166422414481044
0.568000000000000393,-3.218821564754527742
0.569000000000000394,-3.205398320510508992
0.570000000000000395,-3.191897072492302811
0.571000000000000396,-3.178318266282876170
0.572000000000000397,-3.164662408064600196
0.573000000000000398,-3.150930062484108340
0.574000000000000399,-3.137121850555677049
0.575000000000000400,-3.123238447602910917
0.576000000000000401,-3.109280581238631491
0.577000000000000401,-3.095249029382785011
0.578000000000000402,-3.081144618318123474
0.579000000000000403,-3.066968220783495180
0.580000000000000404,-3.052720754104520928
0.581000000000000405,-3.038403178361359203
0.582000000000000406,-3.024016494593351201
0.583000000000000407,-3.009561743040226833
0.584000000000000408,-2.995040001419642994
0.585000000000000409,-2.980452383240671743
0.586000000000000409,-2.965800036153017682
0.587000000000000410,-2.951084140331577732
0.588000000000000411,-2.936305906896012008
0.589000000000000412,-2.921466576365059353
0.590000000000000413,-2.906567417145121901
0.591000000000000414,-2.891609724052868646
0.592000000000000415,-2.876594816871462790
0.593000000000000416,-2.861524038939982084
0.594000000000000417,-2.846398755775717770
0.595000000000000417,-2.831220353728986172
0.596000000000000418,-2.815990238669936918
0.597000000000000419,-2.800709834707135748
0.598000000000000420,-2.785380582937359240
0.599000000000000421,-2.770003940226311023
0.600000000000000422,-2.754581378019794080
0.601000000000000423,-2.739114381184942104
0.602000000000000424,-2.723604446881101815
0.603000000000000425,-2.708053083459948773
0.604000000000000425,-2.692461809394404604
0.605000000000000426,-2.676832152235945728
0.606000000000000427,-2.661165647599932793
0.607000000000000428,-2.645463838178380378
0.608000000000000429,-2.629728272780016418
0.609000000000000430,-2.613960505396865752
