# AuFCC100-Ablate50_CS-68900-AC
# h[nm],U(h)[kJ/mol]
0.200000000000000011,127.213649051618546082
0.201000000000000012,119.293231076217807640
0.202000000000000013,114.425222356272257684
0.203000000000000014,110.936980406803442634
0.204000000000000015,107.903542383124545267
0.205000000000000016,104.866629020318512744
0.206000000000000016,101.645836499774901540
0.207000000000000017,98.214836582864663228
0.208000000000000018,94.622773258312236067
0.209000000000000019,90.946541872691028630
0.210000000000000020,87.263715264410166128
0.211000000000000021,83.638887262900738051
0.212000000000000022,80.118402474874216068
0.213000000000000023,76.730035297725848409
0.214000000000000024,73.485324918508226233
0.215000000000000024,70.383083739484746388
0.216000000000000025,67.413162640767609446
0.217000000000000026,64.559944225322112743
0.218000000000000027,61.805294408662440730
0.219000000000000028,59.130870373500968640
0.220000000000000029,56.519786292940956685
0.221000000000000030,53.957697315412154637
0.222000000000000031,51.433391594301362204
0.223000000000000032,48.938990029751956001
0.224000000000000032,46.469851221202979730
0.225000000000000033,44.024270016863042088
0.226000000000000034,41.603045463144859184
0.227000000000000035,39.208980192528514408
0.228000000000000036,36.846359787421903320
0.229000000000000037,34.520448272360781061
0.230000000000000038,32.237025061181569185
0.231000000000000039,30.001979589995691811
0.232000000000000040,27.820972494884717463
0.233000000000000040,25.699166431769363328
0.234000000000000041,23.641025312110549805
0.235000000000000042,21.650177642719754090
0.236000000000000043,19.729337606923785131
0.237000000000000044,17.880276312474730815
0.238000000000000045,16.103835080644298472
0.239000000000000046,14.399972603627313461
0.240000000000000047,12.767838118837312678
0.241000000000000048,11.205863326163383320
0.242000000000000048,9.711866515734223881
0.243000000000000049,8.283163205885621494
0.244000000000000050,6.916678456997304991
0.245000000000000051,5.609056883879777189
0.246000000000000052,4.356767206560180128
0.247000000000000053,3.156198935464013200
0.248000000000000054,2.003749468828490699
0.249000000000000055,0.895900480621005135
0.250000000000000056,-0.170717006040181640
0.251000000000000056,-1.199269030688826954
0.252000000000000057,-2.192676407596263921
0.253000000000000058,-3.153583270538010019
0.254000000000000059,-4.084335766287263247
0.255000000000000060,-4.986970055534695412
0.256000000000000061,-5.863208674109511520
0.257000000000000062,-6.714464245680952459
0.258000000000000063,-7.541849512481361373
0.259000000000000064,-8.346192656398786269
0.260000000000000064,-9.128056912985108795
0.261000000000000065,-9.887763530066377982
0.262000000000000066,-10.625417185911578244
0.263000000000000067,-11.340933055112794037
0.264000000000000068,-12.034064789865038136
0.265000000000000069,-12.704432767176937702
0.266000000000000070,-13.351552036186509653
0.267000000000000071,-13.974859482174116110
0.268000000000000071,-14.573739803446340346
0.269000000000000072,-15.147549972786418238
0.270000000000000073,-15.695641925723666787
0.271000000000000074,-16.217383282845922565
0.272000000000000075,-16.712175972385061584
0.273000000000000076,-17.179472672158333069
0.274000000000000077,-17.618791036630714331
0.275000000000000078,-18.029725715483163384
0.276000000000000079,-18.411958204842346021
0.277000000000000079,-18.765264601541709055
0.278000000000000080,-19.089521354787002849
0.279000000000000081,-19.384709128782176890
0.280000000000000082,-19.650914904642700520
0.281000000000000083,-19.888332460705484550
0.282000000000000084,-20.097261377560815987
0.283000000000000085,-20.278104718197596412
0.284000000000000086,-20.431365534969636144
0.285000000000000087,-20.557642354040474686
0.286000000000000087,-20.657623784908587083
0.287000000000000088,-20.732082397887104719
0.288000000000000089,-20.781868006322422815
0.289000000000000090,-20.807900483166964278
0.290000000000000091,-20.811162233523678111
0.291000000000000092,-20.792690436186838099
0.292000000000000093,-20.753569158210403600
0.293000000000000094,-20.694921437324225622
0.294000000000000095,-20.617901417738593750
0.295000000000000095,-20.523686615662352750
0.296000000000000096,-20.413470381818974886
0.297000000000000097,-20.288454619470577711
0.298000000000000098,-20.149842808026047436
0.299000000000000099,-19.998833374277374730
0.300000000000000100,-19.836613445720381321
0.301000000000000101,-19.664353013308470963
0.302000000000000102,-19.483199524381216605
0.303000000000000103,-19.294272920417057549
0.304000000000000103,-19.098661128684991439
0.305000000000000104,-18.897416011813202630
0.306000000000000105,-18.691549774743272394
0.307000000000000106,-18.482031824483577509
0.308000000000000107,-18.269786074500125039
0.309000000000000108,-18.055688682463635786
0.310000000000000109,-17.840566207388228293
0.311000000000000110,-17.625194169923243948
0.312000000000000111,-17.410295997670772294
0.313000000000000111,-17.196542335870269369
0.314000000000000112,-16.984550702591143079
0.315000000000000113,-16.774885466677698531
0.316000000000000114,-16.568058126072351399
0.317000000000000115,-16.364527863774476657
0.318000000000000116,-16.164702358551160444
0.319000000000000117,-15.968938827575978934
0.320000000000000118,-15.777545278410169516
0.321000000000000119,-15.590781948135864710
0.322000000000000119,-15.408862907981140111
0.323000000000000120,-15.231957812423550180
0.324000000000000121,-15.060193772502852738
0.325000000000000122,-14.893657333899492201
0.326000000000000123,-14.732396541225806885
0.327000000000000124,-14.576423070918924196
0.328000000000000125,-14.425714416104664650
0.329000000000000126,-14.280216107807911285
0.330000000000000127,-14.139843957906652605
0.331000000000000127,-14.004486310255998660
0.332000000000000128,-13.874006287433569895
0.333000000000000129,-13.748244021574640428
0.334000000000000130,-13.627018858764865072
0.335000000000000131,-13.510131527437604149
0.336000000000000132,-13.397366262173523666
0.337000000000000133,-13.288492875222008394
0.338000000000000134,-13.183268768950265226
0.339000000000000135,-13.081440883276806986
0.340000000000000135,-12.982747572957034521
0.341000000000000136,-12.886920410359859801
0.342000000000000137,-12.793685910103512526
0.343000000000000138,-12.702767172606039381
0.344000000000000139,-12.613885444250293233
0.345000000000000140,-12.526761592465666340
0.346000000000000141,-12.441117494587967229
0.347000000000000142,-12.356677339877551347
0.348000000000000143,-12.273168844552930778
0.349000000000000143,-12.190324380134320847
0.350000000000000144,-12.107882015790751851
0.351000000000000145,-12.025586475745496884
0.352000000000000146,-11.943190013120073445
0.353000000000000147,-11.860453201887979802
0.354000000000000148,-11.777145648867479721
0.355000000000000149,-11.693046627909078339
0.356000000000000150,-11.607945638630731366
0.357000000000000151,-11.521642892222487831
0.358000000000000151,-11.433949726984909745
0.359000000000000152,-11.344688956383354395
0.360000000000000153,-11.253695152495181375
0.361000000000000154,-11.160814867799699002
0.362000000000000155,-11.065906798314356863
0.363000000000000156,-10.968841891115239662
0.364000000000000157,-10.869503399297759216
0.365000000000000158,-10.767786887436225030
0.366000000000000159,-10.663600190588677918
0.367000000000000159,-10.556863329869013768
0.368000000000000160,-10.447508387572554511
0.369000000000000161,-10.335479344794087808
0.370000000000000162,-10.220731884422184166
0.371000000000000163,-10.103233162329635419
0.372000000000000164,-9.982961549508392096
0.373000000000000165,-9.859906347820929895
0.374000000000000166,-9.734067481956813594
0.375000000000000167,-9.605455170096655948
0.376000000000000167,-9.474089575695176180
0.377000000000000168,-9.340000442701205330
0.378000000000000169,-9.203226716437052701
0.379000000000000170,-9.063816152262182513
0.380000000000000171,-8.921824914047364885
0.381000000000000172,-8.777317164386994719
0.382000000000000173,-8.630364648377483405
0.383000000000000174,-8.481046272691564525
0.384000000000000175,-8.329447681579788210
0.385000000000000175,-8.175660831333919631
0.386000000000000176,-8.019783564651387309
0.387000000000000177,-7.861919186245957647
0.388000000000000178,-7.702176040958346626
0.389000000000000179,-7.540667095530269037
0.390000000000000180,-7.377509525118560063
0.391000000000000181,-7.212824305540640246
0.392000000000000182,-7.046735812160967782
0.393000000000000183,-6.879371426247848476
0.394000000000000183,-6.710861149554046001
0.395000000000000184,-6.541337227800466003
0.396000000000000185,-6.370933783671274497
0.397000000000000186,-6.199786459861376997
0.398000000000000187,-6.028032072651979156
0.399000000000000188,-5.855808276428092540
0.400000000000000189,-5.683253239493482489
0.401000000000000190,-5.510505331481819091
0.402000000000000191,-5.337702822610969733
0.403000000000000191,-5.164983594976204628
0.404000000000000192,-4.992484866031833057
0.405000000000000193,-4.820342924365844439
0.406000000000000194,-4.648692877830771231
0.407000000000000195,-4.477668414055034241
0.408000000000000196,-4.307401573322499289
0.409000000000000197,-4.138022533774309508
0.410000000000000198,-3.969659408855766181
0.411000000000000199,-3.802438056901745966
0.412000000000000199,-3.636481902727656923
0.413000000000000200,-3.471911771068453501
0.414000000000000201,-3.308845731685667424
0.415000000000000202,-3.147398955942024124
0.416000000000000203,-2.987683584625243860
0.417000000000000204,-2.829808606785256586
0.418000000000000205,-2.673879749335152489
0.419000000000000206,-2.519999377152553510
0.420000000000000207,-2.368266403406519949
0.421000000000000207,-2.218776209825827017
0.422000000000000208,-2.071620576614904508
0.423000000000000209,-1.926887621717568777
0.424000000000000210,-1.784661749122087526
0.425000000000000211,-1.645023605896767105
0.426000000000000212,-1.508050047641717573
0.427000000000000213,-1.373814112039803303
0.428000000000000214,-1.242385000188614530
0.429000000000000214,-1.113828065394380840
0.430000000000000215,-0.988204809109313742
0.431000000000000216,-0.865572883695085671
0.432000000000000217,-0.745986101696568427
0.433000000000000218,-0.629494451312978098
0.434000000000000219,-0.516144117756517140
0.435000000000000220,-0.405977510192315816
0.436000000000000221,-0.299033293957866764
0.437000000000000222,-0.195346427764755859
0.438000000000000222,-0.094948205590812587
0.439000000000000223,0.002133697023678138
0.440000000000000224,0.095875172556351099
0.441000000000000225,0.186255627233854776
0.442000000000000226,0.273257923181413731
0.443000000000000227,0.356868317252178879
0.444000000000000228,0.437076396790273602
0.445000000000000229,0.513875012574870560
0.446000000000000230,0.587260209184995552
0.447000000000000230,0.657231153017817205
0.448000000000000231,0.723790058185445950
0.449000000000000232,0.786942110507973247
0.450000000000000233,0.846695389813019061
0.451000000000000234,0.903060790744298236
0.452000000000000235,0.956051942274516398
0.453000000000000236,1.005685126110207994
0.454000000000000237,1.051979194168580767
0.455000000000000238,1.094955485299389686
0.456000000000000238,1.134637741417049650
0.457000000000000239,1.171052023201416770
0.458000000000000240,1.204226625518019622
0.459000000000000241,1.234191992701961338
0.460000000000000242,1.260980633842277765
0.461000000000000243,1.284627038197107218
0.462000000000000244,1.305167590863045346
0.463000000000000245,1.322640488815715276
0.464000000000000246,1.337085657431943186
0.465000000000000246,1.348544667597843638
0.466000000000000247,1.357060653500856251
0.467000000000000248,1.362678231197946399
0.468000000000000249,1.365443418046195401
0.469000000000000250,1.365403553076512067
0.470000000000000251,1.362607218385635921
0.471000000000000252,1.357104161616362603
0.472000000000000253,1.348945219590517386
0.473000000000000254,1.338182243154640627
0.474000000000000254,1.324868023293100716
0.475000000000000255,1.309056218558936502
0.476000000000000256,1.290801283868199700
0.477000000000000257,1.270158400699178181
0.478000000000000258,1.247183408733705257
0.479000000000000259,1.221932738973973143
0.480000000000000260,1.194463348364014799
0.481000000000000261,1.164832655941791195
0.482000000000000262,1.133098480543866415
0.483000000000000262,1.099318980081660957
0.484000000000000263,1.063552592404672925
0.485000000000000264,1.025857977763341644
0.486000000000000265,0.986293962880879449
0.487000000000000266,0.944919486641017770
0.488000000000000267,0.901793547395689510
0.489000000000000268,0.856975151894104448
0.490000000000000269,0.810523265832597928
0.491000000000000270,0.762496766021938166
0.492000000000000270,0.712954394167015892
0.493000000000000271,0.661954712251517252
0.494000000000000272,0.609556059518629345
0.495000000000000273,0.555816511036480443
0.496000000000000274,0.500793837836072009
0.497000000000000275,0.444545468607281946
0.498000000000000276,0.387128452937224199
0.499000000000000277,0.328599426074193957
0.500000000000000222,0.269014575198531058
0.501000000000000334,0.208429607181303517
0.502000000000000224,0.146899717809954616
0.503000000000000336,0.084479562459485319
0.504000000000000226,0.021223228186750553
0.505000000000000338,-0.042815792775675557
0.506000000000000227,-0.107584628149788225
0.507000000000000339,-0.173031049391734359
0.508000000000000229,-0.239103494145630091
0.509000000000000341,-0.305751087398029475
0.510000000000000231,-0.372923661358887826
0.511000000000000343,-0.440571774096358559
0.512000000000000233,-0.508646726952094674
0.513000000000000345,-0.577100580765006255
0.514000000000000234,-0.645886170930760728
0.515000000000000346,-0.714957121325340839
0.516000000000000236,-0.784267857120311995
0.517000000000000348,-0.853773616518440859
0.518000000000000238,-0.923430461437376393
0.519000000000000350,-0.993195287170202334
0.520000000000000240,-1.063025831050498748
0.521000000000000352,-1.132880680150660568
0.522000000000000242,-1.202719278040953910
0.523000000000000353,-1.272501930637933043
0.524000000000000243,-1.342189811169269165
0.525000000000000355,-1.411744964283299320
0.526000000000000245,-1.481130309330071615
0.527000000000000357,-1.550309642841605662
0.528000000000000247,-1.619247640237741148
0.529000000000000359,-1.687909856784627349
0.530000000000000249,-1.756262727831811477
0.531000000000000361,-1.824273568354197739
0.532000000000000250,-1.891910571824229503
0.533000000000000362,-1.959142808439982675
0.534000000000000252,-2.025940222733474627
0.535000000000000364,-2.092273630584581046
0.536000000000000254,-2.158114715663741912
0.537000000000000366,-2.223436025328054733
0.538000000000000256,-2.288210965993415780
0.539000000000000368,-2.352413798006110390
0.540000000000000258,-2.416019630035848742
0.541000000000000369,-2.479004413012822372
0.542000000000000259,-2.541344933629709146
0.543000000000000371,-2.603018807430413695
0.544000000000000261,-2.664004471505746263
0.545000000000000373,-2.724281176816558236
0.546000000000000263,-2.783828980163846722
0.547000000000000375,-2.842628735825541764
0.548000000000000265,-2.900662086878268209
0.549000000000000377,-2.957911456223098590
0.550000000000000266,-3.014360037332633802
0.551000000000000378,-3.069991784737413187
0.552000000000000268,-3.124791404268248307
0.553000000000000380,-3.178744343071366441
0.554000000000000270,-3.231836779412204042
0.555000000000000382,-3.284055612283773851
0.556000000000000272,-3.335388450834588348
0.557000000000000384,-3.385823603631050727
0.558000000000000274,-3.435350067768614402
0.559000000000000385,-3.483957517845613694
0.560000000000000275,-3.531636294813185195
0.561000000000000387,-3.578377394714466586
0.562000000000000277,-3.624172457325458119
0.563000000000000389,-3.669013754710086950
0.564000000000000279,-3.712894179700934050
0.565000000000000391,-3.755807234317374288
0.566000000000000281,-3.797747018131770069
0.567000000000000393,-3.838708216594738154
0.568000000000000282,-3.878686089329356435
0.569000000000000394,-3.917676458404496742
0.570000000000000284,-3.955675696596431923
0.571000000000000396,-3.992680715648264655
0.572000000000000286,-4.028688954535544653
0.573000000000000398,-4.063698367746801487
0.574000000000000288,-4.097707413586844538
0.575000000000000400,-4.130715042510842316
0.576000000000000290,-4.162720685496289263
0.577000000000000401,-4.193724242460278973
0.578000000000000291,-4.223726070728597293
0.579000000000000403,-4.252726973563332180
0.580000000000000293,-4.280728188754983066
0.581000000000000405,-4.307731377285208829
0.582000000000000295,-4.333738612065497264
0.583000000000000407,-4.358752366757460806
0.584000000000000297,-4.382775504679396583
0.585000000000000409,-4.405811267804331521
0.586000000000000298,-4.427863265853698493
0.587000000000000410,-4.448935465491237196
0.588000000000000300,-4.469032179620926470
0.589000000000000412,-4.488158056792936002
0.590000000000000302,-4.506318070721012425
0.591000000000000414,-4.523517509914789514
0.592000000000000304,-4.539761967430072431
0.593000000000000416,-4.555057330739997745
0.594000000000000306,-4.569409771729878500
0.595000000000000417,-4.582825736818203488
0.596000000000000307,-4.595311937206069786
0.597000000000000419,-4.606875339257278767
0.598000000000000309,-4.617523155011038938
0.599000000000000421,-4.627262832828974659
0.600000000000000311,-4.636102048178197599
0.601000000000000423,-4.644048694551822898
0.602000000000000313,-4.651110874528169070
0.603000000000000425,-4.657296890969974790
0.604000000000000314,-4.662615238364422154
0.605000000000000426,-4.667074594304983393
0.606000000000000316,-4.670683811115743822
0.607000000000000428,-4.673451907618774825
0.608000000000000318,-4.675388061045163468
0.609000000000000430,-4.676501599089837313
0.610000000000000320,-4.676801992110594774
0.611000000000000432,-4.676298845471363208
0.612000000000000322,-4.675001892029738926
0.613000000000000433,-4.672920984768694552
0.614000000000000323,-4.670066089572299184
0.615000000000000435,-4.666447278145146704
0.616000000000000325,-4.662074721075066819
0.617000000000000437,-4.656958681038799064
0.618000000000000327,-4.651109506149941453
0.619000000000000439,-4.644537623448615093
0.620000000000000329,-4.637253532532193745
0.621000000000000441,-4.629267799326226118
0.622000000000000330,-4.620591049994834165
0.623000000000000442,-4.611233964989602363
0.624000000000000332,-4.601207273236024520
0.625000000000000444,-4.590521746456514229
0.626000000000000334,-4.579188193628885628
0.627000000000000446,-4.567217455579158703
0.628000000000000336,-4.554620399707578038
0.629000000000000448,-4.541407914846566030
0.630000000000000338,-4.527590906249376879
0.631000000000000449,-4.513180290708132425
0.632000000000000339,-4.498186991799966172
0.633000000000000451,-4.482621935259752277
0.634000000000000341,-4.466496044478196481
0.635000000000000453,-4.449820236123716022
0.636000000000000343,-4.432605415886672340
0.637000000000000455,-4.414862474344524834
0.638000000000000345,-4.396602282946287410
0.639000000000000457,-4.377835690114814327
0.640000000000000346,-4.358573517465375247
0.641000000000000458,-4.338826556138850599
0.642000000000000348,-4.318605563248090640
0.643000000000000460,-4.297921258435652980
0.644000000000000350,-4.276784320541524131
0.645000000000000462,-4.255205384378927036
0.646000000000000352,-4.233195037616850342
0.647000000000000464,-4.210763817767391615
0.648000000000000353,-4.187922209276516483
0.649000000000000465,-4.164680640716281523
0.650000000000000355,-4.141049482077195698
0.651000000000000467,-4.117039042158685547
0.652000000000000357,-4.092659566056394027
0.653000000000000469,-4.067921232744182269
0.654000000000000359,-4.042834152749707144
0.655000000000000471,-4.017408365921392388
0.656000000000000361,-3.991653839285511651
0.657000000000000473,-3.965580464991493415
0.658000000000000362,-3.939198058343963194
0.659000000000000474,-3.912516355919727573
0.660000000000000364,-3.885545013768220368
0.661000000000000476,-3.858293605693596362
