# AuFCC100-Ablate50_METHANAL-AC
# h[nm],U(h)[kJ/mol]
0.200000000000000011,99.119959976692257442
0.201000000000000012,94.307003027463551348
0.202000000000000013,91.300951800211038289
0.203000000000000014,89.073871485753045363
0.204000000000000015,87.075907291631125418
0.205000000000000016,85.049567183042356078
0.206000000000000016,82.906580698488866688
0.207000000000000017,80.648480236954767975
0.208000000000000018,78.317254619857919806
0.209000000000000019,75.966287244745643648
0.210000000000000020,73.644640346469060432
0.211000000000000021,71.389833551729580563
0.212000000000000022,69.225780491584103515
0.213000000000000023,67.163637385153421633
0.214000000000000024,65.204092660131237835
0.215000000000000024,63.340170221997439626
0.216000000000000025,61.559993610176888978
0.217000000000000026,59.849210868837303678
0.218000000000000027,58.192945373999599212
0.219000000000000028,56.577241847818903864
0.220000000000000029,54.990038230234077332
0.221000000000000030,53.421726678377524422
0.222000000000000031,51.865380577956216257
0.223000000000000032,50.316726066875460788
0.224000000000000032,48.773931067107724857
0.225000000000000033,47.237275530514750699
0.226000000000000034,45.708755745623406597
0.227000000000000035,44.191664544417946558
0.228000000000000036,42.690178947810053955
0.229000000000000037,41.208977663584981599
0.230000000000000038,39.752903107165181495
0.231000000000000039,38.326676288546124738
0.232000000000000040,36.934667927509245544
0.233000000000000040,35.580725392673421936
0.234000000000000041,34.268052347939033098
0.235000000000000042,32.999136163832361035
0.236000000000000043,31.775717047410466876
0.237000000000000044,30.598792311693166823
0.238000000000000045,29.468649109916164264
0.239000000000000046,28.384919185708202605
0.240000000000000047,27.346649640664981717
0.241000000000000048,26.352384316416429755
0.242000000000000048,25.400251065869149159
0.243000000000000049,24.488050898674579514
0.244000000000000050,23.613345692103962392
0.245000000000000051,22.773541833576405935
0.246000000000000052,21.965967786692715435
0.247000000000000053,21.187944137151081492
0.248000000000000054,20.436845172102358958
0.249000000000000055,19.710151474205662936
0.250000000000000056,19.005493370810555120
0.251000000000000056,18.320685372484426523
0.252000000000000057,17.653751968194114852
0.253000000000000058,17.002945322464533717
0.254000000000000059,16.366755548897764072
0.255000000000000060,15.743914320838872101
0.256000000000000061,15.133392629919791617
0.257000000000000062,14.534393522633433093
0.258000000000000063,13.946340639518577831
0.259000000000000064,13.368863356032013812
0.260000000000000064,12.801779283285195987
0.261000000000000065,12.245074834534742436
0.262000000000000066,11.698884503110921429
0.263000000000000067,11.163469432318375851
0.264000000000000068,10.639195790231713801
0.265000000000000069,10.126513394288087611
0.266000000000000070,9.625934963798439270
0.267000000000000071,9.138016314251384387
0.268000000000000071,8.663337746553064989
0.269000000000000072,8.202486827838553651
0.270000000000000073,7.756042708686331721
0.271000000000000074,7.324562074747032803
0.272000000000000075,6.908566789080251347
0.273000000000000076,6.508533244867815704
0.274000000000000077,6.124883416518251522
0.275000000000000078,5.757977570297159176
0.276000000000000079,5.408108573249885254
0.277000000000000079,5.075497721020529873
0.278000000000000080,4.760291990883340318
0.279000000000000081,4.462562615535473398
0.280000000000000082,4.182304865600352528
0.281000000000000083,3.919438924002046853
0.282000000000000084,3.673811733048469197
0.283000000000000085,3.445199694872255414
0.284000000000000086,3.233312107509059619
0.285000000000000087,3.037795222048747856
0.286000000000000087,2.858236810704230635
0.287000000000000088,2.694171141055620389
0.288000000000000089,2.545084257918978299
0.289000000000000090,2.410419481055548374
0.290000000000000091,2.289583034100890924
0.291000000000000092,2.181949727493610602
0.292000000000000093,2.086868625685488698
0.293000000000000094,2.003668636399031477
0.294000000000000095,1.931663967066455045
0.295000000000000095,1.870159400752430257
0.296000000000000096,1.818455350763921619
0.297000000000000097,1.775852659730092098
0.298000000000000098,1.741657115152806856
0.299000000000000099,1.715183659251528381
0.300000000000000100,1.695760276336508054
0.301000000000000101,1.682731545927445893
0.302000000000000102,1.675461854386167460
0.303000000000000103,1.673338261953234207
0.304000000000000103,1.675773025775924907
0.305000000000000104,1.682205782798647409
0.306000000000000105,1.692105399272284760
0.307000000000000106,1.704971496142626775
0.308000000000000107,1.720335661719030629
0.309000000000000108,1.737762364824548822
0.310000000000000109,1.756849583109521662
0.311000000000000110,1.777229162394732498
0.312000000000000111,1.798566923821256935
0.313000000000000111,1.820562536244668239
0.314000000000000112,1.842949171744079795
0.315000000000000113,1.865492962344416750
0.316000000000000114,1.887992276093777289
0.317000000000000115,1.910276830518693458
0.318000000000000116,1.932206661217386712
0.319000000000000117,1.953670962963601099
0.320000000000000118,1.974586820199287329
0.321000000000000119,1.994897843209246791
0.322000000000000119,2.014572725610201953
0.323000000000000120,2.033603738065297151
0.324000000000000121,2.052005172364750774
0.325000000000000122,2.069811749207012941
0.326000000000000123,2.087077002182741392
0.327000000000000124,2.103871649615770334
0.328000000000000125,2.120281965059536589
0.329000000000000126,2.136408156392693325
0.330000000000000127,2.152362762609556501
0.331000000000000127,2.168269076566077480
0.332000000000000128,2.184259601125659422
0.333000000000000129,2.200474545354930367
0.334000000000000130,2.217060366651988357
0.335000000000000131,2.234168363951005709
0.336000000000000132,2.251953326440687242
0.337000000000000133,2.270572241560869120
0.338000000000000134,2.290183065404060692
0.339000000000000135,2.310943558046629320
0.340000000000000135,2.333010185769901490
0.341000000000000136,2.356537091603210676
0.342000000000000137,2.381675135130198573
0.343000000000000138,2.408571002045364562
0.344000000000000139,2.437366383529792735
0.345000000000000140,2.468197225132043204
0.346000000000000141,2.501193044492052930
0.347000000000000142,2.536476316930821095
0.348000000000000143,2.574161927645699510
0.349000000000000143,2.614356688999484035
0.350000000000000144,2.657158921168769616
0.351000000000000145,2.702658094222914364
0.352000000000000146,2.750934529537248263
0.353000000000000147,2.802059158301666741
0.354000000000000148,2.856093334766809821
0.355000000000000149,2.913088701773582478
0.356000000000000150,2.973087106035567473
0.357000000000000151,3.036120560587265427
0.358000000000000151,3.102211251772194700
0.359000000000000152,3.171371588122251950
0.360000000000000153,3.243604288472334840
0.361000000000000154,3.318902506660376783
0.362000000000000155,3.397249990181792523
0.363000000000000156,3.478621270197169046
0.364000000000000157,3.562981880332285467
0.365000000000000158,3.650288601758396201
0.366000000000000159,3.740489732097929565
0.367000000000000159,3.833525375764774701
0.368000000000000160,3.929327753418068170
0.369000000000000161,4.027821528283963559
0.370000000000000162,4.128924147179201753
0.371000000000000163,4.232546194153214536
0.372000000000000164,4.338591754751961460
0.373000000000000165,4.446958788994228584
0.374000000000000166,4.557539511241495589
0.375000000000000167,4.670220775232797550
0.376000000000000167,4.784884462647618797
0.377000000000000168,4.901407873651200120
0.378000000000000169,5.019664117967579386
0.379000000000000170,5.139522505116027595
0.380000000000000171,5.260848932535840738
0.381000000000000172,5.383506270412026673
0.382000000000000173,5.507354742100806888
0.383000000000000174,5.632252299137857854
0.384000000000000175,5.758054989894594300
0.385000000000000175,5.884617321027318937
0.386000000000000176,6.011792610941744996
0.387000000000000177,6.139433334570059131
0.388000000000000178,6.267391458829732365
0.389000000000000179,6.395518768203032778
0.390000000000000180,6.523667179942187033
0.391000000000000181,6.651689048469575205
0.392000000000000182,6.779437458602254551
0.393000000000000183,6.906766507288954138
0.394000000000000183,7.033531573601922382
0.395000000000000184,7.159589576778418341
0.396000000000000185,7.284799222156095766
0.397000000000000186,7.409021234892401608
0.398000000000000187,7.532118581402175828
0.399000000000000188,7.653956678488484044
0.400000000000000189,7.774403590179486123
0.401000000000000190,7.893330212320473827
0.402000000000000191,8.010610445002390279
0.403000000000000191,8.126121352939513542
0.404000000000000192,8.239743313936592983
0.405000000000000193,8.351360155611873282
0.406000000000000194,8.460859280566015883
0.407000000000000195,8.568131780208350534
0.408000000000000196,8.673072537471384180
0.409000000000000197,8.775580318661974744
0.410000000000000198,8.875557854712969430
0.411000000000000199,8.972911912113108457
0.412000000000000199,9.067553353804868266
0.413000000000000200,9.159397190350357931
0.414000000000000201,9.248362621674306894
0.415000000000000202,9.334373069700664161
0.416000000000000203,9.417356202205022342
0.417000000000000204,9.497243948210401854
0.418000000000000205,9.573972505256758581
0.419000000000000206,9.647482338877495067
0.420000000000000207,9.717718174617349547
0.421000000000000207,9.784628982926133034
0.422000000000000208,9.848167957262580430
0.423000000000000209,9.908292485740719968
0.424000000000000210,9.964964116649071002
0.425000000000000211,10.018148518169860850
0.426000000000000212,10.067815432621856075
0.427000000000000213,10.113938625546044392
0.428000000000000214,10.156495829948422482
0.429000000000000214,10.195468686009043324
0.430000000000000215,10.230842676560333970
0.431000000000000216,10.262607058631648016
0.432000000000000217,10.290754791350360975
0.433000000000000218,10.315282460482857019
0.434000000000000219,10.336190199891557739
0.435000000000000220,10.353481610176739736
0.436000000000000221,10.367163674764174885
0.437000000000000222,10.377246673691846723
0.438000000000000222,10.383744095340999181
0.439000000000000223,10.386672546348702184
0.440000000000000224,10.386051659931073488
0.441000000000000225,10.381904002837964995
0.442000000000000226,10.374254981151651123
0.443000000000000227,10.363132745134137735
0.444000000000000228,10.348568093319039818
0.445000000000000229,10.330594376036227544
0.446000000000000230,10.309247398548901486
0.447000000000000230,10.284565323975204620
0.448000000000000231,10.256588576157943393
0.449000000000000232,10.225359742638556071
0.450000000000000233,10.190923477883613302
0.451000000000000234,10.153326406904239931
0.452000000000000235,10.112617029401807400
0.453000000000000236,10.068845624565529562
0.454000000000000237,10.022064156640484001
0.455000000000000238,9.972326181377656695
0.456000000000000238,9.919686753470610796
0.457000000000000239,9.864202335076706518
0.458000000000000240,9.805930705514294132
0.459000000000000241,9.744930872220923135
0.460000000000000242,9.681262983051468041
0.461000000000000243,9.614988239989022745
0.462000000000000244,9.546168814335757702
0.463000000000000245,9.474867763445169899
0.464000000000000246,9.401148949051796322
0.465000000000000246,9.325076957249311960
0.466000000000000247,9.246717020162666500
0.467000000000000248,9.166134939355341515
0.468000000000000249,9.083397011007951605
0.469000000000000250,8.998569952899865498
0.470000000000000251,8.911720833221504989
0.471000000000000252,8.822917001240540458
0.472000000000000253,8.732226019841373699
0.473000000000000254,8.639715599953655456
0.474000000000000254,8.545453536881797874
0.475000000000000255,8.449507648544036797
0.476000000000000256,8.351945715626497346
0.477000000000000257,8.252835423654490299
0.478000000000000258,8.152244306980152899
0.479000000000000259,8.050239694683289926
0.480000000000000260,7.946888658378992609
0.481000000000000261,7.842257961923550624
0.482000000000000262,7.736414013007729018
0.483000000000000262,7.629422816624229498
0.484000000000000263,7.521349930394097605
0.485000000000000264,7.412260421735010318
0.486000000000000265,7.302218826852310940
0.487000000000000266,7.191289111532347178
0.488000000000000267,7.079534633715785397
0.489000000000000268,6.967018107827217754
0.490000000000000269,6.853801570836168366
0.491000000000000270,6.739946350023190647
0.492000000000000270,6.625513032423713256
0.493000000000000271,6.510561435921239593
0.494000000000000272,6.395150581960729497
0.495000000000000273,6.279338669851643573
0.496000000000000274,6.163183052630240688
0.497000000000000275,6.046740214449161321
0.498000000000000276,5.930065749462237079
0.499000000000000277,5.813214342172037696
0.500000000000000222,5.696239749206697844
0.501000000000000334,5.579194782492892912
0.502000000000000224,5.462131293791043340
0.503000000000000336,5.345100160558585500
0.504000000000000226,5.228151273107551233
0.505000000000000338,5.111333523021534653
0.506000000000000227,4.994694792798435756
0.507000000000000339,4.878281946683786785
0.508000000000000229,4.762140822661183215
0.509000000000000341,4.646316225564649294
0.510000000000000231,4.530851921279794858
0.511000000000000343,4.415790631998800286
0.512000000000000233,4.301174032496461130
0.513000000000000345,4.187042747392839992
0.514000000000000234,4.073436349370179066
0.515000000000000346,3.960393358310287937
0.516000000000000236,3.847951241320678228
0.517000000000000348,3.736146413616341810
0.518000000000000238,3.625014240226189344
0.519000000000000350,3.514589038491850115
0.520000000000000240,3.404904081328709253
0.521000000000000352,3.295991601217799882
0.522000000000000242,3.187882794899259853
0.523000000000000353,3.080607828736929399
0.524000000000000243,2.974195844725875837
0.525000000000000355,2.868674967113412411
0.526000000000000245,2.764072309606338429
0.527000000000000357,2.660413983136105553
0.528000000000000247,2.557725104155701867
0.529000000000000359,2.456029803441115433
0.530000000000000249,2.355351235372095342
0.531000000000000361,2.255711587666400231
0.532000000000000250,2.157132091543314090
0.533000000000000362,2.059633032291601662
0.534000000000000252,1.963233760219166957
0.535000000000000364,1.867952701960347683
0.536000000000000254,1.773807372119507564
0.537000000000000366,1.680814385228028174
0.538000000000000256,1.588989467994258664
0.539000000000000368,1.498347471824975630
0.540000000000000258,1.408902385598884699
0.541000000000000369,1.320667348671807018
0.542000000000000259,1.233654664095386266
0.543000000000000371,1.147875812030011433
0.544000000000000261,1.063341463334684267
0.545000000000000373,0.980061493316034871
0.546000000000000263,0.898044995620054798
0.547000000000000375,0.817300296249726776
0.548000000000000265,0.737834967693510091
0.549000000000000377,0.659655843148687415
0.550000000000000266,0.582769030825561418
0.551000000000000378,0.507179928317716966
0.552000000000000268,0.432893237025129274
0.553000000000000380,0.359912976616505009
0.554000000000000270,0.288242499518532369
0.555000000000000382,0.217884505419398466
0.556000000000000272,0.148841055775200515
0.557000000000000384,0.081113588307615364
0.558000000000000274,0.014702931482211867
0.559000000000000385,-0.050390681043197508
0.560000000000000275,-0.114167596009926917
0.561000000000000387,-0.176628726199324543
0.562000000000000277,-0.237775536132013798
0.563000000000000389,-0.297610027834601776
0.564000000000000279,-0.356134726681726577
0.565000000000000391,-0.413352667321831901
0.566000000000000281,-0.469267379693799558
0.567000000000000393,-0.523882875142012261
0.568000000000000282,-0.577203632636309583
0.569000000000000394,-0.629234585103672139
0.570000000000000284,-0.679981105877321967
0.571000000000000396,-0.729448995269542322
0.572000000000000286,-0.777644467273174156
0.573000000000000398,-0.824574136397339785
0.574000000000000288,-0.870245004641927111
0.575000000000000400,-0.914664448615632786
0.576000000000000290,-0.957840206801530369
0.577000000000000401,-0.999780366974453605
0.578000000000000291,-1.040493353773519924
0.579000000000000403,-1.079987916433573281
0.580000000000000293,-1.118273116678379031
0.581000000000000405,-1.155358316778807071
0.582000000000000295,-1.191253167778338007
0.583000000000000407,-1.225967597888702576
0.584000000000000297,-1.259511801057456193
0.585000000000000409,-1.291896225709901369
0.586000000000000298,-1.323131563666761767
0.587000000000000410,-1.353228739239500156
0.588000000000000300,-1.382198898504386486
0.589000000000000412,-1.410053398756776044
0.590000000000000302,-1.436803798146346178
0.591000000000000414,-1.462461845494348323
0.592000000000000304,-1.487039470293395338
0.593000000000000416,-1.510548772890329072
0.594000000000000306,-1.533002014852509642
0.595000000000000417,-1.554411609517781123
0.596000000000000307,-1.574790112728023050
0.597000000000000419,-1.594150213746344136
0.598000000000000309,-1.612504726357637086
0.599000000000000421,-1.629866580152105282
0.600000000000000311,-1.646248811991381844
0.601000000000000423,-1.661664557656620023
0.602000000000000313,-1.676127043677761774
0.603000000000000425,-1.689649579343431851
0.604000000000000314,-1.702245548890238380
0.605000000000000426,-1.713928403870776052
0.606000000000000316,-1.724711655699032731
0.607000000000000428,-1.734608868372147672
0.608000000000000318,-1.743633651367250792
0.609000000000000430,-1.751799652711987232
0.610000000000000320,-1.759120552227402268
0.611000000000000432,-1.765610054941661788
0.612000000000000322,-1.771281884673105766
0.613000000000000433,-1.776149777780979822
0.614000000000000323,-1.780227477082286125
0.615000000000000435,-1.783528725932936210
0.616000000000000325,-1.786067262471479733
0.617000000000000437,-1.787856814023675911
0.618000000000000327,-1.788911091665928099
0.619000000000000439,-1.789243784945786064
0.620000000000000329,-1.788868556757566619
0.621000000000000441,-1.787799038371089111
0.622000000000000330,-1.786048824611588870
0.623000000000000442,-1.783631469188758256
0.624000000000000332,-1.780560480172840299
0.625000000000000444,-1.776849315615754765
0.626000000000000334,-1.772511379315142577
0.627000000000000446,-1.767560016719173621
0.628000000000000336,-1.762008510970076269
0.629000000000000448,-1.755870079084170809
0.630000000000000338,-1.749157868266279170
0.631000000000000449,-1.741884952356360428
0.632000000000000339,-1.734064328406200728
0.633000000000000451,-1.725708913383928733
0.634000000000000341,-1.716831541004253836
0.635000000000000453,-1.707444958682194480
0.636000000000000343,-1.697561824608122993
0.637000000000000455,-1.687194704941937573
0.638000000000000345,-1.676356071124203151
0.639000000000000457,-1.665058297302032031
0.640000000000000346,-1.653313657867626629
0.641000000000000458,-1.641134325107190595
0.642000000000000348,-1.628532366958195698
0.643000000000000460,-1.615519744872703667
0.644000000000000350,-1.602108311784774086
0.645000000000000462,-1.588309810179631132
0.646000000000000352,-1.574135870262696413
0.647000000000000464,-1.559598008226181109
0.648000000000000353,-1.544707624611339813
0.649000000000000465,-1.529476002764099007
0.650000000000000355,-1.513914307382271174
0.651000000000000467,-1.498033583152016623
0.652000000000000357,-1.481844753471853959
0.653000000000000469,-1.465358619261854844
0.654000000000000359,-1.448585857856423020
0.655000000000000471,-1.431537021978364077
0.656000000000000361,-1.414222538792525352
0.657000000000000473,-1.396652709036916296
0.658000000000000362,-1.378837706229568694
0.659000000000000474,-1.360787575949111927
0.660000000000000364,-1.342512235187305336
0.661000000000000476,-1.324021471771596570
0.662000000000000366,-1.305324943856024600
0.663000000000000478,-1.286432179478486537
0.664000000000000368,-1.267352576182818158
0.665000000000000480,-1.248095400703748137
0.666000000000000369,-1.228669788713141031
0.667000000000000481,-1.209084744625755103
0.668000000000000371,-1.189349141462880732
0.669000000000000483,-1.169471720772154333
