# AuFCC100-Ablate50_BSAI8
# h[nm],U(h)[kJ/mol]
0.149999999999999994,159.201562942024054337
0.150999999999999995,154.061530075919307592
0.151999999999999996,150.287426941177585604
0.152999999999999997,146.832427278376712820
0.153999999999999998,143.317653523188198506
0.154999999999999999,139.675755000909560977
0.156000000000000000,135.959370895910865329
0.157000000000000001,132.246365268040165120
0.158000000000000002,128.599449380781464924
0.159000000000000002,125.054479167517371252
0.160000000000000003,121.622347551597911774
0.161000000000000004,118.296036521728723301
0.162000000000000005,115.058441458203148500
0.163000000000000006,111.888961620370622541
0.164000000000000007,108.768184136809708207
0.165000000000000008,105.680679612159408975
0.166000000000000009,102.616237394378828185
0.167000000000000010,99.569963618850039211
0.168000000000000010,96.541648082078310722
0.169000000000000011,93.534738331663504596
0.170000000000000012,90.555176273647234098
0.171000000000000013,87.610272790352297534
0.172000000000000014,84.707728018942219705
0.173000000000000015,81.854851925474534369
0.174000000000000016,79.058001307710057404
0.175000000000000017,76.322223515959478846
0.176000000000000018,73.651081565002755269
0.177000000000000018,71.046627462766608119
0.178000000000000019,68.509488293221991739
0.179000000000000020,66.039031017915448274
0.180000000000000021,63.633575647965400890
0.181000000000000022,61.290631294035321730
0.182000000000000023,59.007134846012391449
0.183000000000000024,56.779677142086143249
0.184000000000000025,54.604706132789942785
0.185000000000000026,52.478700552446959193
0.186000000000000026,50.398310908283306730
0.187000000000000027,48.360467189037684932
0.188000000000000028,46.362454629457708677
0.189000000000000029,44.401960220536764723
0.190000000000000030,42.477093515924664757
0.191000000000000031,40.586385743254638214
0.192000000000000032,38.728771371655369649
0.193000000000000033,36.903556191892114668
0.194000000000000034,35.110375701744203525
0.195000000000000034,33.349147213873138185
0.196000000000000035,31.620018663422779781
0.197000000000000036,29.923316624840555988
0.198000000000000037,28.259495579975201451
0.199000000000000038,26.629090032788628406
0.200000000000000039,25.032670653981838882
0.201000000000000040,23.470805270193057623
0.202000000000000041,21.944025191735715197
0.203000000000000042,20.452797101457001361
0.204000000000000042,18.997500504184721137
0.205000000000000043,17.578410558692258547
0.206000000000000044,16.195685978318472564
0.207000000000000045,14.849361587860418155
0.208000000000000046,13.539345058320723325
0.209000000000000047,12.265417302716224768
0.210000000000000048,11.027236000773008584
0.211000000000000049,9.824341723571043516
0.212000000000000050,8.656166147057016147
0.213000000000000050,7.522041872255821104
0.214000000000000051,6.421213406847184224
0.215000000000000052,5.352848904865103563
0.216000000000000053,4.316052306371387814
0.217000000000000054,3.309875565202509140
0.218000000000000055,2.333330698806933778
0.219000000000000056,1.385401438623675485
0.220000000000000057,0.465054301523515234
0.221000000000000058,-0.428751058066827173
0.222000000000000058,-1.297052320041081730
0.223000000000000059,-2.140875867100396679
0.224000000000000060,-2.961229094118375649
0.225000000000000061,-3.759093678014405526
0.226000000000000062,-4.535419806726428860
0.227000000000000063,-5.291121348260496404
0.228000000000000064,-6.027071926379695022
0.229000000000000065,-6.744101858029294405
0.230000000000000066,-7.442995898797806653
0.231000000000000066,-8.124491736309861878
0.232000000000000067,-8.789279167148535521
0.233000000000000068,-9.437999890441060913
0.234000000000000069,-10.071247850347734953
0.235000000000000070,-10.689570060122255413
0.236000000000000071,-11.293467841932832485
0.237000000000000072,-11.883398419039572502
0.238000000000000073,-12.459776800021749921
0.239000000000000073,-13.022977898371440375
0.240000000000000074,-13.573338834770481753
0.241000000000000075,-14.111161373611087910
0.242000000000000076,-14.636714449698683183
0.243000000000000077,-15.150236745494009227
0.244000000000000078,-15.651939283628440336
0.245000000000000079,-16.142008003700262009
0.246000000000000080,-16.620606296475649799
0.247000000000000081,-17.087877472539361179
0.248000000000000081,-17.543947146132541803
0.249000000000000082,-17.988925518359703659
0.250000000000000111,-18.422909547130483787
0.251000000000000112,-18.845984994113781141
0.252000000000000113,-19.258228341626345781
0.253000000000000114,-19.659708574748869125
0.254000000000000115,-20.050488826077391025
0.255000000000000115,-20.430627882375539173
0.256000000000000116,-20.800181554012812768
0.257000000000000117,-21.159203909465698956
0.258000000000000118,-21.507748378336181361
0.259000000000000119,-21.845868727324152303
0.260000000000000120,-22.173619914390052088
0.261000000000000121,-22.491058826976580320
0.262000000000000122,-22.798244910643429506
0.263000000000000123,-23.095240694816261851
0.264000000000000123,-23.382112222580758498
0.265000000000000124,-23.658929391574769596
0.266000000000000125,-23.925766213061709919
0.267000000000000126,-24.182700996218198242
0.268000000000000127,-24.429816464551176836
0.269000000000000128,-24.667199811182886293
0.270000000000000129,-24.894942699519084783
0.271000000000000130,-25.113141215553770991
0.272000000000000131,-25.321895777770656366
0.273000000000000131,-25.521311010286304111
0.274000000000000132,-25.711495584547144233
0.275000000000000133,-25.892562034550309136
0.276000000000000134,-26.064626550208998879
0.277000000000000135,-26.227808753133341924
0.278000000000000136,-26.382231458750702302
0.279000000000000137,-26.528020428347883097
0.280000000000000138,-26.665304114284225534
0.281000000000000139,-26.794213401303188959
0.282000000000000139,-26.914881346559731412
0.283000000000000140,-27.027442920685547989
0.284000000000000141,-27.132034751933378658
0.285000000000000142,-27.228794875177129597
0.286000000000000143,-27.317862487295872853
0.287000000000000144,-27.399377710237978079
0.288000000000000145,-27.473481362846836618
0.289000000000000146,-27.540314742330263442
0.290000000000000147,-27.600019416074083267
0.291000000000000147,-27.652737024333127636
0.292000000000000148,-27.698609094182597090
0.293000000000000149,-27.737776864975664637
0.294000000000000150,-27.770381125431470082
0.295000000000000151,-27.796562062369112311
0.296000000000000152,-27.816459121006960942
0.297000000000000153,-27.830210876663251440
0.298000000000000154,-27.837954917620798767
0.299000000000000155,-27.839827738856978812
0.300000000000000155,-27.835964646287500557
0.301000000000000156,-27.826499671129010238
0.302000000000000157,-27.811565493950705985
0.303000000000000158,-27.791293377957174471
0.304000000000000159,-27.765813111024222337
0.305000000000000160,-27.735252955994518231
0.306000000000000161,-27.699739608731238860
0.307000000000000162,-27.659398163423851713
0.308000000000000163,-27.614352084640149343
0.309000000000000163,-27.564723185623495993
0.310000000000000164,-27.510631612341590824
0.311000000000000165,-27.452195832803738540
0.312000000000000166,-27.389532631176667365
0.313000000000000167,-27.322757106244409897
0.314000000000000168,-27.251982673774289623
0.315000000000000169,-27.177321072369824861
0.316000000000000170,-27.098882372410741937
0.317000000000000171,-27.016774987700465260
0.318000000000000171,-26.931105689462526698
0.319000000000000172,-26.841979622348503653
0.320000000000000173,-26.749500322141745556
0.321000000000000174,-26.653769734862102325
0.322000000000000175,-26.554888236998628770
0.323000000000000176,-26.452954656617936990
0.324000000000000177,-26.348066295116417734
0.325000000000000178,-26.240318949404404236
0.326000000000000179,-26.129806934330321866
0.327000000000000179,-26.016623105170687325
0.328000000000000180,-25.900858880030511955
0.329000000000000181,-25.782604262015990315
0.330000000000000182,-25.661947861056631837
0.331000000000000183,-25.538976915271131674
0.332000000000000184,-25.413777311784674140
0.333000000000000185,-25.286433606919803907
0.334000000000000186,-25.157029045695917802
0.335000000000000187,-25.025645580584313876
0.336000000000000187,-24.892363889477309158
0.337000000000000188,-24.757263392839909955
0.338000000000000189,-24.620422270022618960
0.339000000000000190,-24.481917474722411754
0.340000000000000191,-24.341824749586880472
0.341000000000000192,-24.200218639964301559
0.342000000000000193,-24.057172506808282009
0.343000000000000194,-23.912758538752207471
0.344000000000000195,-23.767047763373135183
0.345000000000000195,-23.620110057670434145
0.346000000000000196,-23.472014157787292277
0.347000000000000197,-23.322827668007722224
0.348000000000000198,-23.172617069063981887
0.349000000000000199,-23.021447725791908567
0.350000000000000200,-22.869383894174063698
0.351000000000000201,-22.716488727811373849
0.352000000000000202,-22.562824283865928976
0.353000000000000203,-22.408451528517861817
0.354000000000000203,-22.253430341980060092
0.355000000000000204,-22.097819523114203832
0.356000000000000205,-21.941676793692060699
0.357000000000000206,-21.785058802345258044
0.358000000000000207,-21.628021128246039950
0.359000000000000208,-21.470618284561133748
0.360000000000000209,-21.312903721719603567
0.361000000000000210,-21.154929830534399571
0.362000000000000210,-20.996747945216196030
0.363000000000000211,-20.838408346316576569
0.364000000000000212,-20.679960263636267825
0.365000000000000213,-20.521451879132378338
0.366000000000000214,-20.362930329857100276
0.367000000000000215,-20.204441710958366940
0.368000000000000216,-20.046031078771697764
0.369000000000000217,-19.887742454029940120
0.370000000000000218,-19.729618825216675759
0.371000000000000218,-19.571702152086409399
0.372000000000000219,-19.414033369373463245
0.373000000000000220,-19.256652390709472655
0.374000000000000221,-19.099598112767488090
0.375000000000000222,-18.942908419649089780
0.376000000000000223,-18.786620187529244674
0.377000000000000224,-18.630769289571670555
0.378000000000000225,-18.475390601126143508
0.379000000000000226,-18.320518005217255819
0.380000000000000226,-18.166184398333125927
0.381000000000000227,-18.012421696520142689
0.382000000000000228,-17.859260841789456720
0.383000000000000229,-17.706731808838764408
0.384000000000000230,-17.554863612091757830
0.385000000000000231,-17.403684313056800192
0.386000000000000232,-17.253221028004425364
0.387000000000000233,-17.103499935962855005
0.388000000000000234,-16.954546287028996687
0.389000000000000234,-16.806384410992077250
0.390000000000000235,-16.659037726265271573
0.391000000000000236,-16.512528749120669147
0.392000000000000237,-16.366879103221240399
0.393000000000000238,-16.222109529443564213
0.394000000000000239,-16.078239895983493568
0.395000000000000240,-15.935289208736957534
0.396000000000000241,-15.793275621947211462
0.397000000000000242,-15.652216449109213059
0.398000000000000242,-15.512128174121595947
0.399000000000000243,-15.373026462676071091
0.400000000000000244,-15.234926173873546418
0.401000000000000245,-15.097841372056510778
0.402000000000000246,-14.961785338846166127
0.403000000000000247,-14.826770585373072464
0.404000000000000248,-14.692808864689691717
0.405000000000000249,-14.559911184353129698
0.406000000000000250,-14.428087819166004024
0.407000000000000250,-14.297348324063705149
0.408000000000000251,-14.167701547135768791
0.409000000000000252,-14.039155642769514998
0.410000000000000253,-13.911718084903757386
0.411000000000000254,-13.785395680380684524
0.412000000000000255,-13.660194582383883954
0.413000000000000256,-13.536120303950800903
0.414000000000000257,-13.413177731547690996
0.415000000000000258,-13.291371138695717846
0.416000000000000258,-13.170704199636636744
0.417000000000000259,-13.051180003026782828
0.418000000000000260,-12.932801065648490635
0.419000000000000261,-12.815569346127858807
0.420000000000000262,-12.699486258648494896
0.421000000000000263,-12.584552686650772202
0.422000000000000264,-12.470768996506432558
0.423000000000000265,-12.358135051158752660
0.424000000000000266,-12.246650223718779316
0.425000000000000266,-12.136313411008156748
0.426000000000000267,-12.027123047039728121
0.427000000000000268,-11.919077116427079233
0.428000000000000269,-11.812173167714705713
0.429000000000000270,-11.706408326620648452
0.430000000000000271,-11.601779309183836375
0.431000000000000272,-11.498282434808649199
0.432000000000000273,-11.395913639199495293
0.433000000000000274,-11.294668487178649130
0.434000000000000274,-11.194542185380635502
0.435000000000000275,-11.095529594817094221
0.436000000000000276,-10.997625243306142551
0.437000000000000277,-10.900823337760533249
0.438000000000000278,-10.805117776329435486
0.439000000000000279,-10.710502160388795545
0.440000000000000280,-10.616969806375465168
0.441000000000000281,-10.524513757460839614
0.442000000000000282,-10.433126795059823877
0.443000000000000282,-10.342801450171201338
0.444000000000000283,-10.253530014546070603
0.445000000000000284,-10.165304551680865330
0.446000000000000285,-10.078116907631967436
0.447000000000000286,-9.991958721649464081
0.448000000000000287,-9.906821436627071265
0.449000000000000288,-9.822696309366508061
0.450000000000000289,-9.739574420653969611
0.451000000000000290,-9.657446685147140997
0.452000000000000290,-9.576303861071224333
0.453000000000000291,-9.496136559722621939
0.454000000000000292,-9.416935254779355446
0.455000000000000293,-9.338690291417190537
0.456000000000000294,-9.261391895231010807
0.457000000000000295,-9.185030180960875867
0.458000000000000296,-9.109595161022541632
0.459000000000000297,-9.035076753842446351
0.460000000000000298,-8.961464791997149959
0.461000000000000298,-8.888749030157637065
0.462000000000000299,-8.816919152838886831
0.463000000000000300,-8.745964781955253287
0.464000000000000301,-8.675875484182551389
0.465000000000000302,-8.606640778127657043
0.466000000000000303,-8.538250141306672703
0.467000000000000304,-8.470693016932830943
0.468000000000000305,-8.403958820515541106
0.469000000000000306,-8.338036946271786931
0.470000000000000306,-8.272916773351663977
0.471000000000000307,-8.208587671879424619
0.472000000000000308,-8.145039008812053893
0.473000000000000309,-8.082260153616967813
0.474000000000000310,-8.020240483770871620
0.475000000000000311,-7.958969390081795048
0.476000000000000312,-7.898436281836415773
0.477000000000000313,-7.838630591774685463
0.478000000000000314,-7.779541780894152048
0.479000000000000314,-7.721159343086235083
0.480000000000000315,-7.663472809606683533
0.481000000000000316,-7.606471753382848533
0.482000000000000317,-7.550145793159961372
0.483000000000000318,-7.494484597489130984
0.484000000000000319,-7.439477888559451912
0.485000000000000320,-7.385115445876945905
0.486000000000000321,-7.331387109792771639
0.487000000000000322,-7.278282784883488787
0.488000000000000322,-7.225792443185906855
0.489000000000000323,-7.173906127289346735
0.490000000000000324,-7.122613953287880051
0.491000000000000325,-7.071906113595376908
0.492000000000000326,-7.021772879625916453
0.493000000000000327,-6.972204604342536527
0.494000000000000328,-6.923191724676807546
0.495000000000000329,-6.874724763822216644
0.496000000000000330,-6.826794333403836568
0.497000000000000330,-6.779391135527286671
0.498000000000000331,-6.732505964709481816
0.499000000000000332,-6.686129709694077050
0.500000000000000333,-6.640253355154219328
0.501000000000000334,-6.594867983285314317
0.502000000000000335,-6.549964775290531449
0.503000000000000336,-6.505535012761711755
0.504000000000000337,-6.461570078958315477
0.505000000000000338,-6.418061459987059791
0.506000000000000338,-6.375000745884841891
0.507000000000000339,-6.332379631607558679
0.508000000000000340,-6.290189917927367702
0.509000000000000341,-6.248423512240988131
0.510000000000000342,-6.207072429291456750
0.511000000000000343,-6.166128791805928877
0.512000000000000344,-6.125584831051900103
0.513000000000000345,-6.085432887314326855
0.514000000000000346,-6.045665410296058973
0.515000000000000346,-6.006274959443883787
0.516000000000000347,-5.967254204202539825
0.517000000000000348,-5.928595924199102640
0.518000000000000349,-5.890293009359791832
0.519000000000000350,-5.852338459961666572
0.520000000000000351,-5.814725386621243608
0.521000000000000352,-5.777447010222290125
0.522000000000000353,-5.740496661784866284
0.523000000000000353,-5.703867782277700194
0.524000000000000354,-5.667553922376043829
0.525000000000000355,-5.631548742166891053
0.526000000000000356,-5.595846010803622761
0.527000000000000357,-5.560439606112035804
0.528000000000000358,-5.525323514149565796
0.529000000000000359,-5.490491828719707534
0.530000000000000360,-5.455938750843324136
0.531000000000000361,-5.421658588188758010
0.532000000000000361,-5.387645754462415226
0.533000000000000362,-5.353894768761586320
0.534000000000000363,-5.320400254891195502
0.535000000000000364,-5.287156940646056569
0.536000000000000365,-5.254159657060336386
0.537000000000000366,-5.221403337625739383
0.538000000000000367,-5.188883017479914983
0.539000000000000368,-5.156593832566725766
0.540000000000000369,-5.124531018769641122
0.541000000000000369,-5.092689911019877336
0.542000000000000370,-5.061065942380538196
0.543000000000000371,-5.029654643108161238
0.544000000000000372,-4.998451639693037407
0.545000000000000373,-4.967452653879508517
0.546000000000000374,-4.936653501667551680
0.547000000000000375,-4.906050092296836418
0.548000000000000376,-4.875638427214519233
0.549000000000000377,-4.845414599027834335
0.550000000000000377,-4.815374790442615627
0.551000000000000378,-4.785515273188933882
0.552000000000000379,-4.755832406934798584
0.553000000000000380,-4.726322638189011549
0.554000000000000381,-4.696982499194138683
0.555000000000000382,-4.667808606810631922
0.556000000000000383,-4.638797661392915828
0.557000000000000384,-4.609946445658508196
0.558000000000000385,-4.581251823550894997
0.559000000000000385,-4.552710739097156178
0.560000000000000386,-4.524320215261034228
0.561000000000000387,-4.496077352792364756
0.562000000000000388,-4.467979329073537897
0.563000000000000389,-4.440023396963807656
0.564000000000000390,-4.412206883642132205
0.565000000000000391,-4.384527189449231699
0.566000000000000392,-4.356981786729571482
0.567000000000000393,-4.329568218673885305
0.568000000000000393,-4.302284098162845183
0.569000000000000394,-4.275127106612514716
0.570000000000000395,-4.248094992822155191
0.571000000000000396,-4.221185571824882743
0.572000000000000397,-4.194396723741794730
0.573000000000000398,-4.167726392639997890
0.574000000000000399,-4.141172585395084482
0.575000000000000400,-4.114733370558470327
0.576000000000000401,-4.088406877230085001
0.577000000000000401,-4.062191293936858294
0.578000000000000402,-4.036084867517343966
0.579000000000000403,-4.010085902012919590
0.580000000000000404,-3.984192757565971910
0.581000000000000405,-3.958403849325345725
0.582000000000000406,-3.932717646359443542
0.583000000000000407,-3.907132670577279754
0.584000000000000408,-3.881647495657836622
0.585000000000000409,-3.856260745987937444
0.586000000000000409,-3.830971095608972199
0.587000000000000410,-3.805777267172740785
0.588000000000000411,-3.780678030906583054
0.589000000000000412,-3.755672203588148683
0.590000000000000413,-3.730758647529875738
0.591000000000000414,-3.705936269573530062
0.592000000000000415,-3.681204020094901441
0.593000000000000416,-3.656560892018840825
0.594000000000000417,-3.632005919844837560
0.595000000000000417,-3.607538178683326269
0.596000000000000418,-3.583156783302701598
0.597000000000000419,-3.558860887187427213
0.598000000000000420,-3.534649681607098248
0.599000000000000421,-3.510522394696765414
0.600000000000000422,-3.486478290548503001
0.601000000000000423,-3.462516668314370438
0.602000000000000424,-3.438636861320812699
0.603000000000000425,-3.414838236194603915
0.604000000000000425,-3.391120192000347977
0.605000000000000426,-3.367482159389639129
0.606000000000000427,-3.343923599761944310
0.607000000000000428,-3.320444004437083318
