# AuFCC100-Ablate50_HID-AC
# h[nm],U(h)[kJ/mol]
0.149999999999999994,195.694520017703723624
0.150999999999999995,190.342365933086369978
0.151999999999999996,185.499365173575341714
0.152999999999999997,180.857298076301560741
0.153999999999999998,176.288494107906615227
0.154999999999999999,171.755657353764121353
0.156000000000000000,167.261206415934424285
0.157000000000000001,162.820517997477111294
0.158000000000000002,158.449147835944415874
0.159000000000000002,154.157845366778559537
0.160000000000000003,149.951610427760840594
0.161000000000000004,145.830595189501991626
0.162000000000000005,141.791628673058653476
0.163000000000000006,137.829735748023438191
0.164000000000000007,133.939372654769755400
0.165000000000000008,130.115296965775741000
0.166000000000000009,126.353090804214957643
0.167000000000000010,122.649400551315423513
0.168000000000000010,119.001968708853638645
0.169000000000000011,115.409529290307858673
0.170000000000000012,111.871626285671680989
0.171000000000000013,108.388400674603261109
0.172000000000000014,104.960377989611146177
0.173000000000000015,101.588276892226033965
0.174000000000000016,98.272850074455689651
0.175000000000000017,95.014762001031641603
0.176000000000000018,91.814503288240118195
0.177000000000000018,88.672338500685810914
0.178000000000000019,85.588282455497861179
0.179000000000000020,82.562099404836914118
0.180000000000000021,79.593319425568026304
0.181000000000000022,76.681266741043273782
0.182000000000000023,73.825095350702028441
0.183000000000000024,71.023828113682242247
0.184000000000000025,68.276396228174505154
0.185000000000000026,65.581676806272142244
0.186000000000000026,62.938526926635212533
0.187000000000000027,60.345813134669256783
0.188000000000000028,57.802435845328865582
0.189000000000000029,55.307348489046908924
0.190000000000000030,52.859571534142290261
0.191000000000000031,50.458201729973445993
0.192000000000000032,48.102417056091098857
0.193000000000000033,45.791477945900702196
0.194000000000000034,43.524725390520160317
0.195000000000000034,41.301576530181804969
0.196000000000000035,39.121518315978633495
0.197000000000000036,36.984099781893981174
0.198000000000000037,34.888923412418208159
0.199000000000000038,32.835636029908172873
0.200000000000000039,30.823919562293287555
0.201000000000000040,28.853481988875870456
0.202000000000000041,26.924048702060368043
0.203000000000000042,25.035354467413494461
0.204000000000000042,23.187136114459260483
0.205000000000000043,21.379126046560308794
0.206000000000000044,19.611046620275129015
0.207000000000000045,17.882605412608221229
0.208000000000000046,16.193491368289279819
0.209000000000000047,14.543371798207303414
0.210000000000000048,12.931890183890226709
0.211000000000000049,11.358664730925060127
0.212000000000000050,9.823287605905159481
0.213000000000000050,8.325324786346335770
0.214000000000000051,6.864316450510645318
0.215000000000000052,5.439777833754468439
0.216000000000000053,4.051200479441860125
0.217000000000000054,2.698053815252570153
0.218000000000000055,1.379786989530420449
0.219000000000000056,0.095830906873241431
0.220000000000000057,-1.154399592796651941
0.221000000000000058,-2.371503462113476068
0.222000000000000058,-3.556091126105344724
0.223000000000000059,-4.708782153583375596
0.224000000000000060,-5.830202954411335625
0.225000000000000061,-6.920984531936535511
0.226000000000000062,-7.981760315095622005
0.227000000000000063,-9.013164090268059425
0.228000000000000064,-10.015828048858825383
0.229000000000000065,-10.990380962870542447
0.230000000000000066,-11.937446497369919030
0.231000000000000066,-12.857641665768658967
0.232000000000000067,-13.751575431206186195
0.233000000000000068,-14.619847455031054650
0.234000000000000069,-15.463046991407011888
0.235000000000000070,-16.281751925398896930
0.236000000000000071,-17.076527950497812469
0.237000000000000072,-17.847927880404711232
0.238000000000000073,-18.596491088978037709
0.239000000000000073,-19.322743071543214910
0.240000000000000074,-20.027195120240236292
0.241000000000000075,-20.710344105722171548
0.242000000000000076,-21.372672357296927714
0.243000000000000077,-22.014647633507358648
0.244000000000000078,-22.636723175151065135
0.245000000000000079,-23.239337832837122733
0.246000000000000080,-23.822916261346044564
0.247000000000000081,-24.387869173291207403
0.248000000000000081,-24.934593644858765060
0.249000000000000082,-25.463473466721300298
0.250000000000000111,-25.974879533568628887
0.251000000000000112,-26.469170266066072372
0.252000000000000113,-26.946692059435243038
0.253000000000000114,-27.407779753238948217
0.254000000000000115,-27.852757117347447746
0.255000000000000115,-28.281937349451141017
0.256000000000000116,-28.695623579870932929
0.257000000000000117,-29.094109379792865155
0.258000000000000118,-29.477679269417695451
0.259000000000000119,-29.846609222867545697
0.260000000000000120,-30.201167167028749816
0.261000000000000121,-30.541613471828885196
0.262000000000000122,-30.868201429751206177
0.263000000000000123,-31.181177722674533470
0.264000000000000123,-31.480782874396492588
0.265000000000000124,-31.767251687448009534
0.266000000000000125,-32.040813663041561199
0.267000000000000126,-32.301693403211245936
0.268000000000000127,-32.550110994403098630
0.269000000000000128,-32.786282371956652071
0.270000000000000129,-33.010419665086644159
0.271000000000000130,-33.222731522126558446
0.272000000000000131,-33.423423415933079639
0.273000000000000131,-33.612697929475572778
0.274000000000000132,-33.790755021745361830
0.275000000000000133,-33.957792274219471551
0.276000000000000134,-34.114005118200751099
0.277000000000000135,-34.259587043432709663
0.278000000000000136,-34.394729788455023822
0.279000000000000137,-34.519623513222605027
0.280000000000000138,-34.634456954559645681
0.281000000000000139,-34.739417565061287974
0.282000000000000139,-34.834691636088408018
0.283000000000000140,-34.920464405527859242
0.284000000000000141,-34.996920151010577626
0.285000000000000142,-35.064242269294780385
0.286000000000000143,-35.122613342530968339
0.287000000000000144,-35.172215192129982597
0.288000000000000145,-35.213228920956808565
0.289000000000000146,-35.245834944568755986
0.290000000000000147,-35.270213012210952286
0.291000000000000147,-35.286542218272202831
0.292000000000000148,-35.295001004892831986
0.293000000000000149,-35.295767156400998488
0.294000000000000150,-35.289017786238446206
0.295000000000000151,-35.274929317018390407
0.296000000000000152,-35.253677454338451014
0.297000000000000153,-35.225437154951706020
0.298000000000000154,-35.190382589876762154
0.299000000000000155,-35.148687103005187282
0.300000000000000155,-35.100523165742643528
0.301000000000000156,-35.046062328195496605
0.302000000000000157,-34.985475167391633988
0.303000000000000158,-34.918931233000527925
0.304000000000000159,-34.846598990993527423
0.305000000000000160,-34.768645765661247538
0.306000000000000161,-34.685237680382336123
0.307000000000000162,-34.596539597513881859
0.308000000000000163,-34.502715057750869221
0.309000000000000163,-34.403926219280194232
0.310000000000000164,-34.300333797032081407
0.311000000000000165,-34.192097002310632092
0.312000000000000166,-34.079373483064529182
0.313000000000000167,-33.962319265038367178
0.314000000000000168,-33.841088694025458494
0.315000000000000169,-33.715834379424364897
0.316000000000000170,-33.586707139282893309
0.317000000000000171,-33.453855946995702197
0.318000000000000171,-33.317427879805180169
0.319000000000000172,-33.177568069238574822
0.320000000000000173,-33.034419653599833566
0.321000000000000174,-32.888123732618787187
0.322000000000000175,-32.738819324347460338
0.323000000000000176,-32.586643324379458875
0.324000000000000177,-32.431730467455963662
0.325000000000000178,-32.274213291509830981
0.326000000000000179,-32.114222104188698381
0.327000000000000179,-31.951884951886761144
0.328000000000000180,-31.787327591305359675
0.329000000000000181,-31.620673463553735871
0.330000000000000182,-31.452043670791418606
0.331000000000000183,-31.281556955407456400
0.332000000000000184,-31.109329681722517336
0.333000000000000185,-30.935475820194266561
0.334000000000000186,-30.760106934099422205
0.335000000000000187,-30.583332168660138706
0.336000000000000187,-30.405258242577481553
0.337000000000000188,-30.225989441928902579
0.338000000000000189,-30.045627616383502101
0.339000000000000190,-29.864272177683858445
0.340000000000000191,-29.682020100339848057
0.341000000000000192,-29.498965924477506206
0.342000000000000193,-29.315201760781810947
0.343000000000000194,-29.130817297471185867
0.344000000000000195,-28.945899809238444078
0.345000000000000195,-28.760534168091801632
0.346000000000000196,-28.574802856027581299
0.347000000000000197,-28.388785979465421150
0.348000000000000198,-28.202561285375679745
0.349000000000000199,-28.016204179028136423
0.350000000000000200,-27.829787743290591351
0.351000000000000201,-27.643382759405859872
0.352000000000000202,-27.457057729175296856
0.353000000000000203,-27.270878898477803887
0.354000000000000203,-27.084910282052995001
0.355000000000000204,-26.899213689477740274
0.356000000000000205,-26.713848752266642350
0.357000000000000206,-26.528872952026944176
0.358000000000000207,-26.344341649599623878
0.359000000000000208,-26.160308115119754291
0.360000000000000209,-25.976823558929861946
0.361000000000000210,-25.793937163281487557
0.362000000000000210,-25.611696114761446808
0.363000000000000211,-25.430145637380661583
0.364000000000000212,-25.249329026264899056
0.365000000000000213,-25.069287681888106079
0.366000000000000214,-24.890061144790916359
0.367000000000000215,-24.711687130728059003
0.368000000000000216,-24.534201566190567689
0.369000000000000217,-24.357638624249663195
0.370000000000000218,-24.182030760671715086
0.371000000000000218,-24.007408750254548124
0.372000000000000219,-23.833801723337607825
0.373000000000000220,-23.661237202440084104
0.374000000000000221,-23.489741138982861202
0.375000000000000222,-23.319337950051501451
0.376000000000000223,-23.150050555159925381
0.377000000000000224,-22.981900412975395653
0.378000000000000225,-22.814907557967593732
0.379000000000000226,-22.649090636946002775
0.380000000000000226,-22.484466945451632824
0.381000000000000227,-22.321052463970552537
0.382000000000000228,-22.158861893938556875
0.383000000000000229,-21.997908693507689293
0.384000000000000230,-21.838205113046779360
0.385000000000000231,-21.679762230350284824
0.386000000000000232,-21.522589985530252932
0.387000000000000233,-21.366697215568596135
0.388000000000000234,-21.212091688507666021
0.389000000000000234,-21.058780137259063281
0.390000000000000235,-20.906768293011207760
0.391000000000000236,-20.756060918218473432
0.392000000000000237,-20.606661839154998717
0.393000000000000238,-20.458573978018478101
0.394000000000000239,-20.311799384569525273
0.395000000000000240,-20.166339267294159043
0.396000000000000241,-20.022194024077581531
0.397000000000000242,-19.879363272378697047
0.398000000000000242,-19.737845878896063567
0.399000000000000243,-19.597639988716473169
0.400000000000000244,-19.458743053938885481
0.401000000000000245,-19.321151861767230429
0.402000000000000246,-19.184862562066182790
0.403000000000000247,-19.049870694375353963
0.404000000000000248,-18.916171214377857979
0.405000000000000249,-18.783758519820242583
0.406000000000000250,-18.652626475881248780
0.407000000000000250,-18.522768439987974176
0.408000000000000251,-18.394177286078253530
0.409000000000000252,-18.266845428309345323
0.410000000000000253,-18.140764844212892370
0.411000000000000254,-18.015927097297499415
0.412000000000000255,-17.892323359100199553
0.413000000000000256,-17.769944430689111670
0.414000000000000257,-17.648780763619690504
0.415000000000000258,-17.528822480347880486
0.416000000000000258,-17.410059394103477359
0.417000000000000259,-17.292481028227900453
0.418000000000000260,-17.176076634980628199
0.419000000000000261,-17.060835213818997147
0.420000000000000262,-16.946745529156675758
0.421000000000000263,-16.833796127606120763
0.422000000000000264,-16.721975354710739481
0.423000000000000265,-16.611271371172783518
0.424000000000000266,-16.501672168583549904
0.425000000000000266,-16.393165584661961276
0.426000000000000267,-16.285739318008726428
0.427000000000000268,-16.179380942382735498
0.428000000000000269,-16.074077920507072292
0.429000000000000270,-15.969817617411816713
0.430000000000000271,-15.866587313321142361
0.431000000000000272,-15.764374216092429393
0.432000000000000273,-15.663165473214865742
0.433000000000000274,-15.562948183375686639
0.434000000000000274,-15.463709407601673007
0.435000000000000275,-15.365436179984097720
0.436000000000000276,-15.268115517995141772
0.437000000000000277,-15.171734432403734871
0.438000000000000278,-15.076279936799171111
0.439000000000000279,-14.981739056730607018
0.440000000000000280,-14.888098838470487095
0.441000000000000281,-14.795346357410256388
0.442000000000000282,-14.703468726096549091
0.443000000000000282,-14.612453101915829023
0.444000000000000283,-14.522286694435885934
0.445000000000000284,-14.432956772412159907
0.446000000000000285,-14.344450670466907027
0.447000000000000286,-14.256755795449567614
0.448000000000000287,-14.169859632485833245
0.449000000000000288,-14.083749750723836058
0.450000000000000289,-13.998413808784974321
0.451000000000000290,-13.913839559927296818
0.452000000000000290,-13.830014856929238931
0.453000000000000291,-13.746927656701160458
0.454000000000000292,-13.664566024632467389
0.455000000000000293,-13.582918138681572273
0.456000000000000294,-13.501972293216217835
0.457000000000000295,-13.421716902611407818
0.458000000000000296,-13.342140504612027385
0.459000000000000297,-13.263231763467420166
0.460000000000000298,-13.184979472844705839
0.461000000000000298,-13.107372558527824680
0.462000000000000299,-13.030400080909066318
0.463000000000000300,-12.954051237279582409
0.464000000000000301,-12.878315363925697312
0.465000000000000302,-12.803181938037122123
0.466000000000000303,-12.728640579433676550
0.467000000000000304,-12.654681052116414364
0.468000000000000305,-12.581293265649497570
0.469000000000000306,-12.508467276378592459
0.470000000000000306,-12.436193288491759645
0.471000000000000307,-12.364461654928359025
0.472000000000000308,-12.293262878141865357
0.473000000000000309,-12.222587610721799223
0.474000000000000310,-12.152426655880278261
0.475000000000000311,-12.082770967808418305
0.476000000000000312,-12.013611651907778466
0.477000000000000313,-11.944939964901660545
0.478000000000000314,-11.876747314831369806
0.479000000000000314,-11.809025260942169311
0.480000000000000315,-11.741765513463450432
0.481000000000000316,-11.674959933287924585
0.482000000000000317,-11.608600531554014168
0.483000000000000318,-11.542679469135947556
0.484000000000000319,-11.477189056045663307
0.485000000000000320,-11.412121750750738869
0.486000000000000321,-11.347470159412228696
0.487000000000000322,-11.283227035046371256
0.488000000000000322,-11.219385276613866864
0.489000000000000323,-11.155937928040536633
0.490000000000000324,-11.092878177172831755
0.491000000000000325,-11.030199354671690770
0.492000000000000326,-10.967894932848107459
0.493000000000000327,-10.905958524443715163
0.494000000000000328,-10.844383881359540567
0.495000000000000329,-10.783164893336039114
0.496000000000000330,-10.722295586587311078
0.497000000000000330,-10.661770122392550064
0.498000000000000331,-10.601582795647303215
0.499000000000000332,-10.541728033377538054
0.500000000000000333,-10.482200393218892742
0.501000000000000334,-10.422994561863788476
0.502000000000000335,-10.364105353478789695
0.503000000000000336,-10.305527708094718520
0.504000000000000337,-10.247256689971624866
0.505000000000000338,-10.189287485940974776
0.506000000000000338,-10.131615403727161961
0.507000000000000339,-10.074235870250364044
0.508000000000000340,-10.017144429912756110
0.509000000000000341,-9.960336742870063986
0.510000000000000342,-9.903808583290174994
0.511000000000000343,-9.847555837600697970
0.512000000000000344,-9.791574502727094398
0.513000000000000345,-9.735860684323087710
0.514000000000000346,-9.680410594994942386
0.515000000000000346,-9.625220552521032147
0.516000000000000347,-9.570286978068219597
0.517000000000000348,-9.515606394406534108
0.518000000000000349,-9.461175424123245747
0.519000000000000350,-9.406990787837873569
0.520000000000000351,-9.353049302419190525
0.521000000000000352,-9.299347879205466683
0.522000000000000353,-9.245883522229068063
0.523000000000000353,-9.192653326446375672
0.524000000000000354,-9.139654475974303693
0.525000000000000355,-9.086884242334052786
0.526000000000000356,-9.034339982703263772
0.527000000000000357,-8.982019138177435025
0.528000000000000358,-8.929919232041251931
0.529000000000000359,-8.878037868050894232
0.530000000000000360,-8.826372728727827521
0.531000000000000361,-8.774921573664972385
0.532000000000000361,-8.723682237845803655
0.533000000000000362,-8.672652629977076089
0.534000000000000363,-8.621830730835780443
0.535000000000000364,-8.571214591630845092
0.536000000000000365,-8.520802332380130295
0.537000000000000366,-8.470592140303310202
0.538000000000000367,-8.420582268230850431
0.539000000000000368,-8.370771033029900110
0.540000000000000369,-8.321156814047052208
0.541000000000000369,-8.271738051568778616
0.542000000000000370,-8.222513245299564844
0.543000000000000371,-8.173480952858193760
0.544000000000000372,-8.124639788292508769
0.545000000000000373,-8.075988420612842944
0.546000000000000374,-8.027525572344389460
0.547000000000000375,-7.979250018098693609
0.548000000000000376,-7.931160583164627909
0.549000000000000377,-7.883256142118762355
0.550000000000000377,-7.835535617455491320
0.551000000000000378,-7.787997978236975705
0.552000000000000379,-7.740642238763031813
0.553000000000000380,-7.693467457261045972
0.554000000000000381,-7.646472734595977094
0.555000000000000382,-7.599657213000628353
0.556000000000000383,-7.553020074826011232
0.557000000000000384,-7.506560541312092383
0.558000000000000385,-7.460277871378697689
0.559000000000000385,-7.414171360436780489
0.560000000000000386,-7.368240339219869206
0.561000000000000387,-7.322484172635798316
0.562000000000000388,-7.276902258638595633
0.563000000000000389,-7.231494027120530355
0.564000000000000390,-7.186258938824224174
0.565000000000000391,-7.141196484274766831
0.566000000000000392,-7.096306182731765944
0.567000000000000393,-7.051587581161226304
0.568000000000000393,-7.007040253227101445
0.569000000000000394,-6.962663798302524576
0.570000000000000395,-6.918457840500512823
0.571000000000000396,-6.874422027723976036
0.572000000000000397,-6.830556030735047912
0.573000000000000398,-6.786859542243425025
0.574000000000000399,-6.743332276013687121
0.575000000000000400,-6.699973965991357083
0.576000000000000401,-6.656784365447583340
0.577000000000000401,-6.613763246142338126
0.578000000000000402,-6.570910397505771883
0.579000000000000403,-6.528225625837750457
0.580000000000000404,-6.485708753525299741
0.581000000000000405,-6.443359618277739287
0.582000000000000406,-6.401178072379403616
0.583000000000000407,-6.359163981959644829
0.584000000000000408,-6.317317226280056097
0.585000000000000409,-6.275637697038574103
0.586000000000000409,-6.234125297690344070
0.587000000000000410,-6.192779942785159086
0.588000000000000411,-6.151601557321145997
0.589000000000000412,-6.110590076114666758
0.590000000000000413,-6.069745443186030265
0.591000000000000414,-6.029067611160940920
0.592000000000000415,-5.988556540687454799
0.593000000000000416,-5.948212199868115668
0.594000000000000417,-5.908034563707169617
0.595000000000000417,-5.868023613572671771
0.596000000000000418,-5.828179336673030342
0.597000000000000419,-5.788501725548143462
0.598000000000000420,-5.748990777574505273
0.599000000000000421,-5.709646494484403867
0.600000000000000422,-5.670468881898751867
0.601000000000000423,-5.631457948873472397
0.602000000000000424,-5.592613707459144656
0.603000000000000425,-5.553936172273735927
0.604000000000000425,-5.515425360088158868
0.605000000000000426,-5.477081289424459598
0.606000000000000427,-5.438903980166490904
