# AuFCC100-Ablate50_7HPYRROLO23DPYRIMIDINE-AC
# h[nm],U(h)[kJ/mol]
0.149999999999999994,168.370272969768791427
0.150999999999999995,162.981865366046861254
0.151999999999999996,158.000746402735700258
0.152999999999999997,153.137845231356948261
0.153999999999999998,148.313291351206913760
0.154999999999999999,143.533166191735830353
0.156000000000000000,138.827668894730777538
0.157000000000000001,134.223823150301313945
0.158000000000000002,129.736486286104707233
0.159000000000000002,125.368163876425569470
0.160000000000000003,121.112323419966926963
0.161000000000000004,116.957439409917213879
0.162000000000000005,112.890488740435529280
0.163000000000000006,108.899444763534944514
0.164000000000000007,104.974747410500569345
0.165000000000000008,101.109920329855896171
0.166000000000000009,97.301567546510881357
0.167000000000000010,93.548975266921644334
0.168000000000000010,89.853506864789167707
0.169000000000000011,86.217932129363077820
0.170000000000000012,82.645786751227063860
0.171000000000000013,79.140819877938739069
0.172000000000000014,75.706558017323928311
0.173000000000000015,72.345992349004518474
0.174000000000000016,69.061382487541607134
0.175000000000000017,65.854161476218138205
0.176000000000000018,62.724922839199720670
0.177000000000000018,59.673469606307193658
0.178000000000000019,56.698906299675321918
0.179000000000000020,53.799757119551244955
0.180000000000000021,50.974096385074403770
0.181000000000000022,48.219680253310798435
0.182000000000000023,45.534071579253136974
0.183000000000000024,42.914752325194143623
0.184000000000000025,40.359220095706021425
0.185000000000000026,37.865067137512134821
0.186000000000000026,35.430041512864818287
0.187000000000000027,33.052091164928405931
0.188000000000000028,30.729392290826673673
0.189000000000000029,28.460363873987819971
0.190000000000000030,26.243670453439971624
0.191000000000000031,24.078215271485202464
0.192000000000000032,21.963125885084082256
0.193000000000000033,19.897734186519279831
0.194000000000000034,17.881552585398452493
0.195000000000000034,15.914247880702003357
0.196000000000000035,13.995614116861702314
0.197000000000000036,12.125545485489038100
0.198000000000000037,10.304010114063906656
0.199000000000000038,8.531025381058693569
0.200000000000000039,6.806635217389374937
0.201000000000000040,5.130889698496554630
0.202000000000000041,3.503827099986263072
0.203000000000000042,1.925458481729236837
0.204000000000000042,0.395754779008145430
0.205000000000000043,-1.085363687354402584
0.206000000000000044,-2.518035419284958110
0.207000000000000045,-3.902463839953177249
0.208000000000000046,-5.238921476064338556
0.209000000000000047,-6.527752428985873046
0.210000000000000048,-7.769373342864009047
0.211000000000000049,-8.964273074512993489
0.212000000000000050,-10.113011261600432178
0.213000000000000050,-11.216215973875181433
0.214000000000000051,-12.274580618057745696
0.215000000000000052,-13.288860251483658459
0.216000000000000053,-14.259867443431421208
0.217000000000000054,-15.188467806882012923
0.218000000000000055,-16.075575307707353545
0.219000000000000056,-16.922147443306112535
0.220000000000000057,-17.729180368737640805
0.221000000000000058,-18.497704035584014548
0.222000000000000058,-19.228777397192942544
0.223000000000000059,-19.923483723627583686
0.224000000000000060,-20.582926060568262017
0.225000000000000061,-21.208222858521075693
0.226000000000000062,-21.800503791918696805
0.227000000000000063,-22.360905781964895311
0.228000000000000064,-22.890569232280121525
0.229000000000000065,-23.390634482455091359
0.230000000000000066,-23.862238481410077640
0.231000000000000066,-24.306511679899458045
0.232000000000000067,-24.724575139498142562
0.233000000000000068,-25.117537853878168619
0.234000000000000069,-25.486494277051242818
0.235000000000000070,-25.832522052446933003
0.236000000000000071,-26.156679936154574762
0.237000000000000072,-26.460005907328515207
0.238000000000000073,-26.743515458589662614
0.239000000000000073,-27.008200059215901945
0.240000000000000074,-27.255025783965443509
0.241000000000000075,-27.484932100491942464
0.242000000000000076,-27.698830808466986753
0.243000000000000077,-27.897605123706870955
0.244000000000000078,-28.082108900792729145
0.245000000000000079,-28.253165987864441888
0.246000000000000080,-28.411569707454059852
0.247000000000000081,-28.558082457398068499
0.248000000000000081,-28.693435426025466484
0.249000000000000082,-28.818328415961069311
0.250000000000000111,-28.933429771009627984
0.251000000000000112,-29.039376400695896763
0.252000000000000113,-29.136773897134155220
0.253000000000000114,-29.226196738982999079
0.254000000000000115,-29.308188577318805557
0.255000000000000115,-29.383262598327284820
0.256000000000000116,-29.451901957776975394
0.257000000000000117,-29.514560282299207472
0.258000000000000118,-29.571662232558974637
0.259000000000000119,-29.623604123464666316
0.260000000000000120,-29.670754596630295907
0.261000000000000121,-29.713455340374629543
0.262000000000000122,-29.752021852620366360
0.263000000000000123,-29.786744242139739924
0.264000000000000123,-29.817888063687540523
0.265000000000000124,-29.845695182662431932
0.266000000000000125,-29.870384665048799633
0.267000000000000126,-29.892153688509011999
0.268000000000000127,-29.911178470624594894
0.269000000000000128,-29.927615210419350689
0.270000000000000129,-29.941601039441433585
0.271000000000000130,-29.953254978831648003
0.272000000000000131,-29.962678898962316509
0.273000000000000131,-29.969958478393458279
0.274000000000000132,-29.975164159060248892
0.275000000000000133,-29.978352094777562797
0.276000000000000134,-29.979565090321255383
0.277000000000000135,-29.978833528522557117
0.278000000000000136,-29.976176282989648314
0.279000000000000137,-29.971601614248765344
0.280000000000000138,-29.965108047274476633
0.281000000000000139,-29.956685228555492984
0.282000000000000139,-29.946314761016473938
0.283000000000000140,-29.933971015287774264
0.284000000000000141,-29.919621915983164229
0.285000000000000142,-29.903229701809827645
0.286000000000000143,-29.884751658493932780
0.287000000000000144,-29.864140823659532487
0.288000000000000145,-29.841346662947870527
0.289000000000000146,-29.816315716806116143
0.290000000000000147,-29.788992217512181071
0.291000000000000147,-29.759318676131830017
0.292000000000000148,-29.727236439228544640
0.293000000000000149,-29.692686215262597216
0.294000000000000150,-29.655608570726180062
0.295000000000000151,-29.615944396164316288
0.296000000000000152,-29.573635342326610953
0.297000000000000153,-29.528624226784579321
0.298000000000000154,-29.480855411430507473
0.299000000000000155,-29.430275151349711393
0.300000000000000155,-29.376831915626109293
0.301000000000000156,-29.320476680703059458
0.302000000000000157,-29.261163196977314271
0.303000000000000158,-29.198848229353046690
0.304000000000000159,-29.133491772526788566
0.305000000000000160,-29.065057241811341981
0.306000000000000161,-28.993511640339697522
0.307000000000000162,-28.918825703516610304
0.308000000000000163,-28.840974021607440392
0.309000000000000163,-28.759935141371613554
0.310000000000000164,-28.675691647660755734
0.311000000000000165,-28.588230225909757820
0.312000000000000166,-28.497541706454711630
0.313000000000000167,-28.403621091611864102
0.314000000000000168,-28.306467566449668993
0.315000000000000169,-28.206084494180640121
0.316000000000000170,-28.102479397091304492
0.317000000000000171,-27.995663923916907834
0.318000000000000171,-27.885653804554920043
0.319000000000000172,-27.772468792994864373
0.320000000000000173,-27.656132599324813270
0.321000000000000174,-27.536672811655044768
0.322000000000000175,-27.414120808778683624
0.323000000000000176,-27.288511664366591702
0.324000000000000177,-27.159884043470118087
0.325000000000000178,-27.028280092080802177
0.326000000000000179,-26.893745320470884508
0.327000000000000179,-26.756328481011983911
0.328000000000000180,-26.616081441142931396
0.329000000000000181,-26.473059052130757607
0.330000000000000182,-26.327319014240991635
0.331000000000000183,-26.178921738906769434
0.332000000000000184,-26.027930208457888739
0.333000000000000185,-25.874409833943939674
0.334000000000000186,-25.718428311558376720
0.335000000000000187,-25.560055478142789553
0.336000000000000187,-25.399363166224674160
0.337000000000000188,-25.236425059014560901
0.338000000000000189,-25.071316545763540518
0.339000000000000190,-24.904114577855938961
0.340000000000000191,-24.734897525987115330
0.341000000000000192,-24.563745038752813343
0.342000000000000193,-24.390737902951514116
0.343000000000000194,-24.215957905879676559
0.344000000000000195,-24.039487699876186610
0.345000000000000195,-23.861410669351840852
0.346000000000000196,-23.681810800517958171
0.347000000000000197,-23.500772554008726445
0.348000000000000198,-23.318380740572397514
0.349000000000000199,-23.134720399987557471
0.350000000000000200,-22.949876683343667594
0.351000000000000201,-22.763934738807179770
0.352000000000000202,-22.576979600978898333
0.353000000000000203,-22.389096083932749082
0.354000000000000203,-22.200368678010953261
0.355000000000000204,-22.010881450437260298
0.356000000000000205,-21.820717949796161861
0.357000000000000206,-21.629961114413923440
0.358000000000000207,-21.438693184665076785
0.359000000000000208,-21.246995619217372564
0.360000000000000209,-21.054949015217509611
0.361000000000000210,-20.862633032410172973
0.362000000000000210,-20.670126321174173256
0.363000000000000211,-20.477506454450558948
0.364000000000000212,-20.284849863530169500
0.365000000000000213,-20.092231777660362724
0.366000000000000214,-19.899726167424489631
0.367000000000000215,-19.707405691840843787
0.368000000000000216,-19.515341649123033818
0.369000000000000217,-19.323603931037659720
0.370000000000000218,-19.132260980791489402
0.371000000000000218,-18.941379754375169853
0.372000000000000219,-18.751025685287686429
0.373000000000000220,-18.561262652561776321
0.374000000000000221,-18.372152952007986926
0.375000000000000222,-18.183757270592309396
0.376000000000000223,-17.996134663860289038
0.377000000000000224,-17.809342536318631289
0.378000000000000225,-17.623436624683794349
0.379000000000000226,-17.438470983905737910
0.380000000000000226,-17.254497975874627969
0.381000000000000227,-17.071568260716666998
0.382000000000000228,-16.889730790585975484
0.383000000000000229,-16.709032805858402781
0.384000000000000230,-16.529519833633592896
0.385000000000000231,-16.351235688452121053
0.386000000000000232,-16.174222475134406807
0.387000000000000233,-15.998520593649399046
0.388000000000000234,-15.824168745921264545
0.389000000000000234,-15.651203944483976116
0.390000000000000235,-15.479661522893852776
0.391000000000000236,-15.309575147812441998
0.392000000000000237,-15.140976832672430774
0.393000000000000238,-14.973896952841650787
0.394000000000000239,-14.808364262200999661
0.395000000000000240,-14.644405911054345637
0.396000000000000241,-14.482047465289923593
0.397000000000000242,-14.321312926714321989
0.398000000000000242,-14.162224754482565459
0.399000000000000243,-14.004803887549048369
0.400000000000000244,-13.849069768066263109
0.401000000000000245,-13.695040365660569037
0.402000000000000246,-13.542732202515569639
0.403000000000000247,-13.392160379196109687
0.404000000000000248,-13.243338601148064271
0.405000000000000249,-13.096279205810649415
0.406000000000000250,-12.950993190280438938
0.407000000000000250,-12.807490239468231508
0.408000000000000251,-12.665778754691743302
0.409000000000000252,-12.525865882649544147
0.410000000000000253,-12.387757544723131176
0.411000000000000254,-12.251458466556709226
0.412000000000000255,-12.116972207865558175
0.413000000000000256,-11.984301192426428884
0.414000000000000257,-11.853446738204837629
0.415000000000000258,-11.724409087576514565
0.416000000000000258,-11.597187437601824911
0.417000000000000259,-11.471779970313930264
0.418000000000000260,-11.348183882983423842
0.419000000000000261,-11.226395418323644293
0.420000000000000262,-11.106409894603041622
0.421000000000000263,-10.988221735632382803
0.422000000000000264,-10.871824500596279250
0.423000000000000265,-10.757210913700326671
0.424000000000000266,-10.644372893606702135
0.425000000000000266,-10.533301582632450533
0.426000000000000267,-10.423987375686404988
0.427000000000000268,-10.316419948922133543
0.428000000000000269,-10.210588288085622466
0.429000000000000270,-10.106480716537966202
0.430000000000000271,-10.004084922934518787
0.431000000000000272,-9.903387988543419951
0.432000000000000273,-9.804376414187574440
0.433000000000000274,-9.707036146795436693
0.434000000000000274,-9.611352605547091699
0.435000000000000275,-9.517310707603353848
0.436000000000000276,-9.424894893406644769
0.437000000000000277,-9.334089151543359719
0.438000000000000278,-9.244877043158769681
0.439000000000000279,-9.157241725916161812
0.440000000000000280,-9.071165977493020449
0.441000000000000281,-8.986632218607901734
0.442000000000000282,-8.903622535572706553
0.443000000000000282,-8.822118702365461473
0.444000000000000283,-8.742102202220090490
0.445000000000000284,-8.663554248729909091
0.446000000000000285,-8.586455806462501172
0.447000000000000286,-8.510787611084580817
0.448000000000000287,-8.436530188995472912
0.449000000000000288,-8.363663876469232150
0.450000000000000289,-8.292168838305371992
0.451000000000000290,-8.222025085989145055
0.452000000000000290,-8.153212495362685885
0.453000000000000291,-8.085710823808813785
0.454000000000000292,-8.019499726949948837
0.455000000000000293,-7.954558774864723958
0.456000000000000294,-7.890867467825724013
0.457000000000000295,-7.828405251561747491
0.458000000000000296,-7.767151532048710116
0.459000000000000297,-7.707085689833465203
0.460000000000000298,-7.648187093895198352
0.461000000000000298,-7.590435115049342762
0.462000000000000299,-7.533809138899338009
0.463000000000000300,-7.478288578341626192
0.464000000000000301,-7.423852885629733223
0.465000000000000302,-7.370481564003389607
0.466000000000000303,-7.318154178888862660
0.467000000000000304,-7.266850368676806227
0.468000000000000305,-7.216549855084350540
0.469000000000000306,-7.167232453107897250
0.470000000000000306,-7.118878080573665557
0.471000000000000307,-7.071466767292736044
0.472000000000000308,-7.024978663827897485
0.473000000000000309,-6.979394049879211082
0.474000000000000310,-6.934693342295706664
0.475000000000000311,-6.890857102720436167
0.476000000000000312,-6.847866044876345093
0.477000000000000313,-6.805701041500197945
0.478000000000000314,-6.764343130932198633
0.479000000000000314,-6.723773523368693716
0.480000000000000315,-6.683973606785380994
0.481000000000000316,-6.644924952538682206
0.482000000000000317,-6.606609320652556683
0.483000000000000318,-6.569008664798436925
0.484000000000000319,-6.532105136975566495
0.485000000000000320,-6.495881091899313731
0.486000000000000321,-6.460319091104760325
0.487000000000000322,-6.425401906772947314
0.488000000000000322,-6.391112525287063306
0.489000000000000323,-6.357434150525893557
0.490000000000000324,-6.324350206901632632
0.491000000000000325,-6.291844342149284230
0.492000000000000326,-6.259900429874585726
0.493000000000000327,-6.228502571867590376
0.494000000000000328,-6.197635100188701784
0.495000000000000329,-6.167282579034067957
0.496000000000000330,-6.137429806387012299
0.497000000000000330,-6.108061815462247246
0.498000000000000331,-6.079163875949324058
0.499000000000000332,-6.050721495061926802
0.500000000000000333,-6.022720418399261533
0.501000000000000334,-5.995146630625924900
0.502000000000000335,-5.967986355976357515
0.503000000000000336,-5.941226058590020287
0.504000000000000337,-5.914852442683234734
0.505000000000000338,-5.888852452563574147
0.506000000000000338,-5.863213272492574291
0.507000000000000339,-5.837922326402404494
0.508000000000000340,-5.812967277472102623
0.509000000000000341,-5.788336027568758091
0.510000000000000342,-5.764016716559032361
0.511000000000000343,-5.739997721496202132
0.512000000000000344,-5.716267655687897964
0.513000000000000345,-5.692815367649466829
0.514000000000000346,-5.669629939947999020
0.515000000000000346,-5.646700687941647701
0.516000000000000347,-5.624017158419034601
0.517000000000000348,-5.601569128143347065
0.518000000000000349,-5.579346602305436775
0.519000000000000350,-5.557339812890491615
0.520000000000000351,-5.535539216962387599
0.521000000000000352,-5.513935494869945941
0.522000000000000353,-5.492519548379095617
0.523000000000000353,-5.471282498734926669
0.524000000000000354,-5.450215684657477411
0.525000000000000355,-5.429310660274951239
0.526000000000000356,-5.408559192998033005
0.527000000000000357,-5.387953261338877198
0.528000000000000358,-5.367485052678137691
0.529000000000000359,-5.347146960983436337
0.530000000000000360,-5.326931584482513138
0.531000000000000361,-5.306831723294204828
0.532000000000000361,-5.286840377020312509
0.533000000000000362,-5.266950742301335531
0.534000000000000363,-5.247156210338967064
0.535000000000000364,-5.227450364388089632
0.536000000000000365,-5.207826977221063025
0.537000000000000366,-5.188280008566840351
0.538000000000000367,-5.168803602527463070
0.539000000000000368,-5.149392084974482309
0.540000000000000369,-5.130039960927496701
0.541000000000000369,-5.110741911917274116
0.542000000000000370,-5.091492793335577360
0.543000000000000371,-5.072287631773815697
0.544000000000000372,-5.053121622352668041
0.545000000000000373,-5.033990126044564306
0.546000000000000374,-5.014888666991010879
0.547000000000000375,-4.995812929816546344
0.548000000000000376,-4.976758756941192630
0.549000000000000377,-4.957722145893002086
0.550000000000000377,-4.938699246622379135
0.551000000000000378,-4.919686358819814309
0.552000000000000379,-4.900679929238432209
0.553000000000000380,-4.881676549022910372
0.554000000000000381,-4.862672951046064895
0.555000000000000382,-4.843666007254547878
0.556000000000000383,-4.824652726024776683
0.557000000000000384,-4.805630249530495668
0.558000000000000385,-4.786595851122951828
0.559000000000000385,-4.767546932724973097
0.560000000000000386,-4.748481022239825045
0.561000000000000387,-4.729395770976031699
0.562000000000000388,-4.710288951088984710
0.563000000000000389,-4.691158453040327636
0.564000000000000390,-4.672002283075940454
0.565000000000000391,-4.652818560723378738
0.566000000000000392,-4.633605516309513561
0.567000000000000393,-4.614361488499127084
0.568000000000000393,-4.595084921855137061
0.569000000000000394,-4.575774364421106633
0.570000000000000395,-4.556428465326687771
0.571000000000000396,-4.537045972416485995
0.572000000000000397,-4.517625729903005372
0.573000000000000398,-4.498166676044048629
0.574000000000000399,-4.478667840845154124
0.575000000000000400,-4.459128343787416959
0.576000000000000401,-4.439547391581127656
0.577000000000000401,-4.419924275945648517
0.578000000000000402,-4.400258371415761260
0.579000000000000403,-4.380549133174881149
0.580000000000000404,-4.360796094915417420
0.581000000000000405,-4.340998866726479832
0.582000000000000406,-4.321157133009205786
0.583000000000000407,-4.301270650419896313
0.584000000000000408,-4.281339245841148333
0.585000000000000409,-4.261362814381117303
0.586000000000000409,-4.241341317401055910
0.587000000000000410,-4.221274780571257601
0.588000000000000411,-4.201163291955441359
0.589000000000000412,-4.181007000123702078
0.590000000000000413,-4.160806112294031855
0.591000000000000414,-4.140560892502469059
0.592000000000000415,-4.120271659801877817
0.593000000000000416,-4.099938786489333964
0.594000000000000417,-4.079562696362115659
0.595000000000000417,-4.059143863002284469
0.596000000000000418,-4.038682808089695264
0.597000000000000419,-4.018180099743544176
0.598000000000000420,-3.997636350892160628
0.599000000000000421,-3.977052217671144696
0.600000000000000422,-3.956428397849575784
0.601000000000000423,-3.935765629284302403
0.602000000000000424,-3.915064688402072335
0.603000000000000425,-3.894326388709443254
0.604000000000000425,-3.873551579330242411
0.605000000000000426,-3.852741143570470594
0.606000000000000427,-3.831895997510478935
0.607000000000000428,-3.811017088624109483
