# bi-graphene_CYSSCA-JS
# h[nm],U(h)[kJ/mol]
0.149999999999999994,82.647377893810173077
0.150999999999999995,79.650528915534010821
0.151999999999999996,77.709630355164762250
0.152999999999999997,75.997246130491234339
0.153999999999999998,74.225997420145361616
0.154999999999999999,72.353330198000776363
0.156000000000000000,70.426231003456408075
0.157000000000000001,68.506675867739630803
0.158000000000000002,66.641486670838034456
0.159000000000000002,64.854924658401444049
0.160000000000000003,63.151569913643797349
0.161000000000000004,61.522707339550478878
0.162000000000000005,59.952829475674789705
0.163000000000000006,58.424813708576081694
0.164000000000000007,56.923386773593030341
0.165000000000000008,55.437009150982518690
0.166000000000000009,53.958522658869185307
0.167000000000000010,52.484947334497476845
0.168000000000000010,51.016773967063755890
0.169000000000000011,49.557026095325710457
0.170000000000000012,48.110287190462571516
0.171000000000000013,46.681818683610842413
0.172000000000000014,45.276837966464611895
0.173000000000000015,43.899983483781532811
0.174000000000000016,42.554965241363497341
0.175000000000000017,41.244381187207167727
0.176000000000000018,39.969670477177025703
0.177000000000000018,38.731171271404193135
0.178000000000000019,37.528251436745357239
0.179000000000000020,36.359483772155485326
0.180000000000000021,35.222841935591993945
0.181000000000000022,34.115898281927009350
0.182000000000000023,33.036009750167615096
0.183000000000000024,31.980482412654907876
0.184000000000000025,30.946709129699947027
0.185000000000000026,29.932277867556923212
0.186000000000000026,28.935050641505778657
0.187000000000000027,27.953214794149584321
0.188000000000000028,26.985309494299816180
0.189000000000000029,26.030231038342428462
0.190000000000000030,25.087220849249423082
0.191000000000000031,24.155840088292784174
0.192000000000000032,23.235934601283560141
0.193000000000000033,22.327593583521018417
0.194000000000000034,21.431104922298079174
0.195000000000000034,20.546909707877546225
0.196000000000000035,19.675557927864151253
0.197000000000000036,18.817666901104775690
0.198000000000000037,17.973883583059585334
0.199000000000000038,17.144851495961717092
0.200000000000000039,16.331182709862712699
0.201000000000000040,15.533435026743319440
0.202000000000000041,14.752094298240200132
0.203000000000000042,13.987561635134289517
0.204000000000000042,13.240145139154588350
0.205000000000000043,12.510055699688706454
0.206000000000000044,11.797406344123881894
0.207000000000000045,11.102214605229665523
0.208000000000000046,10.424407366908585715
0.209000000000000047,9.763827665843304970
0.210000000000000048,9.120242956592957029
0.211000000000000049,8.493354387609961975
0.212000000000000050,7.882806682076660465
0.213000000000000050,7.288198267562087551
0.214000000000000051,6.709091349937094328
0.215000000000000052,6.145021677905874391
0.216000000000000053,5.595507793475013258
0.217000000000000054,5.060059609624628862
0.218000000000000055,4.538186198627255585
0.219000000000000056,4.029402712408876042
0.220000000000000057,3.533236389812636880
0.221000000000000058,3.049231634550463532
0.222000000000000058,2.576954172080652139
0.223000000000000059,2.115994313825676265
0.224000000000000060,1.665969373304430068
0.225000000000000061,1.226525291221343128
0.226000000000000062,0.797337535686009069
0.227000000000000063,0.378111349902634952
0.228000000000000064,-0.031418576754394009
0.229000000000000065,-0.431488937008641049
0.230000000000000066,-0.822309056536796534
0.231000000000000066,-1.204062492708007692
0.232000000000000067,-1.576908909789392244
0.233000000000000068,-1.940986163441099421
0.234000000000000069,-2.296412532271419948
0.235000000000000070,-2.643289039657416239
0.236000000000000071,-2.981701814767457215
0.237000000000000072,-3.311724447587867992
0.238000000000000073,-3.633420298617135558
0.239000000000000073,-3.946844729635650140
0.240000000000000074,-4.252047227497270043
0.241000000000000075,-4.549073398146250113
0.242000000000000076,-4.837966812988893750
0.243000000000000077,-5.118770694303806934
0.244000000000000078,-5.391529430533333667
0.245000000000000079,-5.656289916048885758
0.246000000000000080,-5.913102713319927872
0.247000000000000081,-6.162023038346662318
0.248000000000000081,-6.403111572748808378
0.249000000000000082,-6.636435108054999255
0.250000000000000111,-6.862067029529474560
0.251000000000000112,-7.080087648326650829
0.252000000000000113,-7.290584391907444228
0.253000000000000114,-7.493651863506437749
0.254000000000000115,-7.689391782037924727
0.255000000000000115,-7.877912814193571478
0.256000000000000116,-8.059330310644927664
0.257000000000000117,-8.233765958244324779
0.258000000000000118,-8.401347359942047177
0.259000000000000119,-8.562207553830587514
0.260000000000000120,-8.716484482309157400
0.261000000000000121,-8.864320421853122411
0.262000000000000122,-9.005861383293680689
0.263000000000000123,-9.141256491878149149
0.264000000000000123,-9.270657355707188074
0.265000000000000124,-9.394217430444665951
0.266000000000000125,-9.512091387481847349
0.267000000000000126,-9.624434492019450005
0.268000000000000127,-9.731401996819284861
0.269000000000000128,-9.833148556678194652
0.270000000000000129,-9.929827667998408103
0.271000000000000130,-10.021591137175160924
0.272000000000000131,-10.108588580898922871
0.273000000000000131,-10.190966960879173087
0.274000000000000132,-10.268870154942227657
0.275000000000000133,-10.342438565938829598
0.276000000000000134,-10.411808769418870568
0.277000000000000135,-10.477113200591844588
0.278000000000000136,-10.538479880692076307
0.279000000000000137,-10.596032182507162389
0.280000000000000138,-10.649888634505435547
0.281000000000000139,-10.700162762712906783
0.282000000000000139,-10.746962969240328789
0.283000000000000140,-10.790392446145206762
0.284000000000000141,-10.830549123130470690
0.285000000000000142,-10.867525647428683655
0.286000000000000143,-10.901409394096626571
0.287000000000000144,-10.932282504847496085
0.288000000000000145,-10.960221953475610235
0.289000000000000146,-10.985299635877840529
0.290000000000000147,-11.007582482647137567
0.291000000000000147,-11.027132592202493200
0.292000000000000148,-11.044007382426279662
0.293000000000000149,-11.058259758800943473
0.294000000000000150,-11.069938297071855615
0.295000000000000151,-11.079087438509548136
0.296000000000000152,-11.085747695900746379
0.297000000000000153,-11.089955868462981314
0.298000000000000154,-11.091745263949713163
0.299000000000000155,-11.091145926291211765
0.300000000000000155,-11.088184867199581518
0.301000000000000156,-11.082886300252866363
0.302000000000000157,-11.075271876062760867
0.303000000000000158,-11.065360917221306991
0.304000000000000159,-11.053170651814339109
0.305000000000000160,-11.038716444381233117
0.306000000000000161,-11.022012023292511174
0.307000000000000162,-11.003069703607433638
0.308000000000000163,-10.981900604562447654
0.309000000000000163,-10.958514860928701751
0.310000000000000164,-10.932921827560994288
0.311000000000000165,-10.905130276542333689
0.312000000000000166,-10.875148586407060947
0.313000000000000167,-10.842984923000710040
0.314000000000000168,-10.808647411606770561
0.315000000000000169,-10.772144300038842601
0.316000000000000170,-10.733484112461429305
0.317000000000000171,-10.692675793763283920
0.318000000000000171,-10.649728844364588554
0.319000000000000172,-10.604653445392488109
0.320000000000000173,-10.557460574209056148
0.321000000000000174,-10.508162110321672245
0.322000000000000175,-10.456770931748049946
0.323000000000000176,-10.403301001946763549
0.324000000000000177,-10.347767447459315093
0.325000000000000178,-10.290186626441521156
0.326000000000000179,-10.230576188290791961
0.327000000000000179,-10.168955124601014361
0.328000000000000180,-10.105343811699301071
0.329000000000000181,-10.039764045038742424
0.330000000000000182,-9.972239065737548813
0.331000000000000183,-9.902793579569991067
0.332000000000000184,-9.831453768725799236
0.333000000000000185,-9.758247296664723791
0.334000000000000186,-9.683203306400050892
0.335000000000000187,-9.606352412550588582
0.336000000000000187,-9.527726687504033620
0.337000000000000188,-9.447359642036451177
0.338000000000000189,-9.365286200733093480
0.339000000000000190,-9.281542672554303763
0.340000000000000191,-9.196166716887718806
0.341000000000000192,-9.109197305424563851
0.342000000000000193,-9.020674680192339423
0.343000000000000194,-8.930640308071009059
0.344000000000000195,-8.839136832112373554
0.345000000000000195,-8.746208019975398429
0.346000000000000196,-8.651898709781502106
0.347000000000000197,-8.556254753685232473
0.348000000000000198,-8.459322959446406998
0.349000000000000199,-8.361151030279824425
0.350000000000000200,-8.261787503248696041
0.351000000000000201,-8.161281686457325435
0.352000000000000202,-8.059683595287948421
0.353000000000000203,-7.957043887915894231
0.354000000000000203,-7.853413800326063843
0.355000000000000204,-7.748845081042881944
0.356000000000000205,-7.643389925774814131
0.357000000000000206,-7.537100912163568367
0.358000000000000207,-7.430030934817002830
0.359000000000000208,-7.322233140794335959
0.360000000000000209,-7.213760865701155822
0.361000000000000210,-7.104667570541614907
0.362000000000000210,-6.995006779464579161
0.363000000000000211,-6.884832018530661735
0.364000000000000212,-6.774196755617178489
0.365000000000000213,-6.663154341568376715
0.366000000000000214,-6.551757952689143849
0.367000000000000215,-6.440060534671286696
0.368000000000000216,-6.328114748032822590
0.369000000000000217,-6.215972915142202737
0.370000000000000218,-6.103686968891494757
0.371000000000000218,-5.991308403074492972
0.372000000000000219,-5.878888224518489025
0.373000000000000220,-5.766476907011204744
0.374000000000000221,-5.654124347057606137
0.375000000000000222,-5.541879821494744007
0.376000000000000223,-5.429791946986698647
0.377000000000000224,-5.317908641415804105
0.378000000000000225,-5.206277087180764873
0.379000000000000226,-5.094943696407064238
0.380000000000000226,-4.983954078070200744
0.381000000000000227,-4.873353007027487749
0.382000000000000228,-4.763184394950014777
0.383000000000000229,-4.653491263142236711
0.384000000000000230,-4.544315717232704444
0.385000000000000231,-4.435698923716357989
0.386000000000000232,-4.327681088325091352
0.387000000000000233,-4.220301436200636580
0.388000000000000234,-4.113598193840856787
0.389000000000000234,-4.007608572788266876
0.390000000000000235,-3.902368755026949909
0.391000000000000236,-3.797913880052418367
0.392000000000000237,-3.694278033576659848
0.393000000000000238,-3.591494237829345515
0.394000000000000239,-3.489594443414382852
0.395000000000000240,-3.388609522679970176
0.396000000000000241,-3.288569264559042526
0.397000000000000242,-3.189502370836061917
0.398000000000000242,-3.091436453795454842
0.399000000000000243,-2.994398035206215614
0.400000000000000244,-2.898412546596631056
0.401000000000000245,-2.803504330773084696
0.402000000000000246,-2.709696644536192967
0.403000000000000247,-2.617011662547653383
0.404000000000000248,-2.525470482301233499
0.405000000000000249,-2.435093130151243290
0.406000000000000250,-2.345898568352110747
0.407000000000000250,-2.257904703063008611
0.408000000000000251,-2.171128393271688495
0.409000000000000252,-2.085585460592343843
0.410000000000000253,-2.001290699892568803
0.411000000000000254,-1.918257890705298063
0.412000000000000255,-1.836499809382075910
0.413000000000000256,-1.756028241944807888
0.414000000000000257,-1.676853997593753309
0.415000000000000258,-1.598986922830497814
0.416000000000000258,-1.522435916155257862
0.417000000000000259,-1.447208943298871731
0.418000000000000260,-1.373313052950698054
0.419000000000000261,-1.300754392944462268
0.420000000000000262,-1.229538226865226846
0.421000000000000263,-1.159668951041418650
0.422000000000000264,-1.091150111886989738
0.423000000000000265,-1.023984423559608947
0.424000000000000266,-0.958173785902073027
0.425000000000000266,-0.893719302634754298
0.426000000000000267,-0.830621299768267263
0.427000000000000268,-0.768879344206344961
0.428000000000000269,-0.708492262510023396
0.429000000000000270,-0.649458159795270995
0.430000000000000271,-0.591774438737105890
0.431000000000000272,-0.535437818654406650
0.432000000000000273,-0.480444354650502170
0.433000000000000274,-0.426789456785718724
0.434000000000000274,-0.374467909258916598
0.435000000000000275,-0.323473889576207541
0.436000000000000276,-0.273800987685834663
0.437000000000000277,-0.225442225059205248
0.438000000000000278,-0.178390073699050328
0.439000000000000279,-0.132636475056533143
0.440000000000000280,-0.088172858840020935
0.441000000000000281,-0.044990161699177619
0.442000000000000282,-0.003078845768878543
0.443000000000000282,0.037571082941792310
0.444000000000000283,0.076970056329209363
0.445000000000000284,0.115128926156616629
0.446000000000000285,0.152058946209606971
0.447000000000000286,0.187771754656970408
0.448000000000000287,0.222279356627858693
0.449000000000000288,0.255594107015107153
0.450000000000000289,0.287728693514134548
0.451000000000000290,0.318696119905986064
0.452000000000000290,0.348509689592505500
0.453000000000000291,0.377182989390958845
0.454000000000000292,0.404729873594773415
0.455000000000000293,0.431164448306557813
0.456000000000000294,0.456501056048836507
0.457000000000000295,0.480754260657542953
0.458000000000000296,0.503938832462607067
0.459000000000000297,0.526069733759615965
0.460000000000000298,0.547162104575873665
0.461000000000000298,0.567231248733840565
0.462000000000000299,0.586292620214351468
0.463000000000000300,0.604361809821686080
0.464000000000000301,0.621454532152031502
0.465000000000000302,0.637586612866534286
0.466000000000000303,0.652773976269751310
0.467000000000000304,0.667032633193942459
0.468000000000000305,0.680378669189186103
0.469000000000000306,0.692828233019176620
0.470000000000000306,0.704397525462014285
0.471000000000000307,0.715102788415160395
0.472000000000000308,0.724960294303327979
0.473000000000000309,0.733986335787907507
0.474000000000000310,0.742197215776161601
0.475000000000000311,0.749609237728264932
0.476000000000000312,0.756238696259963539
0.477000000000000313,0.762101868038502106
0.478000000000000314,0.767215002969155901
0.479000000000000314,0.771594315669567710
0.480000000000000315,0.775255977228954896
0.481000000000000316,0.778216107248962174
0.482000000000000317,0.780490766162931227
0.483000000000000318,0.782095947830066973
0.484000000000000319,0.783047572400987546
0.485000000000000320,0.783361479450863318
0.486000000000000321,0.783053421376413539
0.487000000000000322,0.782139057052773978
0.488000000000000322,0.780633945746244118
0.489000000000000323,0.778553541278799388
0.490000000000000324,0.775913186440196245
0.491000000000000325,0.772728107643400941
0.492000000000000326,0.769013409819062965
0.493000000000000327,0.764784071544649224
0.494000000000000328,0.760054940403813495
0.495000000000000329,0.754840728571608777
0.496000000000000330,0.749156008620989966
0.497000000000000330,0.743015209546174282
0.498000000000000331,0.736432612998265457
0.499000000000000332,0.729422349728675590
0.500000000000000333,0.721998396235727147
0.501000000000000334,0.714174571609934361
0.502000000000000335,0.705964534573396918
0.503000000000000336,0.697381780708767662
0.504000000000000337,0.688439639873268172
0.505000000000000338,0.679151273793229038
0.506000000000000338,0.669529673834667660
0.507000000000000339,0.659587658945435584
0.508000000000000340,0.649337873764469498
0.509000000000000341,0.638792786893771281
0.510000000000000342,0.627964689328683212
0.511000000000000343,0.616865693042169427
0.512000000000000344,0.605507729718747556
0.513000000000000345,0.593902549633850030
0.514000000000000346,0.582061720674354133
0.515000000000000346,0.569996627496148101
0.516000000000000347,0.557718470814580813
0.517000000000000348,0.545238266823722451
0.518000000000000349,0.532566846740423316
0.519000000000000350,0.519714856469221997
0.520000000000000351,0.506692756384116483
0.521000000000000352,0.493510821223445639
0.522000000000000353,0.480179140093994594
0.523000000000000353,0.466707616580625650
0.524000000000000354,0.453105968957764282
0.525000000000000355,0.439383730499070979
0.526000000000000356,0.425550249881812448
0.527000000000000357,0.411614691682371803
0.528000000000000358,0.397586036959498013
0.529000000000000359,0.383473083921935631
0.530000000000000360,0.369284448677092259
0.531000000000000361,0.355028566057536188
0.532000000000000361,0.340713690522131352
0.533000000000000362,0.326347897128690945
0.534000000000000363,0.311939082575115378
0.535000000000000364,0.297494966306020958
0.536000000000000365,0.283023091681930461
0.537000000000000366,0.268530827208190326
0.538000000000000367,0.254025367820796377
0.539000000000000368,0.239513736226416141
0.540000000000000369,0.225002784293934999
0.541000000000000369,0.210499194494924907
0.542000000000000370,0.196009481390482770
0.543000000000000371,0.181539993161992014
0.544000000000000372,0.167096913183338386
0.545000000000000373,0.152686261632279857
0.546000000000000374,0.138313897138630792
0.547000000000000375,0.123985518467049596
0.548000000000000376,0.109706666232232686
0.549000000000000377,0.095482724644423339
0.550000000000000377,0.081318923283151004
0.551000000000000378,0.067220338897195295
0.552000000000000379,0.053191897228866435
0.553000000000000380,0.039238374860646678
0.554000000000000381,0.025364401082417987
0.555000000000000382,0.011574459777456086
0.556000000000000383,-0.002127108674528333
0.557000000000000384,-0.015736105478968997
0.558000000000000385,-0.029248471494284105
0.559000000000000385,-0.042660285287554188
0.560000000000000386,-0.055967761179520112
0.561000000000000387,-0.069167247280444585
0.562000000000000388,-0.082255223518202580
0.563000000000000389,-0.095228299660025287
0.564000000000000390,-0.108083213329187980
0.565000000000000391,-0.120816828017972139
0.566000000000000392,-0.133426131098114686
0.567000000000000393,-0.145908231829949525
0.568000000000000393,-0.158260359371400428
0.569000000000000394,-0.170479860787953102
0.570000000000000395,-0.182564199064630034
0.571000000000000396,-0.194510951121062786
0.572000000000000397,-0.206317805830614820
0.573000000000000398,-0.217982562044506917
0.574000000000000399,-0.229503126621881437
0.575000000000000400,-0.240877512466670052
0.576000000000000401,-0.252103836572104723
0.577000000000000401,-0.263180318073687247
0.578000000000000402,-0.274105276311395696
0.579000000000000403,-0.284877128901837307
0.580000000000000404,-0.295494389821087444
0.581000000000000405,-0.305955667498874428
0.582000000000000406,-0.316259662924740614
0.583000000000000407,-0.326405167766823823
0.584000000000000408,-0.336391062503801019
0.585000000000000409,-0.346216314570567785
0.586000000000000409,-0.355879976518203189
0.587000000000000410,-0.365381184188662278
0.588000000000000411,-0.374719154904715190
0.589000000000000412,-0.383893185675560078
0.590000000000000413,-0.392902651418521931
0.591000000000000414,-0.401747003197248431
0.592000000000000415,-0.410425766476761211
0.593000000000000416,-0.418938539395718734
0.594000000000000417,-0.427284991056219532
0.595000000000000417,-0.435464859831424023
0.596000000000000418,-0.443477951691327532
0.597000000000000419,-0.451324138546885301
0.598000000000000420,-0.459003356612791347
0.599000000000000421,-0.466515604789079330
0.600000000000000422,-0.473860943061802709
0.601000000000000423,-0.481039490922926638
0.602000000000000424,-0.488051425809645334
0.603000000000000425,-0.494896981563261118
0.604000000000000425,-0.501576446907741058
0.605000000000000426,-0.508090163948095697
0.606000000000000427,-0.514438526688686948
0.607000000000000428,-0.520621979571513238
0.608000000000000429,-0.526641016034621323
0.609000000000000430,-0.532496177090605149
0.610000000000000431,-0.538188049925350853
0.611000000000000432,-0.543717266516971831
0.612000000000000433,-0.549084502274995834
0.613000000000000433,-0.554290474699839830
0.614000000000000434,-0.559335942062508695
