# bi-graphene_ILESCA-JS
# h[nm],U(h)[kJ/mol]
0.200000000000000011,76.484438552601119454
0.201000000000000012,75.378941569014060065
0.202000000000000013,73.956709480198426832
0.203000000000000014,72.437050051137887863
0.204000000000000015,70.926826521266534087
0.205000000000000016,69.467444767228329283
0.206000000000000016,68.065110292968071803
0.207000000000000017,66.709613410163143499
0.208000000000000018,65.385401155714106380
0.209000000000000019,64.077591363773166222
0.210000000000000020,62.774778910946984922
0.211000000000000021,61.469901124174292306
0.212000000000000022,60.160011481222170460
0.213000000000000023,58.845514788610238099
0.214000000000000024,57.529210416615988777
0.215000000000000024,56.215348488920518832
0.216000000000000025,54.908808959443504705
0.217000000000000026,53.614451767461297038
0.218000000000000027,52.336647812201569252
0.219000000000000028,51.078978077758705467
0.220000000000000029,49.844076622988936265
0.221000000000000030,48.633588577661448937
0.222000000000000031,47.448214109340035805
0.223000000000000032,46.287811710391814302
0.224000000000000032,45.151537856729213161
0.225000000000000033,44.038004290087783943
0.226000000000000034,42.945438356738577568
0.227000000000000035,41.871835691888989572
0.228000000000000036,40.815097909937655629
0.229000000000000037,39.773150782222572275
0.230000000000000038,38.744040654045093675
0.231000000000000039,37.726008607328743949
0.232000000000000040,36.717543170720283285
0.233000000000000040,35.717413280874524162
0.234000000000000041,34.724683774321974283
0.235000000000000042,33.738716002847432662
0.236000000000000043,32.759156275032026429
0.237000000000000044,31.785914783681011642
0.238000000000000045,30.819137526801249294
0.239000000000000046,29.859173504681205458
0.240000000000000047,28.906539206578855783
0.241000000000000048,27.961882110442068949
0.242000000000000048,27.025944625426113532
0.243000000000000049,26.099529622583396815
0.244000000000000050,25.183468432987279328
0.245000000000000051,24.278591950588740644
0.246000000000000052,23.385705262691416806
0.247000000000000053,22.505566045519540097
0.248000000000000054,21.638866805946822325
0.249000000000000055,20.786220921987542454
0.250000000000000056,19.948152332316787749
0.251000000000000056,19.125088646603380482
0.252000000000000057,18.317357391250663312
0.253000000000000058,17.525185066582672277
0.254000000000000059,16.748698668926095934
0.255000000000000060,15.987929321863521892
0.256000000000000061,15.242817662765284936
0.257000000000000062,14.513220641339199091
0.258000000000000063,13.798919404381843279
0.259000000000000064,13.099627963413098541
0.260000000000000064,12.415002367896821767
0.261000000000000065,11.744650134987850265
0.262000000000000066,11.088139716095856357
0.263000000000000067,10.445009810118033755
0.264000000000000068,9.814778362230219599
0.265000000000000069,9.196951115067864890
0.266000000000000070,8.591029605539585390
0.267000000000000071,7.996518525078798234
0.268000000000000071,7.412932383644196932
0.269000000000000072,6.839801438098933595
0.270000000000000073,6.276676863679702123
0.271000000000000074,5.723135163114863033
0.272000000000000075,5.178781821616593284
0.273000000000000076,4.643254227545503099
0.274000000000000077,4.116223888140686071
0.275000000000000078,3.597397977460075502
0.276000000000000079,3.086520259732593363
0.277000000000000079,2.583371435838025754
0.278000000000000080,2.087768963764269792
0.279000000000000081,1.599566405795824098
0.280000000000000082,1.118652356020141125
0.281000000000000083,0.644949001641695219
0.282000000000000084,0.178410370709475519
0.283000000000000085,-0.280979682680338572
0.284000000000000086,-0.733209706728968902
0.285000000000000087,-1.178243047361540619
0.286000000000000087,-1.616020367114981315
0.287000000000000088,-2.046462246952372332
0.288000000000000089,-2.469471833717669096
0.289000000000000090,-2.884937499288105833
0.290000000000000091,-3.292735480857888142
0.291000000000000092,-3.692732475147579407
0.292000000000000093,-4.084788162632465358
0.293000000000000094,-4.468757641086532395
0.294000000000000095,-4.844493750816005750
0.295000000000000095,-5.211849276886094451
0.296000000000000096,-5.570679016406479889
0.297000000000000097,-5.920841701525390910
0.298000000000000098,-6.262201771177631215
0.299000000000000099,-6.594630986835594122
0.300000000000000100,-6.918009889521028910
0.301000000000000101,-7.232229097151834374
0.302000000000000102,-7.537190442923150435
0.303000000000000103,-7.832807956864461296
0.304000000000000103,-8.119008693976569546
0.305000000000000104,-8.395733413446251348
0.306000000000000105,-8.662937114368263636
0.307000000000000106,-8.920589434184773125
0.308000000000000107,-9.168674916691466947
0.309000000000000108,-9.407193156966840775
0.310000000000000109,-9.636158830968510003
0.311000000000000110,-9.855601617815530346
0.312000000000000111,-10.065566022952747716
0.313000000000000111,-10.266111110477385893
0.314000000000000112,-10.457310152913299461
0.315000000000000113,-10.639250206650910258
0.316000000000000114,-10.812031621141082738
0.317000000000000115,-10.975767489746520056
0.318000000000000116,-11.130583049923311378
0.319000000000000117,-11.276615040134403856
0.320000000000000118,-11.414011020593466839
0.321000000000000119,-11.542928664608057332
0.322000000000000119,-11.663535026940209605
0.323000000000000120,-11.776005795236526907
0.324000000000000121,-11.880524530203485867
0.325000000000000122,-11.977281899819843147
0.326000000000000123,-12.066474912492290983
0.327000000000000124,-12.148306153674999663
0.328000000000000125,-12.222983030092155587
0.329000000000000126,-12.290717025326729939
0.330000000000000127,-12.351722970172023253
0.331000000000000127,-12.406218330785499404
0.332000000000000128,-12.454422517339832410
0.333000000000000129,-12.496556215534670997
0.334000000000000130,-12.532840743015100315
0.335000000000000131,-12.563497432441359081
0.336000000000000132,-12.588747042667479903
0.337000000000000133,-12.608809199216917563
0.338000000000000134,-12.623901864989495181
0.339000000000000135,-12.634240841896618335
0.340000000000000135,-12.640039303901627221
0.341000000000000136,-12.641507361737321702
0.342000000000000137,-12.638851659384966908
0.343000000000000138,-12.632275002226212024
0.344000000000000139,-12.621976016622578953
0.345000000000000140,-12.608148840534630253
0.346000000000000141,-12.590982844664921458
0.347000000000000142,-12.570662383494614289
0.348000000000000143,-12.547366575482364226
0.349000000000000143,-12.521269111605384694
0.350000000000000144,-12.492538091345773310
0.351000000000000145,-12.461335885159288139
0.352000000000000146,-12.427819022408812089
0.353000000000000147,-12.392138103699142704
0.354000000000000148,-12.354437736513748547
0.355000000000000149,-12.314856493026425710
0.356000000000000150,-12.273526888941146851
0.357000000000000151,-12.230575382200918000
0.358000000000000151,-12.186122390400925042
0.359000000000000152,-12.140282325741345915
0.360000000000000153,-12.093163646361704266
0.361000000000000154,-12.044868922909060416
0.362000000000000155,-11.995494919208429252
0.363000000000000156,-11.945132685923010030
0.364000000000000157,-11.893867666115102821
0.365000000000000158,-11.841779811645036347
0.366000000000000159,-11.788943709374141378
0.367000000000000159,-11.735428716169481689
0.368000000000000160,-11.681299101741254631
0.369000000000000161,-11.626614198378888432
0.370000000000000162,-11.571428556688063694
0.371000000000000163,-11.515792106468515144
0.372000000000000164,-11.459750321910437521
0.373000000000000165,-11.403344390326161317
0.374000000000000166,-11.346611383672785323
0.375000000000000167,-11.289584432160484795
0.376000000000000167,-11.232292899280402310
0.377000000000000168,-11.174762557624731585
0.378000000000000169,-11.117015764909947251
0.379000000000000170,-11.059071639652161778
0.380000000000000171,-11.000946235980574528
0.381000000000000172,-10.942652717111588601
0.382000000000000173,-10.884201527041449609
0.383000000000000174,-10.825600560050357757
0.384000000000000175,-10.766855327644101692
0.385000000000000175,-10.707969122592112754
0.386000000000000176,-10.648943179752322408
0.387000000000000177,-10.589776833403146128
0.388000000000000178,-10.530467670832548421
0.389000000000000179,-10.471011681961490680
0.390000000000000180,-10.411403404806197415
0.391000000000000181,-10.351636066608852715
0.392000000000000182,-10.291701720490788574
0.393000000000000183,-10.231591377505006690
0.394000000000000183,-10.171295133986934189
0.395000000000000184,-10.110802294122766654
0.396000000000000185,-10.050101487674112377
0.397000000000000186,-9.989180782816168502
0.398000000000000187,-9.928027794063456923
0.399000000000000188,-9.866629785273419273
0.400000000000000189,-9.804973767732942491
0.401000000000000190,-9.743046593346749162
0.402000000000000191,-9.680835042959646586
0.403000000000000191,-9.618325909856126898
0.404000000000000192,-9.555506078492062016
0.405000000000000193,-9.492362598522968042
0.406000000000000194,-9.428882754202593475
0.407000000000000195,-9.365054129233744362
0.408000000000000196,-9.300864667160654520
0.409000000000000197,-9.236302727399001711
0.410000000000000198,-9.171357137005589522
0.411000000000000199,-9.106017238294700888
0.412000000000000199,-9.040272932413031981
0.413000000000000200,-8.974114718988811745
0.414000000000000201,-8.907533731974110580
0.415000000000000202,-8.840521771802036355
0.416000000000000203,-8.773071333982898068
0.417000000000000204,-8.705175634264938012
0.418000000000000205,-8.636828630486670377
0.419000000000000206,-8.568025041248640505
0.420000000000000207,-8.498760361532694318
0.421000000000000207,-8.429030875397199196
0.422000000000000208,-8.358833665875918584
0.423000000000000209,-8.288166622208024137
0.424000000000000210,-8.217028444525499964
0.425000000000000211,-8.145418646123037121
0.426000000000000212,-8.073337553434166480
0.427000000000000213,-8.000786303835479174
0.428000000000000214,-7.927766841399103370
0.429000000000000214,-7.854281910711270243
0.430000000000000215,-7.780335048872676573
0.431000000000000216,-7.705930575794033288
0.432000000000000217,-7.631073582897313301
0.433000000000000218,-7.555769920330878797
0.434000000000000219,-7.480026182803733548
0.435000000000000220,-7.403849694141355187
0.436000000000000221,-7.327248490662538138
0.437000000000000222,-7.250231303473769984
0.438000000000000222,-7.172807539774717966
0.439000000000000223,-7.094987263265079669
0.440000000000000224,-7.016781173740260336
0.441000000000000225,-6.938200585959874545
0.442000000000000226,-6.859257407870463119
0.443000000000000227,-6.779964118260034311
0.444000000000000228,-6.700333743919594909
0.445000000000000229,-6.620379836383291305
0.446000000000000230,-6.540116448315838049
0.447000000000000230,-6.459558109613110055
0.448000000000000231,-6.378719803278384504
0.449000000000000232,-6.297616941133998836
0.450000000000000233,-6.216265339425396164
0.451000000000000234,-6.134681194371265356
0.452000000000000235,-6.052881057711186230
0.453000000000000236,-5.970881812298928892
0.454000000000000237,-5.888700647787359799
0.455000000000000238,-5.806355036447795825
0.456000000000000238,-5.723862709164530216
0.457000000000000239,-5.641241631642356147
0.458000000000000240,-5.558509980862867295
0.459000000000000241,-5.475686121822491259
0.460000000000000242,-5.392788584583491307
0.461000000000000243,-5.309836041666319062
0.462000000000000244,-5.226847285810192645
0.463000000000000245,-5.143841208125986775
0.464000000000000246,-5.060836776664279668
0.465000000000000246,-4.977853015418792992
0.466000000000000247,-4.894908983784015177
0.467000000000000248,-4.812023756483762682
0.468000000000000249,-4.729216403985944339
0.469000000000000250,-4.646505973416854118
0.470000000000000251,-4.563911469986978275
0.471000000000000252,-4.481451838938541599
0.472000000000000253,-4.399145948023914343
0.473000000000000254,-4.317012570522136272
0.474000000000000254,-4.235070368799964236
0.475000000000000255,-4.153337878422204810
0.476000000000000256,-4.071833492815160049
0.477000000000000257,-3.990575448485766508
0.478000000000000258,-3.909581810797830403
0.479000000000000259,-3.828870460305984214
0.480000000000000260,-3.748459079646796255
0.481000000000000261,-3.668365140985583306
0.482000000000000262,-3.588605894016800413
0.483000000000000262,-3.509198354514842411
0.484000000000000263,-3.430159293431433554
0.485000000000000264,-3.351505226535124393
0.486000000000000265,-3.273252404587644548
0.487000000000000266,-3.195416804051316895
0.488000000000000267,-3.118014118321108974
0.489000000000000268,-3.041059749474502194
0.490000000000000269,-2.964568800531576453
0.491000000000000270,-2.888556068217676298
0.492000000000000270,-2.813036036220141867
0.493000000000000271,-2.738022868930645615
0.494000000000000272,-2.663530405664029654
0.495000000000000273,-2.589572155344273874
0.496000000000000274,-2.516161291648212561
0.497000000000000275,-2.443310648596907164
0.498000000000000276,-2.371032716584795086
0.499000000000000277,-2.299339638836339184
0.500000000000000222,-2.228243208279652610
0.501000000000000334,-2.157754864826716634
0.502000000000000224,-2.087885693049462255
0.503000000000000336,-2.018646420240822081
0.504000000000000226,-1.950047414850261784
0.505000000000000338,-1.882098685282447947
0.506000000000000227,-1.814809879048701502
0.507000000000000339,-1.748190282259749040
0.508000000000000229,-1.682248819449394972
0.509000000000000341,-1.616994053717724311
0.510000000000000231,-1.552434187183539871
0.511000000000000343,-1.488577061734642104
0.512000000000000233,-1.425430160065767282
0.513000000000000345,-1.363000606993061581
0.514000000000000234,-1.301295171035031339
0.515000000000000346,-1.240320266248913450
0.516000000000000236,-1.180081954312741654
0.517000000000000348,-1.120585946842346248
0.518000000000000238,-1.061837607933624028
0.519000000000000350,-1.003841956919738765
0.520000000000000240,-0.946603671333783425
0.521000000000000352,-0.890127090066978766
0.522000000000000242,-0.834416216713109060
0.523000000000000353,-0.779474723089648602
0.524000000000000243,-0.725305952926651010
0.525000000000000355,-0.671912925714155396
0.526000000000000245,-0.619298340699564243
0.527000000000000357,-0.567464581026024817
0.528000000000000247,-0.516413718003749467
0.529000000000000359,-0.466147515505611121
0.530000000000000249,-0.416667434479287668
0.531000000000000361,-0.367974637567769602
0.532000000000000250,-0.320069993830821076
0.533000000000000362,-0.272954083559576399
0.534000000000000252,-0.226627203177286018
0.535000000000000364,-0.181089370218794510
0.536000000000000254,-0.136340328382121179
0.537000000000000366,-0.092379552645074442
0.538000000000000256,-0.049206254440764097
0.539000000000000368,-0.006819386885238509
0.540000000000000258,0.034782349948476489
0.541000000000000369,0.075600503716335726
0.542000000000000259,0.115636864454568694
0.543000000000000371,0.154893459202284312
0.544000000000000261,0.193372546600505457
0.545000000000000373,0.231076611473028048
0.546000000000000263,0.268008359393995865
0.547000000000000375,0.304170711247266801
0.548000000000000265,0.339566797781921392
0.549000000000000377,0.374199954168806914
0.550000000000000266,0.408073714562110168
0.551000000000000378,0.441191806670364450
0.552000000000000268,0.473558146340741171
0.553000000000000380,0.505176832160578404
0.554000000000000270,0.536052140079686268
0.555000000000000382,0.566188518057124002
0.556000000000000272,0.595590580735598896
0.557000000000000384,0.624263104146940528
0.558000000000000274,0.652211020451452295
0.559000000000000385,0.679439412714329505
0.560000000000000275,0.705953509721659045
0.561000000000000387,0.731758680838851872
0.562000000000000277,0.756860430913874671
0.563000000000000389,0.781264395227721287
0.564000000000000279,0.804976334494304391
0.565000000000000391,0.828002129911946883
0.566000000000000281,0.850347778268408794
0.567000000000000393,0.872019387101367394
0.568000000000000282,0.893023169916019155
0.569000000000000394,0.913365441461593486
0.570000000000000284,0.933052613068129255
0.571000000000000396,0.952091188045106618
0.572000000000000286,0.970487757143083885
0.573000000000000398,0.988248994079749865
0.574000000000000288,1.005381651131339593
0.575000000000000400,1.021892554790522212
0.576000000000000290,1.037788601491706597
0.577000000000000401,1.053076753404566634
0.578000000000000291,1.067764034296549536
0.579000000000000403,1.081857525465109271
0.580000000000000293,1.095364361740138737
0.581000000000000405,1.108291727557248363
0.582000000000000295,1.120646853102227114
0.583000000000000407,1.132437010527137744
0.584000000000000297,1.143669510238288334
0.585000000000000409,1.154351697256344789
0.586000000000000298,1.164490947648749941
0.587000000000000410,1.174094665034543628
0.588000000000000300,1.183170277161641692
0.589000000000000412,1.191725232556578584
0.590000000000000302,1.199766997246625611
0.591000000000000414,1.207303051554149187
0.592000000000000304,1.214340886963124255
0.593000000000000416,1.220888003057494897
0.594000000000000306,1.226951904531160542
0.595000000000000417,1.232540098269292228
0.596000000000000307,1.237660090500638521
0.597000000000000419,1.242319384020384332
0.598000000000000309,1.246525475483175605
0.599000000000000421,1.250285852765890882
0.600000000000000311,1.253607992399553783
0.601000000000000423,1.256499357069980949
0.602000000000000313,1.258967393186497086
0.603000000000000425,1.261019528518260824
0.604000000000000314,1.262663169897417337
0.605000000000000426,1.263905700988616543
0.606000000000000316,1.264754480124083091
0.607000000000000428,1.265216838203668370
0.608000000000000318,1.265300076659082951
0.609000000000000430,1.265011465481638897
0.610000000000000320,1.264358241312750541
0.611000000000000432,1.263347605596387258
0.612000000000000322,1.261986722792770133
0.613000000000000433,1.260282718652443235
0.614000000000000323,1.258242678549972737
0.615000000000000435,1.255873645876406153
0.616000000000000325,1.253182620489707411
0.617000000000000437,1.250176557222284490
0.618000000000000327,1.246862364444784710
0.619000000000000439,1.243246902685297695
0.620000000000000329,1.239336983303094053
0.621000000000000441,1.235139367216021800
0.622000000000000330,1.230660763680712533
0.623000000000000442,1.225907829124676329
0.624000000000000332,1.220887166029455795
0.625000000000000444,1.215605321863870714
0.626000000000000334,1.210068788066575696
0.627000000000000446,1.204283999076916301
0.628000000000000336,1.198257331413308702
0.629000000000000448,1.191995102798165451
0.630000000000000338,1.185503571328537120
0.631000000000000449,1.178788934691527457
0.632000000000000339,1.171857329423667160
0.633000000000000451,1.164714830213278818
0.634000000000000341,1.157367449245041424
0.635000000000000453,1.149821135585769927
0.636000000000000343,1.142081774610691713
0.637000000000000455,1.134155187469154225
0.638000000000000345,1.126047130589098666
0.639000000000000457,1.117763295219288633
0.640000000000000346,1.109309307008552237
0.641000000000000458,1.100690725621094490
0.642000000000000348,1.091913044387150311
0.643000000000000460,1.082981689988026686
0.644000000000000350,1.073902022174831661
0.645000000000000462,1.064679333519948257
0.646000000000000352,1.055318849200575171
0.647000000000000464,1.045825726813400136
0.648000000000000353,1.036205056219744236
0.649000000000000465,1.026461859420255252
0.650000000000000355,1.016601090458523426
0.651000000000000467,1.006627635352709493
0.652000000000000357,0.996546312054543471
0.653000000000000469,0.986361870434855681
0.654000000000000359,0.976078992294974079
0.655000000000000471,0.965702291403210622
0.656000000000000361,0.955236313555742123
0.657000000000000473,0.944685536661144076
0.658000000000000362,0.934054370847927751
0.659000000000000474,0.923347158594350126
0.660000000000000364,0.912568174879831218
0.661000000000000476,0.901721627357286004
0.662000000000000366,0.890811656545785979
0.663000000000000478,0.879842336042772066
0.664000000000000368,0.868817672755337056
