# bi-graphene_SERSCA-JS
# h[nm],U(h)[kJ/mol]
0.149999999999999994,86.693853364508456139
0.150999999999999995,84.580555443124893600
0.151999999999999996,82.861149841657606885
0.152999999999999997,81.208738487585790722
0.153999999999999998,79.531782645790968900
0.154999999999999999,77.834018592868460473
0.156000000000000000,76.145715717959703284
0.157000000000000001,74.494207501991780873
0.158000000000000002,72.894673495571154831
0.159000000000000002,71.350295804234335151
0.160000000000000003,69.855885266355770113
0.161000000000000004,68.402019572871637365
0.162000000000000005,66.978414289297774076
0.163000000000000006,65.576149908692897839
0.164000000000000007,64.188818927934590874
0.165000000000000008,62.812834974366751339
0.166000000000000009,61.447183360195879231
0.167000000000000010,60.092862044678838629
0.168000000000000010,58.752205597046142316
0.169000000000000011,57.428224809681466922
0.170000000000000012,56.124041912386793740
0.171000000000000013,54.842459963471924311
0.172000000000000014,53.585675368371155969
0.173000000000000015,52.355123242655110971
0.174000000000000016,51.151434442594094776
0.175000000000000017,49.974478393985762636
0.176000000000000018,48.823465435774600962
0.177000000000000018,47.697084676713167539
0.178000000000000019,46.593657122994009967
0.179000000000000020,45.511288190049420166
0.180000000000000021,44.448008063769236742
0.181000000000000022,43.401892351674881354
0.182000000000000023,42.371158859422806131
0.183000000000000024,41.354239060398114702
0.184000000000000025,40.349824896392519236
0.185000000000000026,39.356893007278358709
0.186000000000000026,38.374709417606176487
0.187000000000000027,37.402818200739410770
0.188000000000000028,36.441017790077786742
0.189000000000000029,35.489328499617535329
0.190000000000000030,34.547954529942884960
0.191000000000000031,33.617243336138770360
0.192000000000000032,32.697644774088949760
0.193000000000000033,31.789671962421827800
0.194000000000000034,30.893865329601730707
0.195000000000000034,30.010760880764461689
0.196000000000000035,29.140863330643107076
0.197000000000000036,28.284624414947177939
0.198000000000000037,27.442426415702851017
0.199000000000000038,26.614570715632037690
0.200000000000000039,25.801271029431557480
0.201000000000000040,25.002650840938155596
0.202000000000000041,24.218744498793718378
0.203000000000000042,23.449501383088605877
0.204000000000000042,22.694792545257858052
0.205000000000000043,21.954419237197061676
0.206000000000000044,21.228122777561161172
0.207000000000000045,20.515595248502105363
0.208000000000000046,19.816490570310627106
0.209000000000000047,19.130435560836186681
0.210000000000000048,18.457040648083381740
0.211000000000000049,17.795909965549022047
0.212000000000000050,17.146650618741524852
0.213000000000000050,16.508880966484049679
0.214000000000000051,15.882237811034423558
0.215000000000000052,15.266382436119513955
0.216000000000000053,14.661005471340411432
0.217000000000000054,14.065830594964628730
0.218000000000000055,13.480617114985724569
0.219000000000000056,12.905161490750497677
0.220000000000000057,12.339297874784803000
0.221000000000000058,11.782897767130403821
0.222000000000000058,11.235868883006439489
0.223000000000000059,10.698153339439484100
0.224000000000000060,10.169725268161188936
0.225000000000000061,9.650587961047907726
0.226000000000000062,9.140770651139423109
0.227000000000000063,8.640325027261379631
0.228000000000000064,8.149321573891594284
0.229000000000000065,7.667845820513417898
0.230000000000000066,7.195994576615333926
0.231000000000000066,6.733872220001491549
0.232000000000000067,6.281587097417853371
0.233000000000000068,5.839248087872757509
0.234000000000000069,5.406961370609342232
0.235000000000000070,4.984827431603163994
0.236000000000000071,4.572938334818654305
0.237000000000000072,4.171375277339068433
0.238000000000000073,3.780206440944075208
0.239000000000000073,3.399485146780905520
0.240000000000000074,3.029248314474908721
0.241000000000000075,2.669515222359915896
0.242000000000000076,2.320286561464811825
0.243000000000000077,1.981543772453009833
0.244000000000000078,1.653248651848648665
0.245000000000000079,1.335343211563643218
0.246000000000000080,1.027749773927260080
0.247000000000000081,0.730371283072314914
0.248000000000000081,0.443091812609974212
0.249000000000000082,0.165777248984256692
0.250000000000000111,-0.101723870304434166
0.251000000000000112,-0.359579384320529827
0.252000000000000113,-0.607972422519497013
0.253000000000000114,-0.847100224564047322
0.254000000000000115,-1.077172885158519833
0.255000000000000115,-1.298412042020479884
0.256000000000000116,-1.511049524081359063
0.257000000000000117,-1.715325975889081089
0.258000000000000118,-1.911489473000883788
0.259000000000000119,-2.099794141927801672
0.260000000000000120,-2.280498796943096540
0.261000000000000121,-2.453865604812900614
0.262000000000000122,-2.620158787265198352
0.263000000000000123,-2.779643369794686070
0.264000000000000123,-2.932583984218805284
0.265000000000000124,-3.079243731262040207
0.266000000000000125,-3.219883108360276136
0.267000000000000126,-3.354759006849239000
0.268000000000000127,-3.484123781736380376
0.269000000000000128,-3.608224396355902197
0.270000000000000129,-3.727301643374892226
0.271000000000000130,-3.841589442855228409
0.272000000000000131,-3.951314217380862637
0.273000000000000131,-4.056694343633046707
0.274000000000000132,-4.157939679235205688
0.275000000000000133,-4.255251163192989239
0.276000000000000134,-4.348820487820779235
0.277000000000000135,-4.438829839670993316
0.278000000000000136,-4.525451706664412654
0.279000000000000137,-4.608848748354321678
0.280000000000000138,-4.689173726041938828
0.281000000000000139,-4.766569489291784478
0.282000000000000139,-4.841169015269572107
0.283000000000000140,-4.913095497238807674
0.284000000000000141,-4.982462478501741288
0.285000000000000142,-5.049374028052779906
0.286000000000000143,-5.113924954224057018
0.287000000000000144,-5.176201052640767131
0.288000000000000145,-5.236279384865489384
0.289000000000000146,-5.294228584191820630
0.290000000000000147,-5.350109185147485569
0.291000000000000147,-5.403973973380973739
0.292000000000000148,-5.455868352733283189
0.293000000000000149,-5.505830726433496025
0.294000000000000150,-5.553892889502973773
0.295000000000000151,-5.600080429605422516
0.296000000000000152,-5.644413133736934540
0.297000000000000153,-5.686905398310557302
0.298000000000000154,-5.727566640351764882
0.299000000000000155,-5.766401707683476374
0.300000000000000155,-5.803411286140915948
0.301000000000000156,-5.838592302016263780
0.302000000000000157,-5.871938318090200504
0.303000000000000158,-5.903439921760956111
0.304000000000000159,-5.933085103931054149
0.305000000000000160,-5.960859627456438936
0.306000000000000161,-5.986747384102399039
0.307000000000000162,-6.010730739084578111
0.308000000000000163,-6.032790862401223642
0.309000000000000163,-6.052908046284909638
0.310000000000000164,-6.071062008217406714
0.311000000000000165,-6.087232179060461768
0.312000000000000166,-6.101397975958032127
0.313000000000000167,-6.113539059761545325
0.314000000000000168,-6.123635576819450144
0.315000000000000169,-6.131668385055701442
0.316000000000000170,-6.137619264338814773
0.317000000000000171,-6.141471111213919976
0.318000000000000171,-6.143208118135229157
0.319000000000000172,-6.142815937395374348
0.320000000000000173,-6.140281830001540264
0.321000000000000174,-6.135594799796285415
0.322000000000000175,-6.128745713164008180
0.323000000000000176,-6.119727404701821527
0.324000000000000177,-6.108534769266838360
0.325000000000000178,-6.095164840840600284
0.326000000000000179,-6.079616858676115676
0.327000000000000179,-6.061892321213166568
0.328000000000000180,-6.041995028264605772
0.329000000000000181,-6.019931111989752281
0.330000000000000182,-5.995709057180574675
0.331000000000000183,-5.969339711393985226
0.332000000000000184,-5.940836285467179678
0.333000000000000185,-5.910214344954952459
0.334000000000000186,-5.877491793026917044
0.335000000000000187,-5.842688845359679917
0.336000000000000187,-5.805827997554120046
0.337000000000000188,-5.766933985601021995
0.338000000000000189,-5.726033739910197262
0.339000000000000190,-5.683156333408307503
0.340000000000000191,-5.638332924199426444
0.341000000000000192,-5.591596693270544094
0.342000000000000193,-5.542982777710537157
0.343000000000000194,-5.492528199897670937
0.344000000000000195,-5.440271793095373454
0.345000000000000195,-5.386254123881309752
0.346000000000000196,-5.330517411818387785
0.347000000000000197,-5.273105446760565584
0.348000000000000198,-5.214063504169672569
0.349000000000000199,-5.153438258802705896
0.350000000000000200,-5.091277697112548850
0.351000000000000201,-5.027631028687910231
0.352000000000000202,-4.962548597041746667
0.353000000000000203,-4.896081790040664572
0.354000000000000203,-4.828282950251223227
0.355000000000000204,-4.759205285462697610
0.356000000000000205,-4.688902779629962048
0.357000000000000206,-4.617430104464152585
0.358000000000000207,-4.544842531883330317
0.359000000000000208,-4.471195847520435862
0.360000000000000209,-4.396546265470869130
0.361000000000000210,-4.320950344447892277
0.362000000000000210,-4.244464905500042740
0.363000000000000211,-4.167146951431408120
0.364000000000000212,-4.089053588052619759
0.365000000000000213,-4.010241947377817695
0.366000000000000214,-3.930769112870980742
0.367000000000000215,-3.850692046833289250
0.368000000000000216,-3.770067520012307050
0.369000000000000217,-3.688952043503033629
0.370000000000000218,-3.607401803000963803
0.371000000000000218,-3.525472595457487479
0.372000000000000219,-3.443219768179044848
0.373000000000000220,-3.360698160402679768
0.374000000000000221,-3.277962047372523280
0.375000000000000222,-3.195065086933917886
0.376000000000000223,-3.112060268654770478
0.377000000000000224,-3.028999865476772246
0.378000000000000225,-2.945935387892760993
0.379000000000000226,-2.862917540640538050
0.380000000000000226,-2.779996181897884444
0.381000000000000227,-2.697220284958238956
0.382000000000000228,-2.614637902361871546
0.383000000000000229,-2.532296132452839910
0.384000000000000230,-2.450241088327874461
0.385000000000000231,-2.368517869139874499
0.386000000000000232,-2.287170533714949272
0.387000000000000233,-2.206242076439142608
0.388000000000000234,-2.125774405367974129
0.389000000000000234,-2.045808322509659938
0.390000000000000235,-1.966383506230396039
0.391000000000000236,-1.887538495728436017
0.392000000000000237,-1.809310677521647204
0.393000000000000238,-1.731736273892135802
0.394000000000000239,-1.654850333229936465
0.395000000000000240,-1.578686722217019334
0.396000000000000241,-1.503278119791883416
0.397000000000000242,-1.428656012834373046
0.398000000000000242,-1.354850693510031512
0.399000000000000243,-1.281891258212873641
0.400000000000000244,-1.209805608045290581
0.401000000000000245,-1.138620450774140425
0.402000000000000246,-1.068361304201768336
0.403000000000000247,-0.999052500891308481
0.404000000000000248,-0.930717194185961660
0.405000000000000249,-0.863377365462352997
0.406000000000000250,-0.797053832558772379
0.407000000000000250,-0.731766259319811430
0.408000000000000251,-0.667533166199586803
0.409000000000000252,-0.604371941866809981
0.410000000000000253,-0.542298855755646625
0.411000000000000254,-0.481329071507554662
0.412000000000000255,-0.421476661250160478
0.413000000000000256,-0.362754620660465432
0.414000000000000257,-0.305174884760715914
0.415000000000000258,-0.248748344396617277
0.416000000000000258,-0.193484863348603431
0.417000000000000259,-0.139393296028320846
0.418000000000000260,-0.086481505713632514
0.419000000000000261,-0.034756383276788039
0.420000000000000262,0.015776133638223978
0.421000000000000263,0.065111041031894482
0.422000000000000264,0.113244248600297207
0.423000000000000265,0.160172559461197600
0.424000000000000266,0.205893649593681116
0.425000000000000266,0.250406047028823742
0.426000000000000267,0.293709110827271580
0.427000000000000268,0.335803009878470726
0.428000000000000269,0.376688701554867167
0.429000000000000270,0.416367910253102547
0.430000000000000271,0.454843105852993035
0.431000000000000272,0.492117482123688721
0.432000000000000273,0.528194935105252728
0.433000000000000274,0.563080041492570293
0.434000000000000274,0.596778037047340448
0.435000000000000275,0.629294795062623757
0.436000000000000276,0.660636804903293351
0.437000000000000277,0.690811150644564886
0.438000000000000278,0.719825489829607812
0.439000000000000279,0.747688032366163657
0.440000000000000280,0.774407519581004733
0.441000000000000281,0.799993203450018897
0.442000000000000282,0.824454826020576848
0.443000000000000282,0.847802599042031702
0.444000000000000283,0.870047183818961622
0.445000000000000284,0.891199671301015295
0.446000000000000285,0.911271562422271808
0.447000000000000286,0.930274748701929388
0.448000000000000287,0.948221493117592074
0.449000000000000288,0.965124411261262694
0.450000000000000289,0.980996452787564088
0.451000000000000290,0.995850883162791023
0.452000000000000290,1.009701265722687369
0.453000000000000291,1.022561444046103274
0.454000000000000292,1.034445524650947412
0.455000000000000293,1.045367860018223682
0.456000000000000294,1.055343031949224297
0.457000000000000295,1.064385835260368340
0.458000000000000296,1.072511261819533157
0.459000000000000297,1.079734484927188820
0.460000000000000298,1.086070844045020856
0.461000000000000298,1.091535829874288988
0.462000000000000299,1.096145069785546600
0.463000000000000300,1.099914313600986127
0.464000000000000301,1.102859419730084278
0.465000000000000302,1.104996341658878389
0.466000000000000303,1.106341114792734226
0.467000000000000304,1.106909843652095882
0.468000000000000305,1.106718689420260970
0.469000000000000306,1.105783857841988516
0.470000000000000306,1.104121587471270427
0.471000000000000307,1.101748138266376742
0.472000000000000308,1.098679780529921324
0.473000000000000309,1.094932784191454900
0.474000000000000310,1.090523408429782126
0.475000000000000311,1.085467891631963111
0.476000000000000312,1.079782441685742223
0.477000000000000313,1.073483226601904761
0.478000000000000314,1.066586365462864894
0.479000000000000314,1.059107919693575317
0.480000000000000315,1.051063884650733637
0.481000000000000316,1.042470181526013118
0.482000000000000317,1.033342649558970816
0.483000000000000318,1.023697038555091421
0.484000000000000319,1.013549001704351138
0.485000000000000320,1.002914088695507466
0.486000000000000321,0.991807739121295717
0.487000000000000322,0.980245276169542712
0.488000000000000322,0.968241900595198324
0.489000000000000323,0.955812684968147641
0.490000000000000324,0.942972568191651539
0.491000000000000325,0.929736350286191282
0.492000000000000326,0.916118687433437606
0.493000000000000327,0.902134087275066721
0.494000000000000328,0.887796904461036318
0.495000000000000329,0.873121336442036045
0.496000000000000330,0.858121419500667892
0.497000000000000330,0.842811025016038995
0.498000000000000331,0.827203855956334388
0.499000000000000332,0.811313443594051775
0.500000000000000333,0.795153144438461190
0.501000000000000334,0.778736137380005244
0.502000000000000335,0.762075421041260692
0.503000000000000336,0.745183811329201529
0.504000000000000337,0.728073939183444985
0.505000000000000338,0.710758248515277691
0.506000000000000338,0.693248994332239521
0.507000000000000339,0.675558241043117680
0.508000000000000340,0.657697860938229795
0.509000000000000341,0.639679532839947051
0.510000000000000342,0.621514740918427844
0.511000000000000343,0.603214773667618664
0.512000000000000344,0.584790723036619386
0.513000000000000345,0.566253483711584238
0.514000000000000346,0.547613752543349208
0.515000000000000346,0.528882028116129721
0.516000000000000347,0.510068610452597104
0.517000000000000348,0.491183600850767399
0.518000000000000349,0.472236901848205382
0.519000000000000350,0.453238217309121061
0.520000000000000351,0.434197052629934022
0.521000000000000352,0.415122715059091429
0.522000000000000353,0.396024314126876331
0.523000000000000353,0.376910762181062231
0.524000000000000354,0.357790775024388830
0.525000000000000355,0.338672872649799506
0.526000000000000356,0.319565380069616434
0.527000000000000357,0.300476428234736470
0.528000000000000358,0.281413955040123231
0.529000000000000359,0.262385706412936681
0.530000000000000360,0.243399237479652142
0.531000000000000361,0.224461913808675473
0.532000000000000361,0.205580912724988712
0.533000000000000362,0.186763224693463598
0.534000000000000363,0.168015654767552758
0.535000000000000364,0.149344824100120371
0.536000000000000365,0.130757171513300519
0.537000000000000366,0.112258955124294582
0.538000000000000367,0.093856254024131211
0.539000000000000368,0.075554970006461858
0.540000000000000369,0.057360829343560668
0.541000000000000369,0.039279384606760594
0.542000000000000370,0.021316016528621549
0.543000000000000371,0.003475935904222546
0.544000000000000372,-0.014235814470998923
0.545000000000000373,-0.031814357829300539
0.546000000000000374,-0.049254981427044750
0.547000000000000375,-0.066553134511758288
0.548000000000000376,-0.083704426262163581
0.549000000000000377,-0.100704623703341462
0.550000000000000377,-0.117549649599212505
0.551000000000000378,-0.134235580324393672
0.552000000000000379,-0.150758643717430779
0.553000000000000380,-0.167115216917398890
0.554000000000000381,-0.183301824185711199
0.555000000000000382,-0.199315134715004505
0.556000000000000383,-0.215151960426846145
0.557000000000000384,-0.230809253759980931
0.558000000000000385,-0.246284105450769314
0.559000000000000385,-0.261573742307423640
0.560000000000000386,-0.276675524979548615
0.561000000000000387,-0.291586945724520097
0.562000000000000388,-0.306305626172088230
0.563000000000000389,-0.320829315088630496
0.564000000000000390,-0.335155886142331549
0.565000000000000391,-0.349283335670620587
0.566000000000000392,-0.363209780451057118
0.567000000000000393,-0.376933455476870294
0.568000000000000393,-0.390452711738265679
0.569000000000000394,-0.403766014010621899
0.570000000000000395,-0.416871938650572260
0.571000000000000396,-0.429769171401016004
0.572000000000000397,-0.442456505205999828
0.573000000000000398,-0.454932838036372966
0.574000000000000399,-0.467197170727110311
0.575000000000000400,-0.479248604827130442
0.576000000000000401,-0.491086340462392801
0.577000000000000401,-0.502709674213058788
0.578000000000000402,-0.514117997005420713
0.579000000000000403,-0.525310792019271333
0.580000000000000404,-0.536287632611402443
0.581000000000000405,-0.547048180255811589
0.582000000000000406,-0.557592182501221556
0.583000000000000407,-0.567919470946462557
0.584000000000000408,-0.578029959234228286
0.585000000000000409,-0.587923641063695102
0.586000000000000409,-0.597600588222488516
0.587000000000000410,-0.607060948638397990
0.588000000000000411,-0.616304944451252612
0.589000000000000412,-0.625332870105358651
0.590000000000000413,-0.634145090462805650
0.591000000000000414,-0.642742038938008853
0.592000000000000415,-0.651124215653761440
0.593000000000000416,-0.659292185619083537
0.594000000000000417,-0.667246576929127477
0.595000000000000417,-0.674988078987352580
0.596000000000000418,-0.682517440750200266
0.597000000000000419,-0.689835468994446144
0.598000000000000420,-0.696943026607398930
0.599000000000000421,-0.703841030900096865
0.600000000000000422,-0.710530451943639618
0.601000000000000423,-0.717012310928742513
0.602000000000000424,-0.723287678548642288
0.603000000000000425,-0.729357673405417795
0.604000000000000425,-0.735223460439761833
0.605000000000000426,-0.740886249384287821
0.606000000000000427,-0.746347293240397724
0.607000000000000428,-0.751607886778671852
0.608000000000000429,-0.756669365062890398
0.609000000000000430,-0.761533101997534767
0.610000000000000431,-0.766200508898888577
0.611000000000000432,-0.770673033089586124
0.612000000000000433,-0.774952156516611868
0.613000000000000433,-0.779039394392709861
0.614000000000000434,-0.782936293861074772
0.615000000000000435,-0.786644432683279660
0.616000000000000436,-0.790165417950354110
