# bi-graphene_THRSCA-JS
# h[nm],U(h)[kJ/mol]
0.200000000000000011,58.203422614677307934
0.201000000000000012,55.548046466873074678
0.202000000000000013,53.975215196228781167
0.203000000000000014,52.910607702195946445
0.204000000000000015,52.021839288831152714
0.205000000000000016,51.133441281833079017
0.206000000000000016,50.167866394310649980
0.207000000000000017,49.105353641600942183
0.208000000000000018,47.957305574505660672
0.209000000000000019,46.749215796107527865
0.210000000000000020,45.510234789556392343
0.211000000000000021,44.267254012126734608
0.212000000000000022,43.041981986186428344
0.213000000000000023,41.849928358942946716
0.214000000000000024,40.700538750925161935
0.215000000000000024,39.597962608209364532
0.216000000000000025,38.542109748557535909
0.217000000000000026,37.529775384996931109
0.218000000000000027,36.555700774543382181
0.219000000000000028,35.613496912671237737
0.220000000000000029,34.696399181098399822
0.221000000000000030,33.797847063691051517
0.222000000000000031,32.911899096129715758
0.223000000000000032,32.033502173990946460
0.224000000000000032,31.158638468632766205
0.225000000000000033,30.284374136211880568
0.226000000000000034,29.408832936264417413
0.227000000000000035,28.531115640813389689
0.228000000000000036,27.651183294259169543
0.229000000000000037,26.769719370508084921
0.230000000000000038,25.887982921277760795
0.231000000000000039,25.007662073703709638
0.232000000000000040,24.130734801825219904
0.233000000000000040,23.259341802590171255
0.234000000000000041,22.395674557759001289
0.235000000000000042,21.541880242915357968
0.236000000000000043,20.699984025790186593
0.237000000000000044,19.871828443925036112
0.238000000000000045,19.059028929593079482
0.239000000000000046,18.262944121436248679
0.240000000000000047,17.484659333052672281
0.241000000000000048,16.724981407415633328
0.242000000000000048,15.984443144688125216
0.243000000000000049,15.263315525587135113
0.244000000000000050,14.561626042459025143
0.245000000000000051,13.879181578570026545
0.246000000000000052,13.215594428851625608
0.247000000000000053,12.570310221291226327
0.248000000000000054,11.942636668585473458
0.249000000000000055,11.331772247914619456
0.250000000000000056,10.736834067844545970
0.251000000000000056,10.156884331969706636
0.252000000000000057,9.590954946713930340
0.253000000000000058,9.038069944400483280
0.254000000000000059,8.497265501728596959
0.255000000000000060,7.967607428171604056
0.256000000000000061,7.448206078989310086
0.257000000000000062,6.938228714282841381
0.258000000000000063,6.436909379781593721
0.259000000000000064,5.943556427937926934
0.260000000000000064,5.457557830580594960
0.261000000000000065,4.978384458027582227
0.262000000000000066,4.505591515345282794
0.263000000000000067,4.038818335484871014
0.264000000000000068,3.577786732378270163
0.265000000000000069,3.122298115710460564
0.266000000000000070,2.672229563891037163
0.267000000000000071,2.227529043522947116
0.268000000000000071,1.788209953122418039
0.269000000000000072,1.354345156601212796
0.270000000000000073,0.926060658621193911
0.271000000000000074,0.503529059831659187
0.272000000000000075,0.086962915589875678
0.273000000000000076,-0.323391892632090783
0.274000000000000077,-0.727262678075335733
0.275000000000000078,-1.124356280318238532
0.276000000000000079,-1.514365139253760262
0.277000000000000079,-1.896973055207722414
0.278000000000000080,-2.271860590364158661
0.279000000000000081,-2.638710077138565868
0.280000000000000082,-2.997210208678130705
0.281000000000000083,-3.347060195264757176
0.282000000000000084,-3.687973478059782817
0.283000000000000085,-4.019680998383021731
0.284000000000000086,-4.341934026598645247
0.285000000000000087,-4.654506559727520809
0.286000000000000087,-4.957197301171738957
0.287000000000000088,-5.249831239473823352
0.288000000000000089,-5.532260845897350343
0.289000000000000090,-5.804366912864860062
0.290000000000000091,-6.066059056979268505
0.291000000000000092,-6.317275911544759204
0.292000000000000093,-6.557985034244974365
0.293000000000000094,-6.788182555984699995
0.294000000000000095,-7.007892596904841120
0.295000000000000095,-7.217166475287901228
0.296000000000000096,-7.416081734524335722
0.297000000000000097,-7.604741012552063140
0.298000000000000098,-7.783270777247571104
0.299000000000000099,-7.951819950173076634
0.300000000000000100,-8.110558439899730132
0.301000000000000101,-8.259675604861103082
0.302000000000000102,-8.399378664366999203
0.303000000000000103,-8.529891075049622629
0.304000000000000103,-8.651450888638191117
0.305000000000000104,-8.764309105584045412
0.306000000000000105,-8.868728037698527800
0.307000000000000106,-8.964979691632935399
0.308000000000000107,-9.053344183734868267
0.309000000000000108,-9.134108195564884625
0.310000000000000109,-9.207563478160485815
0.311000000000000110,-9.274005411993806902
0.312000000000000111,-9.333731628491809929
0.313000000000000111,-9.387040697973194625
0.314000000000000112,-9.434230887908601204
0.315000000000000113,-9.475598994529754293
0.316000000000000114,-9.511439249999185108
0.317000000000000115,-9.542042306604802349
0.318000000000000116,-9.567694298761333371
0.319000000000000117,-9.588675982982191925
0.320000000000000118,-9.605261955428289866
0.321000000000000119,-9.617719946142930354
0.322000000000000119,-9.626310188640703203
0.323000000000000120,-9.631284863131394758
0.324000000000000121,-9.632887611324033372
0.325000000000000122,-9.631353120467926132
0.326000000000000123,-9.626906774044638126
0.327000000000000124,-9.619764366323497740
0.328000000000000125,-9.610131877831122438
0.329000000000000126,-9.598205308658609880
0.330000000000000127,-9.584170566436601035
0.331000000000000127,-9.568203405744855061
0.332000000000000128,-9.550469415686542618
0.333000000000000129,-9.531124052346001463
0.334000000000000130,-9.510312712858908668
0.335000000000000131,-9.488170847854314971
0.336000000000000132,-9.464824109075280489
0.337000000000000133,-9.440388529047904598
0.338000000000000134,-9.414970729744728928
0.339000000000000135,-9.388668157275875004
0.340000000000000135,-9.361569339738702311
0.341000000000000136,-9.333754165461876084
0.342000000000000137,-9.305294178991463383
0.343000000000000138,-9.276252892283697093
0.344000000000000139,-9.246686108689800676
0.345000000000000140,-9.216642257441909791
0.346000000000000141,-9.186162736474354773
0.347000000000000142,-9.155282261540701683
0.348000000000000143,-9.124029219713074568
0.349000000000000143,-9.092426025475390361
0.350000000000000144,-9.060489477746179077
0.351000000000000145,-9.028231116288138125
0.352000000000000146,-8.995657576081182327
0.353000000000000147,-8.962770938351749095
0.354000000000000148,-8.929569077064288152
0.355000000000000149,-8.896045999789970793
0.356000000000000150,-8.862192181973338023
0.357000000000000151,-8.827994893718662084
0.358000000000000151,-8.793438518315035424
0.359000000000000152,-8.758504861811713837
0.360000000000000153,-8.723173453043706616
0.361000000000000154,-8.687421833591004727
0.362000000000000155,-8.651225837234331806
0.363000000000000156,-8.614559858544819093
0.364000000000000157,-8.577397110315219564
0.365000000000000158,-8.539709869606310733
0.366000000000000159,-8.501469712243302723
0.367000000000000159,-8.462647735654526215
0.368000000000000160,-8.423214769997716900
0.369000000000000161,-8.383141577568251179
0.370000000000000162,-8.342399040528857057
0.371000000000000163,-8.300958337041894453
0.372000000000000164,-8.258791105922801634
0.373000000000000165,-8.215869599968039338
0.374000000000000166,-8.172166828141433470
0.375000000000000167,-8.127656686830995625
0.376000000000000167,-8.082314080412924540
0.377000000000000168,-8.036115031381482865
0.378000000000000169,-7.989036780322599895
0.379000000000000170,-7.941057876025920947
0.380000000000000171,-7.892158256043948938
0.381000000000000172,-7.842319318019183250
0.382000000000000173,-7.791523982109771040
0.383000000000000174,-7.739756744852274828
0.384000000000000175,-7.687003724805926197
0.385000000000000175,-7.633252700327171958
0.386000000000000176,-7.578493139825982716
0.387000000000000177,-7.522716224856475620
0.388000000000000178,-7.465914866394518512
0.389000000000000179,-7.408083714653306728
0.390000000000000180,-7.349219162785599835
0.391000000000000181,-7.289319344817664970
0.392000000000000182,-7.228384128155548538
0.393000000000000183,-7.166415100998863252
0.394000000000000183,-7.103415554991386216
0.395000000000000184,-7.039390463430902578
0.396000000000000185,-6.974346455353376939
0.397000000000000186,-6.908291785798864382
0.398000000000000187,-6.841236302558115767
0.399000000000000188,-6.773191409690232589
0.400000000000000189,-6.704170028092839573
0.401000000000000190,-6.634186553396780539
0.402000000000000191,-6.563256811448245465
0.403000000000000191,-6.491398011631240195
0.404000000000000192,-6.418628698273910693
0.405000000000000193,-6.344968700372286996
0.406000000000000194,-6.270439079855203879
0.407000000000000195,-6.195062078604516742
0.408000000000000196,-6.118861064434627295
0.409000000000000197,-6.041860476225935805
0.410000000000000198,-5.964085768397159981
0.411000000000000199,-5.885563354891765186
0.412000000000000199,-5.806320552844621119
0.413000000000000200,-5.726385526085763011
0.414000000000000201,-5.645787228629011167
0.415000000000000202,-5.564555348284396352
0.416000000000000203,-5.482720250524913297
0.417000000000000204,-5.400312922729321841
0.418000000000000205,-5.317364918914952554
0.419000000000000206,-5.233908305066282018
0.420000000000000207,-5.149975605157269598
0.421000000000000207,-5.065599747958338561
0.422000000000000208,-4.980814014711123505
0.423000000000000209,-4.895651987747780431
0.424000000000000210,-4.810147500124378972
0.425000000000000211,-4.724334586331806918
0.426000000000000212,-4.638247434141340442
0.427000000000000213,-4.551920337635963598
0.428000000000000214,-4.465387651473092134
0.429000000000000214,-4.378683746418650102
0.430000000000000215,-4.291842966187438435
0.431000000000000216,-4.204899585619850555
0.432000000000000217,-4.117887770219992305
0.433000000000000218,-4.030841537076224057
0.434000000000000219,-3.943794717180531872
0.435000000000000220,-3.856780919159446874
0.436000000000000221,-3.769833494425209430
0.437000000000000222,-3.682985503752433942
0.438000000000000222,-3.596269685282237560
0.439000000000000223,-3.509718423952493005
0.440000000000000224,-3.423363722350067029
0.441000000000000225,-3.337237172977989275
0.442000000000000226,-3.251369931928218993
0.443000000000000227,-3.165792693947876657
0.444000000000000228,-3.080535668884990752
0.445000000000000229,-2.995628559497501175
0.446000000000000230,-2.911100540607470144
0.447000000000000230,-2.826980239580776821
0.448000000000000231,-2.743295718110858150
0.449000000000000232,-2.660074455283677253
0.450000000000000233,-2.577343331899926149
0.451000000000000234,-2.495128616028995605
0.452000000000000235,-2.413455949768564146
0.453000000000000236,-2.332350337182346856
0.454000000000000237,-2.251836133388117389
0.455000000000000238,-2.171937034767005503
0.456000000000000238,-2.092676070264845034
0.457000000000000239,-2.014075593755465299
0.458000000000000240,-1.936157277435797130
0.459000000000000241,-1.858942106221840973
0.460000000000000242,-1.782450373114849551
0.461000000000000243,-1.706701675506348437
0.462000000000000244,-1.631714912391005967
0.463000000000000245,-1.557508282455843496
0.464000000000000246,-1.484099283014766568
0.465000000000000246,-1.411504709757154696
0.466000000000000247,-1.339740657279488323
0.467000000000000248,-1.268822520369189633
0.468000000000000249,-1.198764996010162509
0.469000000000000250,-1.129582086079583547
0.470000000000000251,-1.061287100706113984
0.471000000000000252,-0.993892662259739823
0.472000000000000253,-0.927410709944164857
0.473000000000000254,-0.861852504962834720
0.474000000000000254,-0.797228636230288723
0.475000000000000255,-0.733549026600956777
0.476000000000000256,-0.670822939588000322
0.477000000000000257,-0.609058986545437664
0.478000000000000258,-0.548265134287105660
0.479000000000000259,-0.488448713116858557
0.480000000000000260,-0.429616425244745248
0.481000000000000261,-0.371774353564554461
0.482000000000000262,-0.314927970768849319
0.483000000000000262,-0.259082148777970089
0.484000000000000263,-0.204241168460317868
0.485000000000000264,-0.150408729621708231
0.486000000000000265,-0.097587961242286497
0.487000000000000266,-0.045781431940070540
0.488000000000000267,0.005008839359203043
0.489000000000000268,0.054781372565514165
0.490000000000000269,0.103535215400451047
0.491000000000000270,0.151269932223848158
0.492000000000000270,0.197985592729121113
0.493000000000000271,0.243682760524369518
0.494000000000000272,0.288362481615926813
0.495000000000000273,0.332026272810339695
0.496000000000000274,0.374676110050086109
0.497000000000000275,0.416314416697972534
0.498000000000000276,0.456944051784310745
0.499000000000000277,0.496568298230600114
0.500000000000000222,0.535190851062792183
0.501000000000000334,0.572815805626661012
0.502000000000000224,0.609447645817233097
0.503000000000000336,0.645091232333865894
0.504000000000000226,0.679751790971691028
0.505000000000000338,0.713434900960112417
0.506000000000000227,0.746146483357953860
0.507000000000000339,0.777892789515030714
0.508000000000000229,0.808680389608764649
0.509000000000000341,0.838516161264589721
0.510000000000000231,0.867407278267907200
0.511000000000000343,0.895361199375426908
0.512000000000000233,0.922385657232797307
0.513000000000000345,0.948488647405431151
0.514000000000000234,0.973678417528619611
0.515000000000000346,0.997963456583098263
0.516000000000000236,1.021352484301322638
0.517000000000000348,1.043854440709776732
0.518000000000000238,1.065478475811991732
0.519000000000000350,1.086233939416749728
0.520000000000000240,1.106130371115505939
0.521000000000000352,1.125177490412815340
0.522000000000000242,1.143385187013167936
0.523000000000000353,1.160763511267375758
0.524000000000000243,1.177322664781298434
0.525000000000000355,1.193072991189496168
0.526000000000000245,1.208024967095991276
0.527000000000000357,1.222189193184227918
0.528000000000000247,1.235576385497844543
0.529000000000000359,1.248197366893888827
0.530000000000000249,1.260063058669586011
0.531000000000000361,1.271184472363805273
0.532000000000000250,1.281572701733927788
0.533000000000000362,1.291238914908822144
0.534000000000000252,1.300194346718235749
0.535000000000000364,1.308450291198856252
0.536000000000000254,1.316018094277066508
0.537000000000000366,1.322909146628254984
0.538000000000000256,1.329134876712330326
0.539000000000000368,1.334706743985038635
0.540000000000000258,1.339636232284388218
0.541000000000000369,1.343934843391497935
0.542000000000000259,1.347614090764906791
0.543000000000000371,1.350685493447382202
0.544000000000000261,1.353160570144022135
0.545000000000000373,1.355050833470458960
0.546000000000000263,1.356367784369755247
0.547000000000000375,1.357122906696533793
0.548000000000000265,1.357327661966809540
0.549000000000000377,1.356993484271825645
0.550000000000000266,1.356131775354233682
0.551000000000000378,1.354753899844715281
0.552000000000000268,1.352871180657259753
0.553000000000000380,1.350494894541079294
0.554000000000000270,1.347636267787186481
0.555000000000000382,1.344306472087553939
0.556000000000000272,1.340516620544744075
0.557000000000000384,1.336277763829842868
0.558000000000000274,1.331600886486466795
0.559000000000000385,1.326496903378623582
0.560000000000000275,1.320976656280120398
0.561000000000000387,1.315050910603189793
0.562000000000000277,1.308730352264044328
0.563000000000000389,1.302025584682910520
0.564000000000000279,1.294947125916221298
0.565000000000000391,1.287505405918499601
0.566000000000000281,1.279710763931588335
0.567000000000000393,1.271573445998696261
0.568000000000000282,1.263103602600897712
0.569000000000000394,1.254311286413578141
0.570000000000000284,1.245206450180449398
0.571000000000000396,1.235798944702566793
0.572000000000000286,1.226098516940009375
0.573000000000000398,1.216114808223707211
0.574000000000000288,1.205857352575019359
0.575000000000000400,1.195335575130540118
0.576000000000000290,1.184558790669858919
0.577000000000000401,1.173536202243688154
0.578000000000000291,1.162276899900087201
0.579000000000000403,1.150789859506345270
0.580000000000000293,1.139083941664167154
0.581000000000000405,1.127167890715755849
0.582000000000000295,1.115050333838591090
0.583000000000000407,1.102739780226416055
0.584000000000000297,1.090244620354319682
0.585000000000000409,1.077573125325471448
0.586000000000000298,1.064733446297455366
0.587000000000000410,1.051733613985770255
0.588000000000000300,1.038581538242519198
0.589000000000000412,1.025285007707926521
0.590000000000000302,1.011851689532711207
0.591000000000000414,0.998289129169033673
0.592000000000000304,0.984604750228116998
0.593000000000000416,0.970805854402310375
0.594000000000000306,0.956899621449702642
0.595000000000000417,0.942893109239189564
0.596000000000000307,0.928793253854149015
0.597000000000000419,0.914606869752637608
0.598000000000000309,0.900340649982322438
0.599000000000000421,0.886001166448254329
0.600000000000000311,0.871594870231601648
0.601000000000000423,0.857128091957547134
0.602000000000000313,0.842607042210630652
0.603000000000000425,0.828037811995695483
0.604000000000000314,0.813426373242818856
0.605000000000000426,0.798778579354459617
0.606000000000000316,0.784100165793265802
0.607000000000000428,0.769396750708843280
0.608000000000000318,0.754673835601964660
0.609000000000000430,0.739936806024598881
0.610000000000000320,0.725190932314352721
0.611000000000000432,0.710441370361673430
0.612000000000000322,0.695693162408548060
0.613000000000000433,0.680951237877098992
0.614000000000000323,0.666220414226806334
0.615000000000000435,0.651505397838913813
0.616000000000000325,0.636810784926773232
0.617000000000000437,0.622141062470713879
0.618000000000000327,0.607500609176289230
0.619000000000000439,0.592893696454560359
0.620000000000000329,0.578324489423277188
0.621000000000000441,0.563797047927730444
0.622000000000000330,0.549315327580163326
0.623000000000000442,0.534883180816563608
0.624000000000000332,0.520504357969850062
0.625000000000000444,0.506182508358227756
0.626000000000000334,0.491921181387863282
0.627000000000000446,0.477723827668694756
0.628000000000000336,0.463593800142533041
0.629000000000000448,0.449534355222402149
0.630000000000000338,0.435548653942278652
0.631000000000000449,0.421639763116212929
0.632000000000000339,0.407810656506095104
0.633000000000000451,0.394064215997086076
0.634000000000000341,0.380403232779999712
0.635000000000000453,0.366830408539698449
0.636000000000000343,0.353348356648924333
0.637000000000000455,0.339959603366556951
0.638000000000000345,0.326666589039836086
0.639000000000000457,0.313471669309603240
0.640000000000000346,0.300377116318074289
0.641000000000000458,0.287385119918307397
0.642000000000000348,0.274497788884898786
0.643000000000000460,0.261717152125108377
0.644000000000000350,0.249045159889990042
0.645000000000000462,0.236483684984785780
0.646000000000000352,0.224034523978187294
0.647000000000000464,0.211699398409754380
0.648000000000000353,0.199479955995158775
0.649000000000000465,0.187377771828555501
0.650000000000000355,0.175394349581794590
0.651000000000000467,0.163531122699842990
0.652000000000000357,0.151789455592093614
0.653000000000000469,0.140170644819049450
0.654000000000000359,0.128675920274031824
0.655000000000000471,0.117306446359471919
0.656000000000000361,0.106063323157456063
0.657000000000000473,0.094947587594088279
0.658000000000000362,0.083960214597417246
0.659000000000000474,0.073102118248514161
0.660000000000000364,0.062374152925442308
0.661000000000000476,0.051777114439750305
0.662000000000000366,0.041311741165297886
0.663000000000000478,0.030978715159021397
0.664000000000000368,0.020778663273495857
0.665000000000000480,0.010712158260926297
0.666000000000000369,0.000779719868453954
0.667000000000000481,-0.009018184075562551
