# bi-graphene_GANSCA-JS
# h[nm],U(h)[kJ/mol]
0.200000000000000011,51.007126727148559553
0.201000000000000012,49.708093254237901704
0.202000000000000013,48.362852419470627297
0.203000000000000014,47.032651258561983809
0.204000000000000015,45.739229631571689083
0.205000000000000016,44.483948923635701078
0.206000000000000016,43.259381924560479149
0.207000000000000017,42.055913721859766952
0.208000000000000018,40.865135082092642449
0.209000000000000019,39.681253456620581233
0.210000000000000020,38.501347739549338201
0.211000000000000021,37.325009934472362261
0.212000000000000022,36.153718901766652039
0.213000000000000023,34.990155117019938302
0.214000000000000024,33.837573565526255948
0.215000000000000024,32.699291714231392803
0.216000000000000025,31.578311518793704238
0.217000000000000026,30.477071764908174600
0.218000000000000027,29.397314739556815510
0.219000000000000028,28.340045725103824026
0.220000000000000029,27.305562598732354473
0.221000000000000030,26.293534160117967957
0.222000000000000031,25.303108517434040436
0.223000000000000032,24.333036152879046199
0.224000000000000032,23.381795666003416301
0.225000000000000033,22.447713357716310156
0.226000000000000034,21.529070608306632550
0.227000000000000035,20.624195348925930205
0.228000000000000036,19.731535816542791650
0.229000000000000037,18.849716242231053798
0.230000000000000038,17.977575196777333844
0.231000000000000039,17.114188060316710249
0.232000000000000040,16.258875550632982510
0.233000000000000040,15.411200492323169797
0.234000000000000041,14.570955085900385129
0.235000000000000042,13.738140885706433991
0.236000000000000043,12.912943555311816368
0.237000000000000044,12.095704269561487365
0.238000000000000045,11.286889398244987603
0.239000000000000046,10.487059856823794490
0.240000000000000047,9.696841259338402352
0.241000000000000048,8.916895768187247384
0.242000000000000048,8.147896312259851115
0.243000000000000049,7.390503643599052097
0.244000000000000050,6.645346525937883442
0.245000000000000051,5.913005197040856586
0.246000000000000052,5.193998120516162942
0.247000000000000053,4.488771940497814583
0.248000000000000054,3.797694472587166636
0.249000000000000055,3.121050504573248396
0.250000000000000056,2.459040138406415998
0.251000000000000056,1.811779378302678323
0.252000000000000057,1.179302656364643820
0.253000000000000058,0.561566984486887355
0.254000000000000059,-0.041542572510927522
0.255000000000000060,-0.630206394498762812
0.256000000000000061,-1.204663048077748044
0.257000000000000062,-1.765201524694237634
0.258000000000000063,-2.312153201978158990
0.259000000000000064,-2.845883729581839106
0.260000000000000064,-3.366785014434678480
0.261000000000000065,-3.875267454210097107
0.262000000000000066,-4.371752542503615224
0.263000000000000067,-4.856665945184274413
0.264000000000000068,-5.330431124934451148
0.265000000000000069,-5.793463570359871362
0.266000000000000070,-6.246165667370633834
0.267000000000000071,-6.688922233876645862
0.268000000000000071,-7.122096724214654451
0.269000000000000072,-7.546028097094804821
0.270000000000000073,-7.961028330148525178
0.271000000000000074,-8.367380555276167087
0.272000000000000075,-8.765337781812913676
0.273000000000000076,-9.155122168919548997
0.274000000000000077,-9.536924804421243351
0.275000000000000078,-9.910905944415713265
0.276000000000000079,-10.277195666207873614
0.277000000000000079,-10.635894886360755862
0.278000000000000080,-10.987076695742702626
0.279000000000000081,-11.330787964273849155
0.280000000000000082,-11.667051169505317176
0.281000000000000083,-11.995866405094014695
0.282000000000000084,-12.317213527560024744
0.283000000000000085,-12.631054402340197385
0.284000000000000086,-12.937335212999546030
0.285000000000000087,-13.235988800454276060
0.286000000000000087,-13.526937002136957489
0.287000000000000088,-13.810092964136135407
0.288000000000000089,-14.085363402423926260
0.289000000000000090,-14.352650792306040017
0.290000000000000091,-14.611855468154129056
0.291000000000000092,-14.862877618286907122
0.292000000000000093,-15.105619162529833943
0.293000000000000094,-15.339985502489465574
0.294000000000000095,-15.565887136915455002
0.295000000000000095,-15.783241136683979988
0.296000000000000096,-15.991972475915954277
0.297000000000000097,-16.192015217541747774
0.298000000000000098,-16.383313553242327743
0.299000000000000099,-16.565822699138273322
0.300000000000000100,-16.739509649868274721
0.301000000000000101,-16.904353794804894306
0.302000000000000102,-17.060347401103644671
0.303000000000000103,-17.207495969083375087
0.304000000000000103,-17.345818466096844190
0.305000000000000104,-17.475347445583715000
0.306000000000000105,-17.596129058411079882
0.307000000000000106,-17.708222963910220216
0.308000000000000107,-17.811702148221797870
0.309000000000000108,-17.906652657675138585
0.310000000000000109,-17.993173254960012741
0.311000000000000110,-18.071375005809120040
0.312000000000000111,-18.141380803807741984
0.313000000000000111,-18.203324840788333461
0.314000000000000112,-18.257352030062754977
0.315000000000000113,-18.303617389499351020
0.316000000000000114,-18.342285391172890030
0.317000000000000115,-18.373529284008760953
0.318000000000000116,-18.397530395515016011
0.319000000000000117,-18.414477418351218319
0.320000000000000118,-18.424565687126644775
0.321000000000000119,-18.427996450457339250
0.322000000000000119,-18.424976142943645385
0.323000000000000120,-18.415715661362888511
0.324000000000000121,-18.400429649006980526
0.325000000000000122,-18.379335791735570638
0.326000000000000123,-18.352654128963884261
0.327000000000000124,-18.320606382461939177
0.328000000000000125,-18.283415305511695692
0.329000000000000126,-18.241304054649855715
0.330000000000000127,-18.194495585919657543
0.331000000000000127,-18.143212077264969651
0.332000000000000128,-18.087674378424765109
0.333000000000000129,-18.028101489426795467
0.334000000000000130,-17.964710068535449494
0.335000000000000131,-17.897713970281465379
0.336000000000000132,-17.827323813989071510
0.337000000000000133,-17.753746583020522110
0.338000000000000134,-17.677185254777420198
0.339000000000000135,-17.597838461333324744
0.340000000000000135,-17.515900180421716925
0.341000000000000136,-17.431559456367544669
0.342000000000000137,-17.345000150428603547
0.343000000000000138,-17.256400719904114283
0.344000000000000139,-17.165934025272015617
0.345000000000000140,-17.073767164532391405
0.346000000000000141,-16.980061333862078499
0.347000000000000142,-16.884971713623606604
0.348000000000000143,-16.788647378720504832
0.349000000000000143,-16.691231232248647132
0.350000000000000144,-16.592859961360350241
0.351000000000000145,-16.493664014233154091
0.352000000000000146,-16.393767597017877335
0.353000000000000147,-16.293288689630369248
0.354000000000000148,-16.192339079247751954
0.355000000000000149,-16.091024410371723263
0.356000000000000150,-15.989444250329487573
0.357000000000000151,-15.887692169094611572
0.358000000000000151,-15.785855832327097659
0.359000000000000152,-15.684017106552039067
0.360000000000000153,-15.582252175420432394
0.361000000000000154,-15.480631666022208748
0.362000000000000155,-15.379220784251069531
0.363000000000000156,-15.278079458252188161
0.364000000000000157,-15.177262489017314451
0.365000000000000158,-15.076819707226828626
0.366000000000000159,-14.976796135474277349
0.367000000000000159,-14.877232155046069551
0.368000000000000160,-14.778163676467034549
0.369000000000000161,-14.679622313060358252
0.370000000000000162,-14.581635556809132481
0.371000000000000163,-14.484226955845386442
0.372000000000000164,-14.387416292930215178
0.373000000000000165,-14.291219764327465214
0.374000000000000166,-14.195650158510266792
0.375000000000000167,-14.100717034177147724
0.376000000000000167,-14.006426897090602068
0.377000000000000168,-13.912783375286460696
0.378000000000000169,-13.819787392237003587
0.379000000000000170,-13.727437337584666111
0.380000000000000171,-13.635729235095222833
0.381000000000000172,-13.544656907511699373
0.382000000000000173,-13.454212138019817857
0.383000000000000174,-13.364384828065889010
0.384000000000000175,-13.275163151295490849
0.385000000000000175,-13.186533703408596097
0.386000000000000176,-13.098481647752365120
0.387000000000000177,-13.010990856497183898
0.388000000000000178,-12.924044047265178747
0.389000000000000179,-12.837622915101942311
0.390000000000000180,-12.751708259703677939
0.391000000000000181,-12.666280107831131119
0.392000000000000182,-12.581317830860713869
0.393000000000000183,-12.496800257440106918
0.394000000000000183,-12.412705781232357793
0.395000000000000184,-12.329012463747426764
0.396000000000000185,-12.245698132274323910
0.397000000000000186,-12.162740472940189562
0.398000000000000187,-12.080117118934591502
0.399000000000000188,-11.997805733948727180
0.400000000000000189,-11.915784090889221858
0.401000000000000190,-11.834030145935646061
0.402000000000000191,-11.752522108019498148
0.403000000000000191,-11.671238503809751919
0.404000000000000192,-11.590158238297345150
0.405000000000000193,-11.509260651076745674
0.406000000000000194,-11.428525568428474557
0.407000000000000195,-11.347933351311127126
0.408000000000000196,-11.267464939375361865
0.409000000000000197,-11.187101891116151720
0.410000000000000198,-11.106826420282361667
0.411000000000000199,-11.026621428665094982
0.412000000000000199,-10.946470535388185041
0.413000000000000200,-10.866358102825753207
0.414000000000000201,-10.786269259272529553
0.415000000000000202,-10.706189918493265623
0.416000000000000203,-10.626106796277932531
0.417000000000000204,-10.546007424128848839
0.418000000000000205,-10.465880160205781380
0.419000000000000206,-10.385714197653950208
0.420000000000000207,-10.305499570438863444
0.421000000000000207,-10.225227156810682061
0.422000000000000208,-10.144888680518928226
0.423000000000000209,-10.064476709896931439
0.424000000000000210,-9.983984654933070857
0.425000000000000211,-9.903406762443930589
0.426000000000000212,-9.822738109462015643
0.427000000000000213,-9.741974594948356270
0.428000000000000214,-9.661112929937624827
0.429000000000000214,-9.580150626220767407
0.430000000000000215,-9.499085983667360011
0.431000000000000216,-9.417918076287129736
0.432000000000000217,-9.336646737126985229
0.433000000000000218,-9.255272542097106481
0.434000000000000219,-9.173796792816625967
0.435000000000000220,-9.092221498566301463
0.436000000000000221,-9.010549357432656947
0.437000000000000222,-8.928783736724842157
0.438000000000000222,-8.846928652742700905
0.439000000000000223,-8.764988749971104554
0.440000000000000224,-8.682969279772937199
0.441000000000000225,-8.600876078649774215
0.442000000000000226,-8.518715546136698791
0.443000000000000227,-8.436494622394297593
0.444000000000000228,-8.354220765558384443
0.445000000000000229,-8.271901928904858536
0.446000000000000230,-8.189546537884387689
0.447000000000000230,-8.107163467078823516
0.448000000000000231,-8.024762017128614033
0.449000000000000232,-7.942351891677600584
0.450000000000000233,-7.859943174379313113
0.451000000000000234,-7.777546306006042798
0.452000000000000235,-7.695172061699719457
0.453000000000000236,-7.612831528401040160
0.454000000000000237,-7.530536082491155803
0.455000000000000238,-7.448297367677736425
0.456000000000000238,-7.366127273155247401
0.457000000000000239,-7.284037912066912313
0.458000000000000240,-7.202041600294085910
0.459000000000000241,-7.120150835596343875
0.460000000000000242,-7.038378277124171412
0.461000000000000243,-6.956736725323802162
0.462000000000000244,-6.875239102252439061
0.463000000000000245,-6.793898432319839920
0.464000000000000246,-6.712727823471213995
0.465000000000000246,-6.631740448824285927
0.466000000000000247,-6.550949528772157748
0.467000000000000248,-6.470368313562000040
0.468000000000000249,-6.390010066358421170
0.469000000000000250,-6.309888046798757699
0.470000000000000251,-6.230015495046581364
0.471000000000000252,-6.150405616348198379
0.472000000000000253,-6.071071566096151173
0.473000000000000254,-5.992026435402274309
0.474000000000000254,-5.913283237182144880
0.475000000000000255,-5.834854892751564215
0.476000000000000256,-5.756754218934972300
0.477000000000000257,-5.678993915684777072
0.478000000000000258,-5.601586554209619706
0.479000000000000259,-5.524544565609163627
0.480000000000000260,-5.447880230011934444
0.481000000000000261,-5.371605666212252217
0.482000000000000262,-5.295732821801705015
0.483000000000000262,-5.220273463789920854
0.484000000000000263,-5.145239169708864857
0.485000000000000264,-5.070641319194528762
0.486000000000000265,-4.996491086039220875
0.487000000000000266,-4.922799430707399893
0.488000000000000267,-4.849577093307489761
0.489000000000000268,-4.776834587011904887
0.490000000000000269,-4.704582191916976797
0.491000000000000270,-4.632829949334445807
0.492000000000000270,-4.561587656505654564
0.493000000000000271,-4.490864861729586544
0.494000000000000272,-4.420670859895542648
0.495000000000000273,-4.351014688411027009
0.496000000000000274,-4.281905123515551637
0.497000000000000275,-4.213350676970478048
0.498000000000000276,-4.145359593115356844
0.499000000000000277,-4.077939846280874470
0.500000000000000222,-4.011099138548471110
0.501000000000000334,-3.944844897846805143
0.502000000000000224,-3.879184276375070795
0.503000000000000336,-3.814124149343080639
0.504000000000000226,-3.749671114018431783
0.505000000000000338,-3.685831489070411582
0.506000000000000227,-3.622611314201231725
0.507000000000000339,-3.560016350054200363
0.508000000000000229,-3.498052078389546349
0.509000000000000341,-3.436723702517693990
0.510000000000000231,-3.376036147980851609
0.511000000000000343,-3.315994063472845532
0.512000000000000233,-3.256601821988232448
0.513000000000000345,-3.197863522190947272
0.514000000000000234,-3.139782989993724627
0.515000000000000346,-3.082363780338679415
0.516000000000000236,-3.025609179170654972
0.517000000000000348,-2.969522205594053332
0.518000000000000238,-2.914105614204870243
0.519000000000000350,-2.859361897589099311
0.520000000000000240,-2.805293288979441080
0.521000000000000352,-2.751901765061889993
0.522000000000000242,-2.699189048924359735
0.523000000000000353,-2.647156613139291181
0.524000000000000243,-2.595805682972754269
0.525000000000000355,-2.545137239712308208
0.526000000000000245,-2.495152024106508826
0.527000000000000357,-2.445850539908586363
0.528000000000000247,-2.397233057517650145
0.529000000000000359,-2.349299617710228993
0.530000000000000249,-2.302050035455842192
0.531000000000000361,-2.255483903809810453
0.532000000000000250,-2.209600597877355188
0.533000000000000362,-2.164399278842502827
0.534000000000000252,-2.119878898056213323
0.535000000000000364,-2.076038201177662579
0.536000000000000254,-2.032875732363368826
0.537000000000000366,-1.990389838498446862
0.538000000000000256,-1.948578673465105826
0.539000000000000368,-1.907440202442914678
0.540000000000000258,-1.866972206236369392
0.541000000000000369,-1.827172285624571568
0.542000000000000259,-1.788037865728894005
0.543000000000000371,-1.749566200393837034
0.544000000000000261,-1.711754376577128145
0.545000000000000373,-1.674599318744758536
0.546000000000000263,-1.638097793267227598
0.547000000000000375,-1.602246412812952325
0.548000000000000265,-1.567041640735572727
0.549000000000000377,-1.532479795451278104
0.550000000000000266,-1.498557054803165034
0.551000000000000378,-1.465269460409190039
0.552000000000000268,-1.432612921990844335
0.553000000000000380,-1.400583221679480017
0.554000000000000270,-1.369176018297678876
0.555000000000000382,-1.338386851612826334
0.556000000000000272,-1.308211146560587457
0.557000000000000384,-1.278644217435654040
0.558000000000000274,-1.249681272047739267
0.559000000000000385,-1.221317415840429188
0.560000000000000275,-1.193547655971086030
0.561000000000000387,-1.166366905349681904
0.562000000000000277,-1.139769986634904253
0.563000000000000389,-1.113751636185722038
0.564000000000000279,-1.088306507966918080
0.565000000000000391,-1.063429177406995718
0.566000000000000281,-1.039114145207139739
0.567000000000000393,-1.015355841099861767
0.568000000000000282,-0.992148627556239893
0.569000000000000394,-0.969486803440458234
0.570000000000000284,-0.947364607610826193
0.571000000000000396,-0.925776222466145549
0.572000000000000286,-0.904715777436742030
0.573000000000000398,-0.884177352419194817
0.574000000000000288,-0.864154981154228508
0.575000000000000400,-0.844642654547050453
0.576000000000000290,-0.825634323929583802
0.577000000000000401,-0.807123904264123837
0.578000000000000291,-0.789105277288021489
0.579000000000000403,-0.771572294598954267
0.580000000000000293,-0.754518780680615064
0.581000000000000405,-0.737938535868455481
0.582000000000000295,-0.721825339255423692
0.583000000000000407,-0.706172951537471172
0.584000000000000297,-0.690975117798851790
0.585000000000000409,-0.676225570237119489
0.586000000000000298,-0.661918030827924442
0.587000000000000410,-0.648046213929614479
0.588000000000000300,-0.634603828827841943
0.589000000000000412,-0.621584582220258808
0.590000000000000302,-0.608982180641572723
0.591000000000000414,-0.596790332829193804
0.592000000000000304,-0.585002752029716744
0.593000000000000416,-0.573613158246595423
0.594000000000000306,-0.562615280429363374
0.595000000000000417,-0.552002858604751845
0.596000000000000307,-0.541769645950127332
0.597000000000000419,-0.531909410809714212
0.598000000000000309,-0.522415938654065437
0.599000000000000421,-0.513283033983211623
0.600000000000000311,-0.504504522174127334
0.601000000000000423,-0.496074251272928035
0.602000000000000313,-0.487986093732474924
0.603000000000000425,-0.480233948095837082
0.604000000000000314,-0.472811740626384647
0.605000000000000426,-0.465713426884937221
0.606000000000000316,-0.458932993254782318
0.607000000000000428,-0.452464458415053616
0.608000000000000318,-0.446301874763270934
0.609000000000000430,-0.440439329787613520
0.610000000000000320,-0.434870947389668472
0.611000000000000432,-0.429590889158339428
0.612000000000000322,-0.424593355595613897
0.613000000000000433,-0.419872587294914557
0.614000000000000323,-0.415422866072765296
0.615000000000000435,-0.411238516054485970
0.616000000000000325,-0.407313904714657393
0.617000000000000437,-0.403643443873116237
0.618000000000000327,-0.400221590647201197
0.619000000000000439,-0.397042848361010337
0.620000000000000329,-0.394101767412432136
0.621000000000000441,-0.391392946098690131
0.622000000000000330,-0.388911031401175666
0.623000000000000442,-0.386650719730300685
0.624000000000000332,-0.384606757631149765
0.625000000000000444,-0.382773942450695959
0.626000000000000334,-0.381147122967297025
0.627000000000000446,-0.379721199983283464
0.628000000000000336,-0.378491126881343620
0.629000000000000448,-0.377451910145480241
0.630000000000000338,-0.376598609847288546
0.631000000000000449,-0.375926340098287515
0.632000000000000339,-0.375430269469058664
0.633000000000000451,-0.375105621375914633
0.634000000000000341,-0.374947674435842260
0.635000000000000453,-0.374951762790461551
0.636000000000000343,-0.375113276399654416
0.637000000000000455,-0.375427661305702209
0.638000000000000345,-0.375890419868504633
0.639000000000000457,-0.376497110972695670
0.640000000000000346,-0.377243350207280670
0.641000000000000458,-0.378124810018546864
0.642000000000000348,-0.379137219836863770
0.643000000000000460,-0.380276366178120440
0.644000000000000350,-0.381538092720419164
0.645000000000000462,-0.382918300356720587
0.646000000000000352,-0.384412947224062440
0.647000000000000464,-0.386018048710039086
0.648000000000000353,-0.387729677437144038
0.649000000000000465,-0.389543963225636447
0.650000000000000355,-0.391457093035526504
0.651000000000000467,-0.393465310888320374
0.652000000000000357,-0.395564917769111069
0.653000000000000469,-0.397752271509623001
0.654000000000000359,-0.400023786652801694
0.655000000000000471,-0.402375934299506910
0.656000000000000361,-0.404805241937911231
0.657000000000000473,-0.407308293256150755
0.658000000000000362,-0.409881727938774532
0.659000000000000474,-0.412522241447544236
