# bi-graphene_NC4-AC
# h[nm],U(h)[kJ/mol]
0.200000000000000011,163.356935306551406484
0.201000000000000012,157.982689340978197379
0.202000000000000013,154.907333559134400502
0.203000000000000014,152.932713843033667445
0.204000000000000015,151.363870356048352050
0.205000000000000016,149.831162860529275349
0.206000000000000016,148.167398236781536980
0.207000000000000017,146.324629344803554432
0.208000000000000018,144.319237785718030409
0.209000000000000019,142.196903070725738871
0.210000000000000020,140.011317061907789139
0.211000000000000021,137.812196266874849471
0.212000000000000022,135.639408283411768252
0.213000000000000023,133.520965059987588575
0.214000000000000024,131.473323911570162181
0.215000000000000024,129.502938405201746264
0.216000000000000025,127.608362103867534643
0.217000000000000026,125.782464503749594087
0.218000000000000027,124.014497554114768718
0.219000000000000028,122.291873550726421627
0.220000000000000029,120.601596503255535708
0.221000000000000030,118.931340956102644668
0.222000000000000031,117.270203369753204470
0.223000000000000032,115.609167954569940662
0.224000000000000032,113.941335977457356421
0.225000000000000033,112.261968422736956086
0.226000000000000034,110.568388897777069246
0.227000000000000035,108.859788523722656350
0.228000000000000036,107.136968400488427733
0.229000000000000037,105.402048851572175181
0.230000000000000038,103.658168525480533617
0.231000000000000039,101.909190844046648294
0.232000000000000040,100.159430391797883431
0.233000000000000040,98.413407688336889123
0.234000000000000041,96.675637369020861911
0.235000000000000042,94.950452071185509340
0.236000000000000043,93.241862215108355372
0.237000000000000044,91.553450301996903704
0.238000000000000045,89.888297244289617538
0.239000000000000046,88.248937517961621779
0.240000000000000047,86.637339509602114163
0.241000000000000048,85.054907257573972856
0.242000000000000048,83.502499799568639105
0.243000000000000049,81.980464489624338853
0.244000000000000050,80.488680895413480698
0.245000000000000051,79.026612197843832064
0.246000000000000052,77.593361362886611232
0.247000000000000053,76.187729718883488772
0.248000000000000054,74.808275935232387610
0.249000000000000055,73.453373748314263025
0.250000000000000056,72.121267109293867748
0.251000000000000056,70.810121730352989289
0.252000000000000057,69.518072277617392274
0.253000000000000058,68.243264698945324653
0.254000000000000059,66.983893382660340876
0.255000000000000060,65.738233020079320568
0.256000000000000061,64.504665191885692366
0.257000000000000062,63.281699818125026979
0.258000000000000063,62.067991706262674256
0.259000000000000064,60.862352503914635804
0.260000000000000064,59.663758415172914340
0.261000000000000065,58.471354074484430896
0.262000000000000066,57.284452992289651263
0.263000000000000067,56.102534994432268434
0.264000000000000068,54.925241074868630164
0.265000000000000069,53.752366070407752829
0.266000000000000070,52.583849548868258239
0.267000000000000071,51.419765279704407135
0.268000000000000071,50.260309630205462383
0.269000000000000072,49.105789201983235159
0.270000000000000073,47.956607992637763971
0.271000000000000074,46.813254337073644251
0.272000000000000075,45.676287852617818430
0.273000000000000076,44.546326582429863095
0.274000000000000077,43.424034503136475394
0.275000000000000078,42.310109535503698908
0.276000000000000079,41.205272171533167125
0.277000000000000079,40.110254807799570642
0.278000000000000080,39.025791853249131691
0.279000000000000081,37.952610660094080686
0.280000000000000082,36.891423308880440857
0.281000000000000083,35.842919263237398297
0.282000000000000084,34.807758896179471719
0.283000000000000085,33.786567878043008761
0.284000000000000086,32.779932406092889607
0.285000000000000087,31.788395247427530421
0.286000000000000087,30.812452559912976824
0.287000000000000088,29.852551450370231834
0.288000000000000089,28.909088224996860816
0.289000000000000090,27.982407283896939987
0.290000000000000091,27.072800609505737413
0.291000000000000092,26.180507797501235245
0.292000000000000093,25.305716578390555327
0.293000000000000094,24.448563778231303445
0.294000000000000095,23.609136667802893328
0.295000000000000095,22.787474650883524419
0.296000000000000096,21.983571244035754688
0.297000000000000097,21.197376302375158019
0.298000000000000098,20.428798448126403997
0.299000000000000099,19.677707661293698749
0.300000000000000100,18.943937994434367766
0.301000000000000101,18.227290376273185046
0.302000000000000102,17.527535471691681579
0.303000000000000103,16.844416568427419634
0.304000000000000103,16.177652463598732879
0.305000000000000104,15.526940325895584039
0.306000000000000105,14.891958511929999531
0.307000000000000106,14.272369317798359489
0.308000000000000107,13.667821649358097957
0.309000000000000108,13.077953597052845325
0.310000000000000109,12.502394903320949382
0.311000000000000110,11.940769312691331905
0.312000000000000111,11.392696796597512332
0.313000000000000111,10.857795646730750150
0.314000000000000112,10.335684432400189081
0.315000000000000113,9.825983818877293885
0.316000000000000114,9.328318245074028070
0.317000000000000115,8.842317460144380803
0.318000000000000116,8.367617919709697816
0.319000000000000117,7.903864043397208938
0.320000000000000118,7.450709336251800430
0.321000000000000119,7.007817377340695764
0.322000000000000119,6.574862679525419473
0.323000000000000120,6.151531424932428216
0.324000000000000121,5.737522081117110595
0.325000000000000122,5.332545903296209033
0.326000000000000123,4.936327328324226826
0.327000000000000124,4.548604266317726186
0.328000000000000125,4.169128295994015687
0.329000000000000126,3.797664769893957182
0.330000000000000127,3.433992835706539459
0.331000000000000127,3.077905379913923767
0.332000000000000128,2.729208899932284549
0.333000000000000129,2.387723310842837954
0.334000000000000130,2.053281692693366800
0.335000000000000131,1.725729984206538337
0.336000000000000132,1.404926628564117763
0.337000000000000133,1.090742176746242853
0.338000000000000134,0.783058853698494040
0.339000000000000135,0.481770092379696535
0.340000000000000135,0.186780040510276357
0.341000000000000136,-0.101996955397975778
0.342000000000000137,-0.384636884396622247
0.343000000000000138,-0.661206619754770353
0.344000000000000139,-0.931764478079809555
0.345000000000000140,-1.196360785322001075
0.346000000000000141,-1.455038446330252366
0.347000000000000142,-1.707833514872100666
0.348000000000000143,-1.954775761273027657
0.349000000000000143,-2.195889235066163625
0.350000000000000144,-2.431192820273676780
0.351000000000000145,-2.660700781163376494
0.352000000000000146,-2.884423296539600390
0.353000000000000147,-3.102366980833491716
0.354000000000000148,-3.314535390456184505
0.355000000000000149,-3.520929514067060673
0.356000000000000150,-3.721548245588986337
0.357000000000000151,-3.916388838972758801
0.358000000000000151,-4.105447343873938948
0.359000000000000152,-4.288719021556486766
0.360000000000000153,-4.466198740480244567
0.361000000000000154,-4.637881351161230903
0.362000000000000155,-4.803762040018462187
0.363000000000000156,-4.963836662035079783
0.364000000000000157,-5.118102052167811777
0.365000000000000158,-5.266556315536982780
0.366000000000000159,-5.409199096517761873
0.367000000000000159,-5.546031826936139275
0.368000000000000160,-5.677057953646064803
0.369000000000000161,-5.802283145831746758
0.370000000000000162,-5.921715482438542288
0.371000000000000163,-6.035365620189201863
0.372000000000000164,-6.143246942689229328
0.373000000000000165,-6.245375691166040966
0.374000000000000166,-6.341771077422414749
0.375000000000000167,-6.432455379614028246
0.376000000000000167,-6.517454021487137261
0.377000000000000168,-6.596795635732236818
0.378000000000000169,-6.670512112125936532
0.379000000000000170,-6.738638631145808411
0.380000000000000171,-6.801213683751055505
0.381000000000000172,-6.858279078027043951
0.382000000000000173,-6.909879933393622942
0.383000000000000174,-6.956064663076112708
0.384000000000000175,-6.996884945534077360
0.385000000000000175,-7.032395685536736885
0.386000000000000176,-7.062654965566089516
0.387000000000000177,-7.087723988217652149
0.388000000000000178,-7.107667010257708640
0.389000000000000179,-7.122551268981358596
0.390000000000000180,-7.132446901501485748
0.391000000000000181,-7.137426857582015671
0.392000000000000182,-7.137566806611870263
0.393000000000000183,-7.132945039297810652
0.394000000000000183,-7.123642364635488278
0.395000000000000184,-7.109742002698633989
0.396000000000000185,-7.091329473766141867
0.397000000000000186,-7.068492484286707622
0.398000000000000187,-7.041320810159893639
0.399000000000000188,-7.009906177791909165
0.400000000000000189,-6.974342143363237767
0.401000000000000190,-6.934723970724805397
0.402000000000000191,-6.891148508318378774
0.403000000000000191,-6.843714065496229182
0.404000000000000192,-6.792520288594988465
0.405000000000000193,-6.737668037098150542
0.406000000000000194,-6.679259260202181636
0.407000000000000195,-6.617396874081643787
0.408000000000000196,-6.552184640129526727
0.409000000000000197,-6.483727044430696473
0.410000000000000198,-6.412129178708201316
0.411000000000000199,-6.337496622964043702
0.412000000000000199,-6.259935330019754218
0.413000000000000200,-6.179551512144654701
0.414000000000000201,-6.096451529944368453
0.415000000000000202,-6.010741783666007088
0.416000000000000203,-5.922528607062137240
0.417000000000000204,-5.831918163940745359
0.418000000000000205,-5.739016347515039307
0.419000000000000206,-5.643928682653593931
0.420000000000000207,-5.546760231118442519
0.421000000000000207,-5.447615499867355382
0.422000000000000208,-5.346598352484013716
0.423000000000000209,-5.243811923790043572
0.424000000000000210,-5.139358537681496308
0.425000000000000211,-5.033339628223002293
0.426000000000000212,-4.925855664023627511
0.427000000000000213,-4.817006075909170626
0.428000000000000214,-4.706889187898033455
0.429000000000000214,-4.595602151479424080
0.430000000000000215,-4.483240883185651171
0.431000000000000216,-4.369900005443672519
0.432000000000000217,-4.255672790684035256
0.433000000000000218,-4.140651108680176051
0.434000000000000219,-4.024925377085013523
0.435000000000000220,-3.908584515127098147
0.436000000000000221,-3.791715900423514363
0.437000000000000222,-3.674405328862709208
0.438000000000000222,-3.556736977506501862
0.439000000000000223,-3.438793370456760812
0.440000000000000224,-3.320655347629250631
0.441000000000000225,-3.202402036373888539
0.442000000000000226,-3.084110825878682682
0.443000000000000227,-2.965857344291487063
0.444000000000000228,-2.847715438492484541
0.445000000000000229,-2.729757156448012534
0.446000000000000230,-2.612052732075041295
0.447000000000000230,-2.494670572544572362
0.448000000000000231,-2.377677247950740202
0.449000000000000232,-2.261137483271885795
0.450000000000000233,-2.145114152549468578
0.451000000000000234,-2.029668275209600470
0.452000000000000235,-1.914859014452587660
0.453000000000000236,-1.800743677634991879
0.454000000000000237,-1.687377718569543106
0.455000000000000238,-1.574814741667847295
0.456000000000000238,-1.463106507851680727
0.457000000000000239,-1.352302942158813304
0.458000000000000240,-1.242452142970314588
0.459000000000000241,-1.133600392786413780
0.460000000000000242,-1.025792170479679744
0.461000000000000243,-0.919070164954234103
0.462000000000000244,-0.813475290141719265
0.463000000000000245,-0.709046701264727797
0.464000000000000246,-0.605821812300728291
0.465000000000000246,-0.503836314579802158
0.466000000000000247,-0.403124196451201289
0.467000000000000248,-0.303717763955028697
0.468000000000000249,-0.205647662436730633
0.469000000000000250,-0.108942899043301594
0.470000000000000251,-0.013630866041838807
0.471000000000000252,0.080262635097771456
0.472000000000000253,0.172713368912380011
0.473000000000000254,0.263698640502570025
0.474000000000000254,0.353197269490488519
0.475000000000000255,0.441189563430580745
0.476000000000000256,0.527657290723636430
0.477000000000000257,0.612583653082987456
0.478000000000000258,0.695953257600317232
0.479000000000000259,0.777752088456733714
0.480000000000000260,0.857967478323428123
0.481000000000000261,0.936588079494702130
0.482000000000000262,1.013603834794396530
0.483000000000000262,1.089005948295525883
0.484000000000000263,1.162786855891320581
0.485000000000000264,1.234940195754270054
0.486000000000000265,1.305460778718528392
0.487000000000000266,1.374344558619447154
0.488000000000000267,1.441588602622620341
0.489000000000000268,1.507191061573383450
0.490000000000000269,1.571151140396537471
0.491000000000000270,1.633469068574325389
0.492000000000000270,1.694146070729866338
0.493000000000000271,1.753184337341481269
0.494000000000000272,1.810586995612391004
0.495000000000000273,1.866358080518986551
0.496000000000000274,1.920502506059403203
0.497000000000000275,1.973026036723378951
0.498000000000000276,2.023935259202776393
0.499000000000000277,2.073237554361366808
0.500000000000000222,2.120941069481222296
0.501000000000000334,2.167054690801961225
0.502000000000000224,2.211588016368134735
0.503000000000000336,2.254551329199118825
0.504000000000000226,2.295955570794579792
0.505000000000000338,2.335812314988167770
0.506000000000000227,2.374133742160453142
0.507000000000000339,2.410932613822092119
0.508000000000000229,2.446222247576520736
0.509000000000000341,2.480016492471311729
0.510000000000000231,2.512329704745962733
0.511000000000000343,2.543176723983715526
0.512000000000000233,2.572572849673659956
0.513000000000000345,2.600533818189141755
0.514000000000000234,2.627075780187364984
0.515000000000000346,2.652215278435010148
0.516000000000000236,2.675969226063301676
0.517000000000000348,2.698354885256026847
0.518000000000000238,2.719389846372976649
0.519000000000000350,2.739092007510976590
0.520000000000000240,2.757479554503976082
0.521000000000000352,2.774570941363204035
0.522000000000000242,2.790384871157985280
0.523000000000000353,2.804940277337196086
0.524000000000000243,2.818256305491054103
0.525000000000000355,2.830352295552336805
0.526000000000000245,2.841247764435883560
0.527000000000000357,2.850962389114768403
0.528000000000000247,2.859515990131138441
0.529000000000000359,2.866928515539495237
0.530000000000000249,2.873220025279693779
0.531000000000000361,2.878410675976771582
0.532000000000000250,2.882520706164384272
0.533000000000000362,2.885570421928307816
0.534000000000000252,2.887580182966326792
0.535000000000000364,2.888570389060383103
0.536000000000000254,2.888561466956911516
0.537000000000000366,2.887573857650814979
0.538000000000000256,2.885628004068538477
0.539000000000000368,2.882744339145366652
0.540000000000000258,2.878943274292025567
0.541000000000000369,2.874245188245425631
0.542000000000000259,2.868670416298320536
0.543000000000000371,2.862239239902418131
0.544000000000000261,2.854971876639504469
0.545000000000000373,2.846888470554877593
0.546000000000000263,2.838009082847481768
0.547000000000000375,2.828353682910790923
0.548000000000000265,2.817942139718724981
0.549000000000000377,2.806794213550495520
0.550000000000000266,2.794929548048546764
0.551000000000000378,2.782367662603343117
0.552000000000000268,2.769127945059138618
0.553000000000000380,2.755229644734385808
0.554000000000000270,2.740691865750810585
0.555000000000000382,2.725533560664885613
0.556000000000000272,2.709773524395568067
0.557000000000000384,2.693430388442132895
0.558000000000000274,2.676522615385885207
0.559000000000000385,2.659068493669634492
0.560000000000000275,2.641086132648763574
0.561000000000000387,2.622593457907687942
0.562000000000000277,2.603608206835790639
0.563000000000000389,2.584147924456480450
0.564000000000000279,2.564229959503579792
0.565000000000000391,2.543871460738858392
0.566000000000000281,2.523089373504897370
0.567000000000000393,2.501900436507200176
0.568000000000000282,2.480321178819847816
0.569000000000000394,2.458367917108717382
0.570000000000000284,2.436056753066716318
0.571000000000000396,2.413403571055050101
0.572000000000000286,2.390424035945156511
0.573000000000000398,2.367133591155543559
0.574000000000000288,2.343547456878153579
0.575000000000000400,2.319680628488624219
0.576000000000000290,2.295547875135358851
0.577000000000000401,2.271163738501786433
0.578000000000000291,2.246542531736845483
0.579000000000000403,2.221698338548385276
0.580000000000000293,2.196645012454502055
0.581000000000000405,2.171396176187684546
0.582000000000000295,2.145965221247067678
0.583000000000000407,2.120365307593669257
0.584000000000000297,2.094609363484176257
0.585000000000000409,2.068710085438226987
0.586000000000000298,2.042679938335033363
0.587000000000000410,2.016531155634333494
0.588000000000000300,1.990275739717735970
0.589000000000000412,1.963925462345680995
0.590000000000000302,1.937491865226104837
0.591000000000000414,1.910986260690258787
0.592000000000000304,1.884419732472001119
0.593000000000000416,1.857803136586139825
0.594000000000000306,1.831147102302163265
0.595000000000000417,1.804462033209361049
0.596000000000000307,1.777758108369694501
0.597000000000000419,1.751045283554524490
0.598000000000000309,1.724333292561771147
0.599000000000000421,1.697631648609940980
0.600000000000000311,1.670949645805479999
0.601000000000000423,1.644296360680140179
0.602000000000000313,1.617680653795153800
0.603000000000000425,1.591111171408820635
0.604000000000000314,1.564596347204548321
0.605000000000000426,1.538144404076148719
0.606000000000000316,1.511763355967557398
0.607000000000000428,1.485461009763886064
0.608000000000000318,1.459244967231154488
0.609000000000000430,1.433122627001789606
0.610000000000000320,1.407101186603358478
0.611000000000000432,1.381187644527718694
0.612000000000000322,1.355388802338314047
0.613000000000000433,1.329711266812826809
0.614000000000000323,1.304161452119063869
0.615000000000000435,1.278745582021504790
0.616000000000000325,1.253469692116464751
0.617000000000000437,1.228339632093431666
0.618000000000000327,1.203361068020631475
0.619000000000000439,1.178539484652624258
0.620000000000000329,1.153880187757983622
0.621000000000000441,1.129388306465025194
0.622000000000000330,1.105068795623821876
0.623000000000000442,1.080926438182463478
0.624000000000000332,1.056965847576085249
0.625000000000000444,1.033191470126567424
0.626000000000000334,1.009607587451631705
0.627000000000000446,0.986218318881397549
0.628000000000000336,0.963027623881088646
0.629000000000000448,0.940039304478191062
0.630000000000000338,0.917257007692830029
0.631000000000000449,0.894684227969677282
0.632000000000000339,0.872324309610394644
0.633000000000000451,0.850180449204952948
0.634000000000000341,0.828255698060909040
0.635000000000000453,0.806552964629078217
0.636000000000000343,0.785075016924862590
0.637000000000000455,0.763824484943669391
0.638000000000000345,0.742803863069751324
0.639000000000000457,0.722015512477119925
0.640000000000000346,0.701461663521784073
0.641000000000000458,0.681144418124176698
0.642000000000000348,0.661065752141032248
0.643000000000000460,0.641227517725657448
0.644000000000000350,0.621631445676002481
0.645000000000000462,0.602279147769445466
0.646000000000000352,0.583172119083849472
0.647000000000000464,0.564311740303864329
0.648000000000000353,0.545699280012049814
0.649000000000000465,0.527335896963920581
0.650000000000000355,0.509222642346540799
0.651000000000000467,0.491360462019830913
0.652000000000000357,0.473750198740208628
0.653000000000000469,0.456392594365928439
0.654000000000000359,0.439288292043667483
0.655000000000000471,0.422437838375862185
0.656000000000000361,0.405841685568356758
0.657000000000000473,0.389500193557922370
0.658000000000000362,0.373413632119292127
0.659000000000000474,0.357582182951298511
0.660000000000000364,0.342005941741820252
0.661000000000000476,0.326684920211129104
0.662000000000000366,0.311619048133469412
0.663000000000000478,0.296808175336441771
0.664000000000000368,0.282252073678099846
0.665000000000000480,0.267950439001343466
0.666000000000000369,0.253902893065584723
0.667000000000000481,0.240108985455333490
