# bi-graphene_GLNSCA-AC
# h[nm],U(h)[kJ/mol]
0.149999999999999994,92.104397862769118888
0.150999999999999995,88.752652969421561124
0.151999999999999996,86.560372129521198303
0.152999999999999997,84.628399794573581971
0.153999999999999998,82.634196025508899197
0.154999999999999999,80.523105104235270346
0.156000000000000000,78.342844242526709309
0.157000000000000001,76.161878204903601386
0.158000000000000002,74.034827465708559657
0.159000000000000002,71.992600933662487250
0.160000000000000003,70.044200640306513606
0.161000000000000004,68.182918868245764088
0.162000000000000005,66.393156000103076053
0.163000000000000006,64.656145217363956590
0.164000000000000007,62.954018220148462603
0.165000000000000008,61.272237811815600139
0.166000000000000009,59.600686276666429819
0.167000000000000010,57.933777005822264528
0.168000000000000010,56.269939654540472418
0.169000000000000011,54.610769270371086748
0.170000000000000012,52.960057480661362206
0.171000000000000013,51.322854879520249938
0.172000000000000014,49.704655498323226936
0.173000000000000015,48.110748981253337320
0.174000000000000016,46.545753421558778484
0.175000000000000017,45.013320056758580279
0.176000000000000018,43.515988021917387130
0.177000000000000018,42.055160969949426431
0.178000000000000019,40.631175670832689661
0.179000000000000020,39.243434109951216726
0.180000000000000021,37.890573875404825799
0.181000000000000022,36.570655827696739948
0.182000000000000023,35.281352526368458200
0.183000000000000024,34.020125210108083991
0.184000000000000025,32.784381022963721364
0.185000000000000026,31.571605509327021366
0.186000000000000026,30.379468113944472663
0.187000000000000027,29.205900530562892925
0.188000000000000028,28.049149292069824213
0.189000000000000029,26.907805055425018992
0.190000000000000030,25.780811684627963132
0.191000000000000031,24.667458553560980050
0.192000000000000032,23.567359552388026600
0.193000000000000033,22.480422153208110103
0.194000000000000034,21.406809630586177917
0.195000000000000034,20.346899188481518905
0.196000000000000035,19.301238355687218018
0.197000000000000036,18.270501607296019131
0.198000000000000037,17.255448772424983872
0.199000000000000038,16.256886414464055690
0.200000000000000039,15.275633030057429451
0.201000000000000040,14.312488613117944070
0.202000000000000041,13.368208873235307266
0.203000000000000042,12.443484184107006740
0.204000000000000042,11.538923165452098729
0.205000000000000043,10.655040668332880216
0.206000000000000044,9.792249835152846416
0.207000000000000045,8.950857837633993341
0.208000000000000046,8.131064854454317370
0.209000000000000047,7.332965830663487061
0.210000000000000048,6.556554559416918337
0.211000000000000049,5.801729639218330625
0.212000000000000050,5.068301883348718562
0.213000000000000050,4.356002789512041673
0.214000000000000051,3.664493714369675637
0.215000000000000052,2.993375437404927286
0.216000000000000053,2.342197839664989178
0.217000000000000054,1.710469463931454159
0.218000000000000055,1.097666762645289840
0.219000000000000056,0.503242877610762251
0.220000000000000057,-0.073364169490059708
0.221000000000000058,-0.632723964822125340
0.222000000000000058,-1.175406928829009878
0.223000000000000059,-1.701978316678226077
0.224000000000000060,-2.212993006282929720
0.225000000000000061,-2.708991069029923260
0.226000000000000062,-3.190494103058379771
0.227000000000000063,-3.658002296584206281
0.228000000000000064,-4.111992179107333278
0.229000000000000065,-4.552915011115064026
0.230000000000000066,-4.981195757831931026
0.231000000000000066,-5.397232589401776082
0.232000000000000067,-5.801396848356551672
0.233000000000000068,-6.194033425083221189
0.234000000000000069,-6.575461483010428765
0.235000000000000070,-6.945975477185989178
0.236000000000000071,-7.305846412608349105
0.237000000000000072,-7.655323291935884455
0.238000000000000073,-7.994634705868897129
0.239000000000000073,-8.323990523445331746
0.240000000000000074,-8.643583643596276289
0.241000000000000075,-8.953591773467792336
0.242000000000000076,-9.254179203150494359
0.243000000000000077,-9.545498550498242807
0.244000000000000078,-9.827692453606122314
0.245000000000000079,-10.100895192213709350
0.246000000000000080,-10.365234222769281303
0.247000000000000081,-10.620831615112646062
0.248000000000000081,-10.867805381692097200
0.249000000000000082,-11.106270692918464249
0.250000000000000111,-11.336340974674357085
0.251000000000000112,-11.558128886140966785
0.252000000000000113,-11.771747177988657995
0.253000000000000114,-11.977309432605586892
0.254000000000000115,-12.174930689430304653
0.255000000000000115,-12.364727959617340503
0.256000000000000116,-12.546820635219622986
0.257000000000000117,-12.721330798832351405
0.258000000000000118,-12.888383440226004240
0.259000000000000119,-13.048106586920473760
0.260000000000000120,-13.200631355932221922
0.261000000000000121,-13.346091934079009178
0.262000000000000122,-13.484625494268053458
0.263000000000000123,-13.616372055136864105
0.264000000000000123,-13.741474291277294029
0.265000000000000124,-13.860077301063387978
0.266000000000000125,-13.972328338836442541
0.267000000000000126,-14.078376517885748953
0.268000000000000127,-14.178372490312094456
0.269000000000000128,-14.272468109481319942
0.270000000000000129,-14.360816080375901294
0.271000000000000130,-14.443569602740902624
0.272000000000000131,-14.520882011502360243
0.273000000000000131,-14.592906418517895162
0.274000000000000132,-14.659795359304672147
0.275000000000000133,-14.721700447984130022
0.276000000000000134,-14.778772043288446625
0.277000000000000135,-14.831158928093771010
0.278000000000000136,-14.879008004582619407
0.279000000000000137,-14.922464006793228819
0.280000000000000138,-14.961669231989242590
0.281000000000000139,-14.996763291979601007
0.282000000000000139,-15.027882885236223842
0.283000000000000140,-15.055161590396707538
0.284000000000000141,-15.078729681500451676
0.285000000000000142,-15.098713965089462619
0.286000000000000143,-15.115237639108949352
0.287000000000000144,-15.128420173366938783
0.288000000000000145,-15.138377211156910818
0.289000000000000146,-15.145220491509794769
0.290000000000000147,-15.149057791423752306
0.291000000000000147,-15.149992887317813128
0.292000000000000148,-15.148125534870592546
0.293000000000000149,-15.143551466334319144
0.294000000000000150,-15.136362404358388645
0.295000000000000151,-15.126646091313144638
0.296000000000000152,-15.114486333072989055
0.297000000000000153,-15.099963056197569955
0.298000000000000154,-15.083152377439006386
0.299000000000000155,-15.064126684501440323
0.300000000000000155,-15.042954726985481528
0.301000000000000156,-15.019701716463661256
0.302000000000000157,-14.994429434652555955
0.303000000000000158,-14.967196348672567652
0.304000000000000159,-14.938057732416259782
0.305000000000000160,-14.907065793079828708
0.306000000000000161,-14.874269801950021019
0.307000000000000162,-14.839716228578421209
0.308000000000000163,-14.803448877517499938
0.309000000000000163,-14.765509026836539874
0.310000000000000164,-14.725935567680915383
0.311000000000000165,-14.684765144183604235
0.312000000000000166,-14.642032293084534800
0.313000000000000167,-14.597769582459331872
0.314000000000000168,-14.552007749004976844
0.315000000000000169,-14.504775833375580518
0.316000000000000170,-14.456101313105904183
0.317000000000000171,-14.406010232703906127
0.318000000000000171,-14.354527330536077656
0.319000000000000172,-14.301676162170485540
0.320000000000000173,-14.247479219881995505
0.321000000000000174,-14.191958048062161879
0.322000000000000175,-14.135133354312856113
0.323000000000000176,-14.077025116037271246
0.324000000000000177,-14.017652682374881934
0.325000000000000178,-13.957034871357961947
0.326000000000000179,-13.895190062196936864
0.327000000000000179,-13.832136282628855639
0.328000000000000180,-13.767891291289251043
0.329000000000000181,-13.702472655091757048
0.330000000000000182,-13.635897821621323800
0.331000000000000183,-13.568184186568254646
0.332000000000000184,-13.499349156248062087
0.333000000000000185,-13.429410205270045253
0.334000000000000186,-13.358384929432537191
0.335000000000000187,-13.286291093936942076
0.336000000000000187,-13.213146677025358500
0.337000000000000188,-13.138969909157399485
0.338000000000000189,-13.063779307852053435
0.339000000000000190,-12.987593708328597941
0.340000000000000191,-12.910432290088106555
0.341000000000000192,-12.832314599583332537
0.342000000000000193,-12.753260569129606594
0.343000000000000194,-12.673290532213933091
0.344000000000000195,-12.592425235362053826
0.345000000000000195,-12.510685846726236292
0.346000000000000196,-12.428093961557360458
0.347000000000000197,-12.344671604726006109
0.348000000000000198,-12.260441230457173489
0.349000000000000199,-12.175425719442467098
0.350000000000000200,-12.089648373492650535
0.351000000000000201,-12.003132907891480130
0.352000000000000202,-11.915903441609605906
0.353000000000000203,-11.827984485534672743
0.354000000000000203,-11.739400928870653118
0.355000000000000204,-11.650178023856005538
0.356000000000000205,-11.560341368946652096
0.357000000000000206,-11.469916890605722060
0.358000000000000207,-11.378930823837679398
0.359000000000000208,-11.287409691600354122
0.360000000000000209,-11.195380283223506979
0.361000000000000210,-11.102869631958109053
0.362000000000000210,-11.009904991775492533
0.363000000000000211,-10.916513813530864141
0.364000000000000212,-10.822723720600665231
0.365000000000000213,-10.728562484098160823
0.366000000000000214,-10.634057997766927173
0.367000000000000215,-10.539238252646690341
0.368000000000000216,-10.444131311601267953
0.369000000000000217,-10.348765283793230907
0.370000000000000218,-10.253168299185306367
0.371000000000000218,-10.157368483143555338
0.372000000000000219,-10.061393931212821329
0.373000000000000220,-9.965272684130283665
0.374000000000000221,-9.869032703138527651
0.375000000000000222,-9.772701845654992781
0.376000000000000223,-9.676307841350567429
0.377000000000000224,-9.579878268685869003
0.378000000000000225,-9.483440531949716146
0.379000000000000226,-9.387021838840347243
0.380000000000000226,-9.290649178626399163
0.381000000000000227,-9.194349300920659829
0.382000000000000228,-9.098148695096519134
0.383000000000000229,-9.002073570373436695
0.384000000000000230,-8.906149836594490665
0.385000000000000231,-8.810403085716323801
0.386000000000000232,-8.714858574028445659
0.387000000000000233,-8.619541205116380667
0.388000000000000234,-8.524475513580279440
0.389000000000000234,-8.429685649518287249
0.390000000000000235,-8.335195363781316757
0.391000000000000236,-8.241027994003900403
0.392000000000000237,-8.147206451413373074
0.393000000000000238,-8.053753208417919751
0.394000000000000239,-7.960690286971825458
0.395000000000000240,-7.868039247714841977
0.396000000000000241,-7.775821179880630041
0.397000000000000242,-7.684056691967859010
0.398000000000000242,-7.592765903166169394
0.399000000000000243,-7.501968435527714973
0.400000000000000244,-7.411683406873865287
0.401000000000000245,-7.321929424425680288
0.402000000000000246,-7.232724579145464183
0.403000000000000247,-7.144086440775929248
0.404000000000000248,-7.056032053562736550
0.405000000000000249,-6.968577932645255935
0.406000000000000250,-6.881740061099762329
0.407000000000000250,-6.795533887618782742
0.408000000000000251,-6.709974324809577340
0.409000000000000252,-6.625075748094529260
0.410000000000000253,-6.540851995195566815
0.411000000000000254,-6.457316366184635115
0.412000000000000255,-6.374481624081798081
0.413000000000000256,-6.292359995982472753
0.414000000000000257,-6.210963174694963840
0.415000000000000258,-6.130302320869599697
0.416000000000000258,-6.050388065600434295
0.417000000000000259,-5.971230513480694668
0.418000000000000260,-5.892839246093048544
0.419000000000000261,-5.815223325915792607
0.420000000000000262,-5.738391300626330960
0.421000000000000263,-5.662351207783285822
0.422000000000000264,-5.587110579868772575
0.423000000000000265,-5.512676449672559542
0.424000000000000266,-5.439055356000254804
0.425000000000000266,-5.366253349687458041
0.426000000000000267,-5.294275999902561480
0.427000000000000268,-5.223128400720848497
0.428000000000000269,-5.152815177952970060
0.429000000000000270,-5.083340496211222970
0.430000000000000271,-5.014708066197234970
0.431000000000000272,-4.946921152195245419
0.432000000000000273,-4.879982579755271388
0.433000000000000274,-4.813894743551082378
0.434000000000000274,-4.748659615398012512
0.435000000000000275,-4.684278752416259017
0.436000000000000276,-4.620753305325608906
0.437000000000000277,-4.558084026857833315
0.438000000000000278,-4.496271280273617776
0.439000000000000279,-4.435315047971119640
0.440000000000000280,-4.375214940173668410
0.441000000000000281,-4.315970203684604378
0.442000000000000282,-4.257579730697649723
0.443000000000000282,-4.200042067651479805
0.444000000000000283,-4.143355424117769914
0.445000000000000284,-4.087517681712257378
0.446000000000000285,-4.032526403018702688
0.447000000000000286,-3.978378840516312742
0.448000000000000287,-3.925071945501147574
0.449000000000000288,-3.872602376992870798
0.450000000000000289,-3.820966510618211576
0.451000000000000290,-3.770160447463116959
0.452000000000000290,-3.720180022885872795
0.453000000000000291,-3.671020815283777772
0.454000000000000292,-3.622678154806437512
0.455000000000000293,-3.575147132008934303
0.456000000000000294,-3.528422606438666342
0.457000000000000295,-3.482499215149791105
0.458000000000000296,-3.437371381139679105
0.459000000000000297,-3.393033321702060956
0.460000000000000298,-3.349479056691811785
0.461000000000000298,-3.306702416696726488
0.462000000000000299,-3.264697051111859594
0.463000000000000300,-3.223456436112289047
0.464000000000000301,-3.182973882520521158
0.465000000000000302,-3.143242543564974234
0.466000000000000303,-3.104255422526201791
0.467000000000000304,-3.066005380267862179
0.468000000000000305,-3.028485142649683048
0.469000000000000306,-2.991687307819792974
0.470000000000000306,-2.955604353384234884
0.471000000000000307,-2.920228643451438622
0.472000000000000308,-2.885552435549945560
0.473000000000000309,-2.851567887417605363
0.474000000000000310,-2.818267063660884197
0.475000000000000311,-2.785641942282965022
0.476000000000000312,-2.753684421079690914
0.477000000000000313,-2.722386323902299843
0.478000000000000314,-2.691739406786381572
0.479000000000000314,-2.661735363946490018
0.480000000000000315,-2.632365833635939012
0.481000000000000316,-2.603622403871695745
0.482000000000000317,-2.575496618024134765
0.483000000000000318,-2.547979980271841693
0.484000000000000319,-2.521063960921531510
0.485000000000000320,-2.494740001593514389
0.486000000000000321,-2.468999520273049253
0.487000000000000322,-2.443833916228178360
0.488000000000000322,-2.419234574794669523
0.489000000000000323,-2.395192872028879982
0.490000000000000324,-2.371700179229331074
0.491000000000000325,-2.348747867328006667
0.492000000000000326,-2.326327311152334154
0.493000000000000327,-2.304429893559048370
0.494000000000000328,-2.283047009441076192
0.495000000000000329,-2.262170069608720802
0.496000000000000330,-2.241790504546482765
0.497000000000000330,-2.221899768046914581
0.498000000000000331,-2.202489340722940003
0.499000000000000332,-2.183550733400184907
0.500000000000000333,-2.165075490390845570
0.501000000000000334,-2.147055192650693556
0.502000000000000335,-2.129481460820894512
0.503000000000000336,-2.112345958156304437
0.504000000000000337,-2.095640393341956287
0.505000000000000338,-2.079356523199501261
0.506000000000000338,-2.063486155285397139
0.507000000000000339,-2.048021150382607125
0.508000000000000340,-2.032953424887678828
0.509000000000000341,-2.018274953095039237
0.510000000000000342,-2.003977769380365537
0.511000000000000343,-1.990053970284897389
0.512000000000000344,-1.976495716502608690
0.513000000000000345,-1.963295234772111097
0.514000000000000346,-1.950444819675229535
0.515000000000000346,-1.937936835344116648
0.516000000000000347,-1.925763717078834869
0.517000000000000348,-1.913917972877374085
0.518000000000000349,-1.902392184879905912
0.519000000000000350,-1.891179010729286514
0.520000000000000351,-1.880271184849674260
0.521000000000000352,-1.869661519645138936
0.522000000000000353,-1.859342906620194302
0.523000000000000353,-1.849308317424086301
0.524000000000000354,-1.839550804820766716
0.525000000000000355,-1.830063503586345064
0.526000000000000356,-1.820839631335903430
0.527000000000000357,-1.811872489281504794
0.528000000000000358,-1.803155462923172081
0.529000000000000359,-1.794682022674680244
0.530000000000000360,-1.786445724425903325
0.531000000000000361,-1.778440210043505942
0.532000000000000361,-1.770659207811692282
0.533000000000000362,-1.763096532814765638
0.534000000000000363,-1.755746087263171162
0.535000000000000364,-1.748601860764710469
0.536000000000000365,-1.741657930542595878
0.537000000000000366,-1.734908461601960550
0.538000000000000367,-1.728347706846445231
0.539000000000000368,-1.721970007146460757
0.540000000000000369,-1.715769791360654661
0.541000000000000369,-1.709741576312171718
0.542000000000000370,-1.703879966721180805
0.543000000000000371,-1.698179655095173102
0.544000000000000372,-1.692635421578512434
0.545000000000000373,-1.687242133762651530
0.546000000000000374,-1.681994746458441714
0.547000000000000375,-1.676888301431919359
0.548000000000000376,-1.671917927104957569
0.549000000000000377,-1.667078838222076698
0.550000000000000377,-1.662366335484750435
0.551000000000000378,-1.657775805154506399
0.552000000000000379,-1.653302718626040502
0.553000000000000380,-1.648942631971634709
0.554000000000000381,-1.644691185458021510
0.555000000000000382,-1.640544103036947421
0.556000000000000383,-1.636497191810520224
0.557000000000000384,-1.632546341472541629
0.558000000000000385,-1.628687523726876307
0.559000000000000385,-1.624916791683979955
0.560000000000000386,-1.621230279236594907
0.561000000000000387,-1.617624200415707092
0.562000000000000388,-1.614094848727714915
0.563000000000000389,-1.610638596473824791
0.564000000000000390,-1.607251894052617258
0.565000000000000391,-1.603931269246724911
0.566000000000000392,-1.600673326494537863
0.567000000000000393,-1.597474746147803826
0.568000000000000393,-1.594332283716010767
0.569000000000000394,-1.591242769098384580
0.570000000000000395,-1.588203105804311566
0.571000000000000396,-1.585210270162990653
0.572000000000000397,-1.582261310523109810
0.573000000000000398,-1.579353346443241657
0.574000000000000399,-1.576483567873770086
0.575000000000000400,-1.573649234330984026
0.576000000000000401,-1.570847674064070887
0.577000000000000401,-1.568076283215675826
0.578000000000000402,-1.565332524976663420
0.579000000000000403,-1.562613928735707036
0.580000000000000404,-1.559918089224343829
0.581000000000000405,-1.557242665658056691
0.582000000000000406,-1.554585380873969358
0.583000000000000407,-1.551944020465712226
0.584000000000000408,-1.549316431915983561
0.585000000000000409,-1.546700523727323251
0.586000000000000409,-1.544094264551628903
0.587000000000000410,-1.541495682318850813
0.588000000000000411,-1.538902863365371854
0.589000000000000412,-1.536313951562509050
0.590000000000000413,-1.533727147445560712
0.591000000000000414,-1.531140707343834784
0.592000000000000415,-1.528552942512061419
0.593000000000000416,-1.525962218263553494
0.594000000000000417,-1.523366953105526722
0.595000000000000417,-1.520765617876904008
0.596000000000000418,-1.518156734888971293
0.597000000000000419,-1.515538877069204649
0.598000000000000420,-1.512910667108589013
0.599000000000000421,-1.510270776612737897
0.600000000000000422,-1.507617925257099145
0.601000000000000423,-1.504950879946525211
0.602000000000000424,-1.502268453979481944
0.603000000000000425,-1.499569506217149462
0.604000000000000425,-1.496852940257652254
0.605000000000000426,-1.494117703615644555
0.606000000000000427,-1.491362786907513227
0.607000000000000428,-1.488587223042319163
0.608000000000000429,-1.485790086418811828
0.609000000000000430,-1.482970492128538709
0.610000000000000431,-1.480127595165400933
