# bi-graphene_CS-5735-AC
# h[nm],U(h)[kJ/mol]
0.149999999999999994,95.964647169178633135
0.150999999999999995,92.863872989802217717
0.151999999999999996,90.706521222103631885
0.152999999999999997,88.738497295815108146
0.153999999999999998,86.699766365099321774
0.154999999999999999,84.555941974911164039
0.156000000000000000,82.355685415924725135
0.157000000000000001,80.161405936654631432
0.158000000000000002,78.020755087553439466
0.159000000000000002,75.959320520649271202
0.160000000000000003,73.983120916372030251
0.161000000000000004,72.084598636718894227
0.162000000000000005,70.248888933257063627
0.163000000000000006,68.458941810128592920
0.164000000000000007,66.699066279947786029
0.165000000000000008,64.956971067281926935
0.166000000000000009,63.224592876348836512
0.167000000000000010,61.498060518625194959
0.168000000000000010,59.777118750370632938
0.169000000000000011,58.064276033573740676
0.170000000000000012,56.363871795160889633
0.171000000000000013,54.681194731015992261
0.172000000000000014,53.021730331479105303
0.173000000000000015,51.390574797256348916
0.174000000000000016,49.792023253423202789
0.175000000000000017,48.229320956330205661
0.176000000000000018,46.704554968538772641
0.177000000000000018,45.218658537802511432
0.178000000000000019,43.771499384840048208
0.179000000000000020,42.362024824516055332
0.180000000000000021,40.988439982551732044
0.181000000000000022,39.648399485840741363
0.182000000000000023,38.339197309341614073
0.183000000000000024,37.057943567862849932
0.184000000000000025,35.801720713260010598
0.185000000000000026,34.567714717498333243
0.186000000000000026,33.353319351429846051
0.187000000000000027,32.156213623790179668
0.188000000000000028,30.974413874133528424
0.189000000000000029,29.806302984740529638
0.190000000000000030,28.650639764864074266
0.191000000000000031,27.506551840912425888
0.192000000000000032,26.373515428430824414
0.193000000000000033,25.251325228653211497
0.194000000000000034,24.140057437769701920
0.195000000000000034,23.040028525575557694
0.196000000000000035,21.951752067741015395
0.197000000000000036,20.875895530431833436
0.198000000000000037,19.813238528196617239
0.199000000000000038,18.764633720658871141
0.200000000000000039,17.730971190339932519
0.201000000000000040,16.713146858591596100
0.202000000000000041,15.712035251682397785
0.203000000000000042,14.728466724722533598
0.204000000000000042,13.763209085761825889
0.205000000000000043,12.816953433303456933
0.206000000000000044,11.890303924136404135
0.207000000000000045,10.983771120902387608
0.208000000000000046,10.097768526131185141
0.209000000000000047,9.232611887619267321
0.210000000000000048,8.388520855202287407
0.211000000000000049,7.565622577687281414
0.212000000000000050,6.763956847812458761
0.213000000000000050,5.983482429821418869
0.214000000000000051,5.224084236173486495
0.215000000000000052,4.485581055043327936
0.216000000000000053,3.767733566914236665
0.217000000000000054,3.070252425388555473
0.218000000000000055,2.392806213262939519
0.219000000000000056,1.735029119140093501
0.220000000000000057,1.096528211782827000
0.221000000000000058,0.476890218672596511
0.222000000000000058,-0.124312258436134734
0.223000000000000059,-0.707515134870655871
0.224000000000000060,-1.273157864944277406
0.225000000000000061,-1.821679100745610125
0.226000000000000062,-2.353512979667762295
0.227000000000000063,-2.869086020696049566
0.228000000000000064,-3.368814600068836373
0.229000000000000065,-3.853102969729057747
0.230000000000000066,-4.322341776753075848
0.231000000000000066,-4.776907038446350562
0.232000000000000067,-5.217159525796114750
0.233000000000000068,-5.643444507251535569
0.234000000000000069,-6.056091805151109675
0.235000000000000070,-6.455416118344018628
0.236000000000000071,-6.841717566479452728
0.237000000000000072,-7.215282413909449133
0.238000000000000073,-7.576383934023314559
0.239000000000000073,-7.925283377982760946
0.240000000000000074,-8.262231015151638047
0.241000000000000075,-8.587467215917511609
0.242000000000000076,-8.901223551011216983
0.243000000000000077,-9.203723884780586673
0.244000000000000078,-9.495185443114397827
0.245000000000000079,-9.775819839802995403
0.246000000000000080,-10.045834048031958119
0.247000000000000081,-10.305431306413938231
0.248000000000000081,-10.554811951455150165
0.249000000000000082,-10.794174170620053133
0.250000000000000111,-11.023714672197565179
0.251000000000000112,-11.243629269984955599
0.252000000000000113,-11.454113382398844578
0.253000000000000114,-11.655362447000795711
0.254000000000000115,-11.847572252602565968
0.255000000000000115,-12.030939192100772672
0.256000000000000116,-12.205660439998432309
0.257000000000000117,-12.371934059214286350
0.258000000000000118,-12.529959042273551617
0.259000000000000119,-12.679935292331332874
0.260000000000000120,-12.822063549716094855
0.261000000000000121,-12.956545269807673293
0.262000000000000122,-13.083582458098282686
0.263000000000000123,-13.203377468235492742
0.264000000000000123,-13.316132768727779734
0.265000000000000124,-13.422050683814779504
0.266000000000000125,-13.521333113778098323
0.267000000000000126,-13.614181239702247694
0.268000000000000127,-13.700795217398965775
0.269000000000000128,-13.781373864888422531
0.270000000000000129,-13.856114347495386951
0.271000000000000130,-13.925211864273427054
0.272000000000000131,-13.988859339120262248
0.273000000000000131,-14.047247119598665677
0.274000000000000132,-14.100562686131905110
0.275000000000000133,-14.148990373906485729
0.276000000000000134,-14.192711109488294952
0.277000000000000135,-14.231902163845251863
0.278000000000000136,-14.266736923171606577
0.279000000000000137,-14.297384678627171439
0.280000000000000138,-14.324010435840540012
0.281000000000000139,-14.346774744779580146
0.282000000000000139,-14.365833550364760285
0.283000000000000140,-14.381338063992860299
0.284000000000000141,-14.393434655948359691
0.285000000000000142,-14.402264768509080994
0.286000000000000143,-14.407964849399125029
0.287000000000000144,-14.410666305106776264
0.288000000000000145,-14.410495473466587768
0.289000000000000146,-14.407573614801814088
0.290000000000000147,-14.402016920836809177
0.291000000000000147,-14.393936540515628764
0.292000000000000148,-14.383438621804534918
0.293000000000000149,-14.370624368509052005
0.294000000000000150,-14.355590111101502515
0.295000000000000151,-14.338427390531128580
0.296000000000000152,-14.319223053974166504
0.297000000000000153,-14.298059361476509466
0.298000000000000154,-14.275014102443842390
0.299000000000000155,-14.250160720944586856
0.300000000000000155,-14.223568448807156983
0.301000000000000156,-14.195302445515135759
0.302000000000000157,-14.165423943931122253
0.303000000000000158,-14.133990400911002894
0.304000000000000159,-14.101055651905429755
0.305000000000000160,-14.066670068682791239
0.306000000000000161,-14.030880719348397534
0.307000000000000162,-13.993731529876509256
0.308000000000000163,-13.955263446415381523
0.309000000000000163,-13.915514597669922381
0.310000000000000164,-13.874520456711826100
0.311000000000000165,-13.832314001611896614
0.312000000000000166,-13.788925874335054900
0.313000000000000167,-13.744384537382757117
0.314000000000000168,-13.698716427712216870
0.315000000000000169,-13.651946107504766559
0.316000000000000170,-13.604096411398321820
0.317000000000000171,-13.555188589839687552
0.318000000000000171,-13.505242448252355203
0.319000000000000172,-13.454276481753614902
0.320000000000000173,-13.402308005191539308
0.321000000000000174,-13.349353278307301451
0.322000000000000175,-13.295427625861853116
0.323000000000000176,-13.240545552597472678
0.324000000000000177,-13.184720852934518120
0.325000000000000178,-13.127966715331842451
0.326000000000000179,-13.070295821265755620
0.327000000000000179,-13.011720438806724687
0.328000000000000180,-12.952252510795911888
0.329000000000000181,-12.891903737645037609
0.330000000000000182,-12.830685654801758488
0.331000000000000183,-12.768609704941502159
0.332000000000000184,-12.705687304962008710
0.333000000000000185,-12.641929907872093253
0.334000000000000186,-12.577349059679152177
0.335000000000000187,-12.511956451391617051
0.336000000000000187,-12.445763966263294620
0.337000000000000188,-12.378783722415215962
0.338000000000000189,-12.311028110979062689
0.339000000000000190,-12.242509829912590291
0.340000000000000191,-12.173241913643147782
0.341000000000000192,-12.103237758700412741
0.342000000000000193,-12.032511145502414962
0.343000000000000194,-11.961076256462465750
0.344000000000000195,-11.888947690585652595
0.345000000000000195,-11.816140474725482790
0.346000000000000196,-11.742670071670996634
0.347000000000000197,-11.668552385234715274
0.348000000000000198,-11.593803762510811239
0.349000000000000199,-11.518440993471324774
0.350000000000000200,-11.442481308066469126
0.351000000000000201,-11.365942370992311083
0.352000000000000202,-11.288842274286594147
0.353000000000000203,-11.211199527909986529
0.354000000000000203,-11.133033048466586479
0.355000000000000204,-11.054362146213613016
0.356000000000000205,-10.975206510506122726
0.357000000000000206,-10.895586193818392218
0.358000000000000207,-10.815521594478729739
0.359000000000000208,-10.735033438250377813
0.360000000000000209,-10.654142758885855713
0.361000000000000210,-10.572870877777612364
0.362000000000000210,-10.491239382822650228
0.363000000000000211,-10.409270106613920603
0.364000000000000212,-10.326985104066356058
0.365000000000000213,-10.244406629580165458
0.366000000000000214,-10.161557113839180033
0.367000000000000215,-10.078459140337063360
0.368000000000000216,-9.995135421719218982
0.369000000000000217,-9.911608776023332013
0.370000000000000218,-9.827902102896848291
0.371000000000000218,-9.744038359864719112
0.372000000000000219,-9.660040538716366143
0.373000000000000220,-9.575931642076252359
0.374000000000000221,-9.491734660217879593
0.375000000000000222,-9.407472548176903260
0.376000000000000223,-9.323168203214880378
0.377000000000000224,-9.238844442681031666
0.378000000000000225,-9.154523982315517117
0.379000000000000226,-9.070229415033972842
0.380000000000000226,-8.985983190229436701
0.381000000000000227,-8.901807593624109671
0.382000000000000228,-8.817724727700269938
0.383000000000000229,-8.733756492736265642
0.384000000000000230,-8.649924568470353847
0.385000000000000231,-8.566250396412495860
0.386000000000000232,-8.482755162820973638
0.387000000000000233,-8.399459782358375648
0.388000000000000234,-8.316384882438693893
0.389000000000000234,-8.233550788275072918
0.390000000000000235,-8.150977508635218527
0.391000000000000236,-8.068684722309530599
0.392000000000000237,-7.986691765294834155
0.393000000000000238,-7.905017618694780701
0.394000000000000239,-7.823680897336053874
0.395000000000000240,-7.742699839097985759
0.396000000000000241,-7.662092294951537319
0.397000000000000242,-7.581875719702037664
0.398000000000000242,-7.502067163429002150
0.399000000000000243,-7.422683263614777260
0.400000000000000244,-7.343740237952681937
0.401000000000000245,-7.265253877824551232
0.402000000000000246,-7.187239542436119066
0.403000000000000247,-7.109712153598112927
0.404000000000000248,-7.032686191140136600
0.405000000000000249,-6.956175688943554647
0.406000000000000250,-6.880194231578963482
0.407000000000000250,-6.804754951533428020
0.408000000000000251,-6.729870527011868830
0.409000000000000252,-6.655553180296903015
0.410000000000000253,-6.581814676650694196
0.411000000000000254,-6.508666323742377635
0.412000000000000255,-6.436118971584129156
0.413000000000000256,-6.364183012958912755
0.414000000000000257,-6.292868384322619413
0.415000000000000258,-6.222184567163368207
0.416000000000000258,-6.152140589800564996
0.417000000000000259,-6.082745029606319243
0.418000000000000260,-6.014006015631875535
0.419000000000000261,-5.945931231621663926
0.420000000000000262,-5.878527919397820156
0.421000000000000263,-5.811802882598009923
0.422000000000000264,-5.745762490749578788
0.423000000000000265,-5.680412683663195850
0.424000000000000266,-5.615758976129548330
0.425000000000000266,-5.551806462902487915
0.426000000000000267,-5.488559823952653183
0.427000000000000268,-5.426023329975651066
0.428000000000000269,-5.364200848139178746
0.429000000000000270,-5.303095848053842154
0.430000000000000271,-5.242711407952594271
0.431000000000000272,-5.183050221064230634
0.432000000000000273,-5.124114602166493171
0.433000000000000274,-5.065906494304878827
0.434000000000000274,-5.008427475663426165
0.435000000000000275,-4.951678766574223012
0.436000000000000276,-4.895661236652738779
0.437000000000000277,-4.840375412046287629
0.438000000000000278,-4.785821482783573444
0.439000000000000279,-4.731999310213415022
0.440000000000000280,-4.678908434521171777
0.441000000000000281,-4.626548082311849441
0.442000000000000282,-4.574917174249179652
0.443000000000000282,-4.524014332740250666
0.444000000000000283,-4.473837889655877476
0.445000000000000284,-4.424385894077014214
0.446000000000000285,-4.375656120057955789
0.447000000000000286,-4.327646074397654807
0.448000000000000287,-4.280353004410394568
0.449000000000000288,-4.233773905687922223
0.450000000000000289,-4.187905529845075137
0.451000000000000290,-4.142744392241538343
0.452000000000000290,-4.098286779672621449
0.453000000000000291,-4.054528758022254209
0.454000000000000292,-4.011466179871804094
0.455000000000000293,-3.969094692058546592
0.456000000000000294,-3.927409743178035484
0.457000000000000295,-3.886406591024843316
0.458000000000000296,-3.846080309966497968
0.459000000000000297,-3.806425798245737013
0.460000000000000298,-3.767437785206418255
0.461000000000000298,-3.729110838438829401
0.462000000000000299,-3.691439370840313039
0.463000000000000300,-3.654417647587390405
0.464000000000000301,-3.618039793015920935
0.465000000000000302,-3.582299797405990027
0.466000000000000303,-3.547191523668484336
0.467000000000000304,-3.512708713930559501
0.468000000000000305,-3.478844996017486757
0.469000000000000306,-3.445593889828452383
0.470000000000000306,-3.412948813604272491
0.471000000000000307,-3.380903090085005225
0.472000000000000308,-3.349449952555838106
0.473000000000000309,-3.318582550779639373
0.474000000000000310,-3.288293956814877905
0.475000000000000311,-3.258577170717714466
0.476000000000000312,-3.229425126127355661
0.477000000000000313,-3.200830695733688280
0.478000000000000314,-3.172786696626679337
0.479000000000000314,-3.145285895526957365
0.480000000000000315,-3.118321013897180638
0.481000000000000316,-3.091884732934027102
0.482000000000000317,-3.065969698440635494
0.483000000000000318,-3.040568525579589565
0.484000000000000319,-3.015673803506525363
0.485000000000000320,-2.991278099884712827
0.486000000000000321,-2.967373965280911463
0.487000000000000322,-2.943953937443003710
0.488000000000000322,-2.921010545459979291
0.489000000000000323,-2.898536313804971787
0.490000000000000324,-2.876523766262053527
0.491000000000000325,-2.854965429737686300
0.492000000000000326,-2.833853837957679644
0.493000000000000327,-2.813181535050741200
0.494000000000000328,-2.792941079019606310
0.495000000000000329,-2.773125045100920172
0.496000000000000330,-2.753726029015047594
0.497000000000000330,-2.734736650107066236
0.498000000000000331,-2.716149554380237419
0.499000000000000332,-2.697957417423300974
0.500000000000000333,-2.680152947233018779
0.501000000000000334,-2.662728886933352079
0.502000000000000335,-2.645678017392791403
0.503000000000000336,-2.628993159741341845
0.504000000000000337,-2.612667177788682960
0.505000000000000338,-2.596692980345102875
0.506000000000000338,-2.581063523446781804
0.507000000000000339,-2.565771812487058323
0.508000000000000340,-2.550810904255300215
0.509000000000000341,-2.536173908885069661
0.510000000000000342,-2.521853991713216558
0.511000000000000343,-2.507844375051603070
0.512000000000000344,-2.494138339873160248
0.513000000000000345,-2.480729227413957183
0.514000000000000346,-2.467610440693031926
0.515000000000000346,-2.454775445951648649
0.516000000000000347,-2.442217774013710763
0.517000000000000348,-2.429931021569101013
0.518000000000000349,-2.417908852381554841
0.519000000000000350,-2.406144998422869552
0.520000000000000351,-2.394633260935125740
0.521000000000000352,-2.383367511422606722
0.522000000000000353,-2.372341692575123950
0.523000000000000353,-2.361549819124415528
0.524000000000000354,-2.350985978635333318
0.525000000000000355,-2.340644332233420499
0.526000000000000356,-2.330519115270562658
0.527000000000000357,-2.320604637930371972
0.528000000000000358,-2.310895285774864583
0.529000000000000359,-2.301385520234093818
0.530000000000000360,-2.292069879040302460
0.531000000000000361,-2.282942976608178576
0.532000000000000361,-2.273999504362754109
0.533000000000000362,-2.265234231016505895
0.534000000000000363,-2.256642002797170754
0.535000000000000364,-2.248217743627754395
0.536000000000000365,-2.239956455260235124
0.537000000000000366,-2.231853217364432318
0.538000000000000367,-2.223903187573413653
0.539000000000000368,-2.216101601486962558
0.540000000000000369,-2.208443772634379965
0.541000000000000369,-2.200925092398090754
0.542000000000000370,-2.193541029899354733
0.543000000000000371,-2.186287131847406418
0.544000000000000372,-2.179159022353369224
0.545000000000000373,-2.172152402710167518
0.546000000000000374,-2.165263051139751038
0.547000000000000375,-2.158486822508808523
0.548000000000000376,-2.151819648014257069
0.549000000000000377,-2.145257534839623226
0.550000000000000377,-2.138796565783504633
0.551000000000000378,-2.132432898861290393
0.552000000000000379,-2.126162766881191768
0.553000000000000380,-2.119982476995747600
0.554000000000000381,-2.113888410229805892
0.555000000000000382,-2.107877020986113514
0.556000000000000383,-2.101944836529434646
0.557000000000000384,-2.096088456450309057
0.558000000000000385,-2.090304552109344183
0.559000000000000385,-2.084589866063057517
0.560000000000000386,-2.078941211472146389
0.561000000000000387,-2.073355471493165236
0.562000000000000388,-2.067829598654427947
0.563000000000000389,-2.062360614217068733
0.564000000000000390,-2.056945607522049357
0.565000000000000391,-2.051581735323988021
0.566000000000000392,-2.046266221112568395
0.567000000000000393,-2.040996354422355719
0.568000000000000393,-2.035769490131730475
0.569000000000000394,-2.030583047751725267
0.570000000000000395,-2.025434510705465208
0.571000000000000396,-2.020321425598897491
0.572000000000000397,-2.015241401483538031
0.573000000000000398,-2.010192109111827108
0.574000000000000399,-2.005171280185811256
0.575000000000000400,-2.000176706599706922
0.576000000000000401,-1.995206239676988957
0.577000000000000401,-1.990257789402599453
0.578000000000000402,-1.985329323650803390
0.579000000000000403,-1.980418867409267758
0.580000000000000404,-1.975524501999911475
0.581000000000000405,-1.970644364297009066
0.582000000000000406,-1.965776645943063672
0.583000000000000407,-1.960919592562943237
0.584000000000000408,-1.956071502976721277
0.585000000000000409,-1.951230728411688986
0.586000000000000409,-1.946395671713975428
0.587000000000000410,-1.941564786560187716
0.588000000000000411,-1.936736576669475740
0.589000000000000412,-1.931909595016424008
0.590000000000000413,-1.927082443045123217
0.591000000000000414,-1.922253769884809005
0.592000000000000415,-1.917422271567402969
0.593000000000000416,-1.912586690247282117
0.594000000000000417,-1.907745813423615378
0.595000000000000417,-1.902898473165577808
0.596000000000000418,-1.898043545340700744
0.597000000000000419,-1.893179948846703819
0.598000000000000420,-1.888306644847021376
0.599000000000000421,-1.883422636010316342
0.600000000000000422,-1.878526965754230504
0.601000000000000423,-1.873618717493585439
0.602000000000000424,-1.868697013893283909
0.603000000000000425,-1.863761016126129322
0.604000000000000425,-1.858809923135737563
0.605000000000000426,-1.853842970904770793
0.606000000000000427,-1.848859431728685276
0.607000000000000428,-1.843858613495094279
0.608000000000000429,-1.838839858969053553
0.609000000000000430,-1.833802545084250779
0.610000000000000431,-1.828746082240423121
