# bi-graphene_CS-7683-AC
# h[nm],U(h)[kJ/mol]
0.200000000000000011,51.988346624511258653
0.201000000000000012,51.088130767138530075
0.202000000000000013,49.695816193340917266
0.203000000000000014,48.116603957172145556
0.204000000000000015,46.511236108321611482
0.205000000000000016,44.952839358331274866
0.206000000000000016,43.464428561173875210
0.207000000000000017,42.042938926243820674
0.208000000000000018,40.674027777572021591
0.209000000000000019,39.340679626221934484
0.210000000000000020,38.027759222657074645
0.211000000000000021,36.724007200028701448
0.212000000000000022,35.422501710324077351
0.213000000000000023,34.120271318181082165
0.214000000000000024,32.817504672204641736
0.215000000000000024,31.516634955165738319
0.216000000000000025,30.221462172017044878
0.217000000000000026,28.936399287866159113
0.218000000000000027,27.665878174979820159
0.219000000000000028,26.413920228086233521
0.220000000000000029,25.183858477826536415
0.221000000000000030,23.978188809254870506
0.222000000000000031,22.798524419851460721
0.223000000000000032,21.645627769231214899
0.224000000000000032,20.519496479272074652
0.225000000000000033,19.419482918177152442
0.226000000000000034,18.344430871493234037
0.227000000000000035,17.292816341200293095
0.228000000000000036,16.262882868105240419
0.229000000000000037,15.252764709756007733
0.230000000000000038,14.260593672716021629
0.231000000000000039,13.284587392654577442
0.232000000000000040,12.323118408114334343
0.233000000000000040,11.374764531233221732
0.234000000000000041,10.438341836216002534
0.235000000000000042,9.512922120637547607
0.236000000000000043,8.597836999981174344
0.237000000000000044,7.692670921724149125
0.238000000000000045,6.797245375423931257
0.239000000000000046,5.911596466977413478
0.240000000000000047,5.035947849631265960
0.241000000000000048,4.170680786716330246
0.242000000000000048,3.316302881499429756
0.243000000000000049,2.473416763431774079
0.244000000000000050,1.642689778934527167
0.245000000000000051,0.824825506899742988
0.246000000000000052,0.020537709824769323
0.247000000000000053,-0.769472855721267335
0.248000000000000054,-1.544538509120891856
0.249000000000000055,-2.304041475512761394
0.250000000000000056,-3.047427470690514895
0.251000000000000056,-3.774216130270896308
0.252000000000000057,-4.484008445748648874
0.253000000000000058,-5.176491425094448928
0.254000000000000059,-5.851440234340168800
0.255000000000000060,-6.508718101307898962
0.256000000000000061,-7.148274275402552114
0.257000000000000062,-7.770140340217560393
0.258000000000000063,-8.374425170468818180
0.259000000000000064,-8.961308813172633947
0.260000000000000064,-9.531035556536286535
0.261000000000000065,-10.083906430065649573
0.262000000000000066,-10.620271357067140983
0.263000000000000067,-11.140521157004357633
0.264000000000000068,-11.645079570882236553
0.265000000000000069,-12.134395458639962939
0.266000000000000070,-12.608935293970009894
0.267000000000000071,-13.069176059462259687
0.268000000000000071,-13.515598623805857414
0.269000000000000072,-13.948681663190125590
0.270000000000000073,-14.368896171170698395
0.271000000000000074,-14.776700585187469983
0.272000000000000075,-15.172536543662388908
0.273000000000000076,-15.556825275148758791
0.274000000000000077,-15.929964610298705807
0.275000000000000078,-16.292326598382281588
0.276000000000000079,-16.644255702632570149
0.277000000000000079,-16.986067542695728605
0.278000000000000080,-17.318048147809498971
0.279000000000000081,-17.640453680897959288
0.280000000000000082,-17.953510591422716658
0.281000000000000083,-18.257416153450922280
0.282000000000000084,-18.552339344863554516
0.283000000000000085,-18.838422023819525464
0.284000000000000086,-19.115780359402272381
0.285000000000000087,-19.384506474701744594
0.286000000000000087,-19.644670262334219757
0.287000000000000088,-19.896321334486582799
0.288000000000000089,-20.139491071913607101
0.289000000000000090,-20.374194738846760799
0.290000000000000091,-20.600433633427577718
0.291000000000000092,-20.818197246005649248
0.292000000000000093,-21.027465400391548656
0.293000000000000094,-21.228210355889071792
0.294000000000000095,-21.420398850614766673
0.295000000000000095,-21.603994069218177998
0.296000000000000096,-21.778957520618824617
0.297000000000000097,-21.945250813759393793
0.298000000000000098,-22.102837321623230338
0.299000000000000099,-22.251683725869497721
0.300000000000000100,-22.391761436391952600
0.301000000000000101,-22.523047881906769874
0.302000000000000102,-22.645527669315733021
0.303000000000000103,-22.759193611077964903
0.304000000000000103,-22.864047621155727086
0.305000000000000104,-22.960101481283608393
0.306000000000000105,-23.047377480350320411
0.307000000000000106,-23.125908930584060386
0.308000000000000107,-23.195740565003994504
0.309000000000000108,-23.256928821248642691
0.310000000000000109,-23.309542017425219029
0.311000000000000110,-23.353660426049515308
0.312000000000000111,-23.389376252474168183
0.313000000000000111,-23.416793524438944019
0.314000000000000112,-23.436027899532078322
0.315000000000000113,-23.447206397430967684
0.316000000000000114,-23.450467063804545376
0.317000000000000115,-23.445958572713202273
0.318000000000000116,-23.433839774244297871
0.319000000000000117,-23.414279193977453275
0.320000000000000118,-23.387454490690963382
0.321000000000000119,-23.353551878504497097
0.322000000000000119,-23.312765519409328618
0.323000000000000120,-23.265296891870427487
0.324000000000000121,-23.211354140900262166
0.325000000000000122,-23.151151414705545051
0.326000000000000123,-23.084908192699938212
0.327000000000000124,-23.012848609360776919
0.328000000000000125,-22.935200778090571561
0.329000000000000126,-22.852196118925299118
0.330000000000000127,-22.764068693615662653
0.331000000000000127,-22.671054551295803492
0.332000000000000128,-22.573391087648182918
0.333000000000000129,-22.471316420175714512
0.334000000000000130,-22.365068781903552519
0.335000000000000131,-22.254885935555073218
0.336000000000000132,-22.141004609979081152
0.337000000000000133,-22.023659960351022136
0.338000000000000134,-21.903085053428210216
0.339000000000000135,-21.779510378910050150
0.340000000000000135,-21.653163387738207035
0.341000000000000136,-21.524268057968896528
0.342000000000000137,-21.393044488660670766
0.343000000000000138,-21.259708522044874712
0.344000000000000139,-21.124471394083634834
0.345000000000000140,-20.987539413370797092
0.346000000000000141,-20.849113668193883342
0.347000000000000142,-20.709389761450758272
0.348000000000000143,-20.568557573002259176
0.349000000000000143,-20.426801048940234296
0.350000000000000144,-20.284298017160860894
0.351000000000000145,-20.141220028552901056
0.352000000000000146,-19.997732223041218447
0.353000000000000147,-19.853993219665476033
0.354000000000000148,-19.710155029822725936
0.355000000000000149,-19.566362992759852801
0.356000000000000150,-19.422755732366709935
0.357000000000000151,-19.279465134293502615
0.358000000000000151,-19.136616342395068813
0.359000000000000152,-18.994327773490383038
0.360000000000000153,-18.852711149417331171
0.361000000000000154,-18.711871545359521463
0.362000000000000155,-18.571907453423783352
0.363000000000000156,-18.432910860453574742
0.364000000000000157,-18.294967339073391344
0.365000000000000158,-18.158156150974086529
0.366000000000000159,-18.022550361465601299
0.367000000000000159,-17.888216964344248794
0.368000000000000160,-17.755217016144392517
0.369000000000000161,-17.623605778869396943
0.370000000000000162,-17.493432870323285755
0.371000000000000163,-17.364742421193891886
0.372000000000000164,-17.237573238067131598
0.373000000000000165,-17.111958971584073197
0.374000000000000166,-16.987928288983461300
0.375000000000000167,-16.865505050305621637
0.376000000000000167,-16.744708487566111188
0.377000000000000168,-16.625553386241101350
0.378000000000000169,-16.508050268439539821
0.379000000000000170,-16.392205577170933850
0.380000000000000171,-16.278021861150051564
0.381000000000000172,-16.165497959613325918
0.382000000000000173,-16.054629186653706086
0.383000000000000174,-15.945407514612833566
0.384000000000000175,-15.837821756100572301
0.385000000000000175,-15.731857744242422115
0.386000000000000176,-15.627498510785505559
0.387000000000000177,-15.524724461722362534
0.388000000000000178,-15.423513550120450333
0.389000000000000179,-15.323841445871925870
0.390000000000000180,-15.225681702105219983
0.391000000000000181,-15.129005918024679644
0.392000000000000182,-15.033783897969405174
0.393000000000000183,-14.939983806505344077
0.394000000000000183,-14.847572319387413842
0.395000000000000184,-14.756514770249518520
0.396000000000000185,-14.666775292900883443
0.397000000000000186,-14.578316959126144781
0.398000000000000187,-14.491101911905321487
0.399000000000000188,-14.405091493986896367
0.400000000000000189,-14.320246371763641235
0.401000000000000190,-14.236526654416303828
0.402000000000000191,-14.153892008304783445
0.403000000000000191,-14.072301766599764505
0.404000000000000192,-13.991715034160829845
0.405000000000000193,-13.912090787678470960
0.406000000000000194,-13.833387971108681569
0.407000000000000195,-13.755565586438944337
0.408000000000000196,-13.678582779833593719
0.409000000000000197,-13.602398923215313076
0.410000000000000198,-13.526973691347516038
0.411000000000000199,-13.452267134489186873
0.412000000000000199,-13.378239746700600676
0.413000000000000200,-13.304852529884135137
0.414000000000000201,-13.232067053649501531
0.415000000000000202,-13.159845511097454818
0.416000000000000203,-13.088150770620396557
0.417000000000000204,-13.016946423821323719
0.418000000000000205,-12.946196829656283711
0.419000000000000206,-12.875867154907703949
0.420000000000000207,-12.805923411098044440
0.421000000000000207,-12.736332487955557724
0.422000000000000208,-12.667062183544370413
0.423000000000000209,-12.598081231172951533
0.424000000000000210,-12.529359323195105702
0.425000000000000211,-12.460867131818000431
0.426000000000000212,-12.392576327032056582
0.427000000000000213,-12.324459591776690814
0.428000000000000214,-12.256490634455925459
0.429000000000000214,-12.188644198916650296
0.430000000000000215,-12.120896072001496435
0.431000000000000216,-12.053223088787110129
0.432000000000000217,-11.985603135617093784
0.433000000000000218,-11.918015151037298693
0.434000000000000219,-11.850439124739562402
0.435000000000000220,-11.782856094618072262
0.436000000000000221,-11.715248142040360690
0.437000000000000222,-11.647598385433095558
0.438000000000000222,-11.579890972280534100
0.439000000000000223,-11.512111069631201232
0.440000000000000224,-11.444244853205912449
0.441000000000000225,-11.376279495198115654
0.442000000000000226,-11.308203150854737373
0.443000000000000227,-11.240004943923420200
0.444000000000000228,-11.171674951049432423
0.445000000000000229,-11.103204185202875109
0.446000000000000230,-11.034584578214371220
0.447000000000000230,-10.965808962494717704
0.448000000000000231,-10.896871052011437797
0.449000000000000232,-10.827765422592468880
0.450000000000000233,-10.758487491624824983
0.451000000000000234,-10.689033497213298318
0.452000000000000235,-10.619400476861859062
0.453000000000000236,-10.549586245737746282
0.454000000000000237,-10.479589374575969174
0.455000000000000238,-10.409409167279106256
0.456000000000000238,-10.339045638265336180
0.457000000000000239,-10.268499489614725917
0.458000000000000240,-10.197772088061954676
0.459000000000000241,-10.126865441880855911
0.460000000000000242,-10.055782177704401192
0.461000000000000243,-9.984525517321015897
0.462000000000000244,-9.913099254486564149
0.463000000000000245,-9.841507731788457392
0.464000000000000246,-9.769755817597165048
0.465000000000000246,-9.697848883137680787
0.466000000000000247,-9.625792779711909830
0.467000000000000248,-9.553593816100990566
0.468000000000000249,-9.481258736174714485
0.469000000000000250,-9.408794696733393081
0.470000000000000251,-9.336209245605882501
0.471000000000000252,-9.263510300025632915
0.472000000000000253,-9.190706125305379004
0.473000000000000254,-9.117805313829006053
0.474000000000000254,-9.044816764378149188
0.475000000000000255,-8.971749661809262477
0.476000000000000256,-8.898613457095688517
0.477000000000000257,-8.825417847747946354
0.478000000000000258,-8.752172758623917304
0.479000000000000259,-8.678888323139783978
0.480000000000000260,-8.605574864891034181
0.481000000000000261,-8.532242879691827042
0.482000000000000262,-8.458903018040071942
0.483000000000000262,-8.385566068014362884
0.484000000000000263,-8.312242938607942833
0.485000000000000264,-8.238944643504074961
0.486000000000000265,-8.165682285296153253
0.487000000000000266,-8.092467040155055358
0.488000000000000267,-8.019310142945560216
0.489000000000000268,-7.946222872792743530
0.490000000000000269,-7.873216539098554456
0.491000000000000270,-7.800302468008266210
0.492000000000000270,-7.727491989325526056
0.493000000000000271,-7.654796423874503652
0.494000000000000272,-7.582227071306773425
0.495000000000000273,-7.509795198350059486
0.496000000000000274,-7.437512027495759348
0.497000000000000275,-7.365388726121215868
0.498000000000000276,-7.293436396042710435
0.499000000000000277,-7.221666063494478927
0.500000000000000222,-7.150088669528730456
0.501000000000000334,-7.078715060831382466
0.502000000000000224,-7.007555980947843821
0.503000000000000336,-6.936622061912703252
0.504000000000000226,-6.865923816277431868
0.505000000000000338,-6.795471629529119539
0.506000000000000227,-6.725275752894120274
0.507000000000000339,-6.655346296519065952
0.508000000000000229,-6.585693223022710541
0.509000000000000341,-6.516326341410850098
0.510000000000000231,-6.447255301347434298
0.511000000000000343,-6.378489587773765734
0.512000000000000233,-6.310038515868727771
0.513000000000000345,-6.241911226341762209
0.514000000000000234,-6.174116681051408762
0.515000000000000346,-6.106663658940874484
0.516000000000000236,-6.039560752283405165
0.517000000000000348,-5.972816363228938386
0.518000000000000238,-5.906438700644624618
0.519000000000000350,-5.840435777240747584
0.520000000000000240,-5.774815406974554755
0.521000000000000352,-5.709585202723742370
0.522000000000000242,-5.644752574221916674
0.523000000000000353,-5.580324726247939182
0.524000000000000243,-5.516308657061605558
0.525000000000000355,-5.452711157077581916
0.526000000000000245,-5.389538807770243523
0.527000000000000357,-5.326797980801365462
0.528000000000000247,-5.264494837363562496
0.529000000000000359,-5.202635327731536918
0.530000000000000249,-5.141225191014148876
0.531000000000000361,-5.080269955099653956
0.532000000000000250,-5.019774936787259279
0.533000000000000362,-4.959745242097507223
0.534000000000000252,-4.900185766754892924
0.535000000000000364,-4.841101196835452036
0.536000000000000254,-4.782496009572930085
0.537000000000000366,-4.724374474316432426
0.538000000000000256,-4.666740653633551617
0.539000000000000368,-4.609598404551979556
0.540000000000000258,-4.552951379933904974
0.541000000000000369,-4.496803029976424781
0.542000000000000259,-4.441156603832555838
0.543000000000000371,-4.386015151346341234
0.544000000000000261,-4.331381524896763757
0.545000000000000373,-4.277258381344444693
0.546000000000000263,-4.223648184075954326
0.547000000000000375,-4.170553205139881925
0.548000000000000265,-4.117975527470028929
0.549000000000000377,-4.065917047189925526
0.550000000000000266,-4.014379475994243940
0.551000000000000378,-3.963364343601845086
0.552000000000000268,-3.912873000275991497
0.553000000000000380,-3.862906619406885511
0.554000000000000270,-3.813466200152334729
0.555000000000000382,-3.764552570131836973
0.556000000000000272,-3.716166388170285106
0.557000000000000384,-3.668308147086728699
0.558000000000000274,-3.620978176524693115
0.559000000000000385,-3.574176645819741704
0.560000000000000275,-3.527903566900989940
0.561000000000000387,-3.482158797222564939
0.562000000000000277,-3.436942042721844448
0.563000000000000389,-3.392252860800845760
0.564000000000000279,-3.348090663327712768
0.565000000000000391,-3.304454719654985606
0.566000000000000281,-3.261344159651732522
0.567000000000000393,-3.218757976746522864
0.568000000000000282,-3.176695030978586853
0.569000000000000394,-3.135154052054159202
0.570000000000000284,-3.094133642405772378
0.571000000000000396,-3.053632280251620479
0.572000000000000286,-3.013648322652934475
0.573000000000000398,-2.974180008566706945
0.574000000000000288,-2.935225461891879384
0.575000000000000400,-2.896782694506645939
0.576000000000000290,-2.858849609294976002
0.577000000000000401,-2.821424003160306171
0.578000000000000291,-2.784503570024693619
0.579000000000000403,-2.748085903811490205
0.580000000000000293,-2.712168501410058052
0.581000000000000405,-2.676748765620698300
0.582000000000000295,-2.641824008078524688
0.583000000000000407,-2.607391452154570466
0.584000000000000297,-2.573448235833026843
0.585000000000000409,-2.539991414563073313
0.586000000000000298,-2.507017964084307327
0.587000000000000410,-2.474524783224391733
0.588000000000000300,-2.442508696668066470
0.589000000000000412,-2.410966457696265941
0.590000000000000302,-2.379894750894608890
0.591000000000000414,-2.349290194830208289
0.592000000000000304,-2.319149344696056048
0.593000000000000416,-2.289468694922125458
0.594000000000000306,-2.260244681752587859
0.595000000000000417,-2.231473685788356143
0.596000000000000307,-2.203152034494430644
0.597000000000000419,-2.175276004671421681
0.598000000000000309,-2.147841824890829976
0.599000000000000421,-2.120845677893478332
0.600000000000000311,-2.094283702950849868
0.601000000000000423,-2.068151998188782592
0.602000000000000313,-2.042446622873393736
0.603000000000000425,-2.017163599658675643
0.604000000000000314,-1.992298916795859798
0.605000000000000426,-1.967848530303969001
0.606000000000000316,-1.943808366101734020
0.607000000000000428,-1.920174322100420383
0.608000000000000318,-1.896942270257755636
0.609000000000000430,-1.874108058592638626
0.610000000000000320,-1.851667513160785372
0.611000000000000432,-1.829616439991155419
0.612000000000000322,-1.807950626983312548
0.613000000000000433,-1.786665845765640581
0.614000000000000323,-1.765757853514617226
0.615000000000000435,-1.745222394735132188
0.616000000000000325,-1.725055203002079152
0.617000000000000437,-1.705252002663276922
0.618000000000000327,-1.685808510503983060
0.619000000000000439,-1.666720437373091723
0.620000000000000329,-1.647983489771347454
0.621000000000000441,-1.629593371401682145
0.622000000000000330,-1.611545784682050453
0.623000000000000442,-1.593836432220893551
0.624000000000000332,-1.576461018255661317
0.625000000000000444,-1.559415250054566160
0.626000000000000334,-1.542694839281967933
0.627000000000000446,-1.526295503327665726
0.628000000000000336,-1.510212966600470663
0.629000000000000448,-1.494442961786366597
0.630000000000000338,-1.478981231071709646
0.631000000000000449,-1.463823527331709506
0.632000000000000339,-1.448965615284721675
0.633000000000000451,-1.434403272612608138
0.634000000000000341,-1.420132291047686790
0.635000000000000453,-1.406148477426588661
0.636000000000000343,-1.392447654711479688
0.637000000000000455,-1.379025662979083577
0.638000000000000345,-1.365878360377906997
0.639000000000000457,-1.353001624054094965
0.640000000000000346,-1.340391351046405166
0.641000000000000458,-1.328043459150690442
0.642000000000000348,-1.315953887754372165
0.643000000000000460,-1.304118598641321736
0.644000000000000350,-1.292533576767678882
0.645000000000000462,-1.281194831008940049
0.646000000000000352,-1.270098394878922399
0.647000000000000464,-1.259240327220917166
0.648000000000000353,-1.248616712871643664
0.649000000000000465,-1.238223663298306132
0.650000000000000355,-1.228057317209388488
0.651000000000000467,-1.218113841139483400
0.652000000000000357,-1.208389430008760979
0.653000000000000469,-1.198880307657429256
0.654000000000000359,-1.189582727355748659
0.655000000000000471,-1.180492972289949538
0.656000000000000361,-1.171607356024632285
0.657000000000000473,-1.162922222942006645
0.658000000000000362,-1.154433948658496467
