# bi-graphene_CS-8142-AC
# h[nm],U(h)[kJ/mol]
0.200000000000000011,53.661624508697016722
0.201000000000000012,52.093751993208442741
0.202000000000000013,50.546630270565714227
0.203000000000000014,49.047013645614590871
0.204000000000000015,47.597598570844930066
0.205000000000000016,46.190270076834778479
0.206000000000000016,44.813765949958529689
0.207000000000000017,43.457724841097217450
0.208000000000000018,42.114475833006153493
0.209000000000000019,40.779489521392932261
0.210000000000000020,39.451099591510242703
0.211000000000000021,38.129885503997869023
0.212000000000000022,36.817956002516424974
0.213000000000000023,35.518270911164904646
0.214000000000000024,34.234071161743550249
0.215000000000000024,32.968443915756481033
0.216000000000000025,31.724023523004973413
0.217000000000000026,30.502814454306978575
0.218000000000000027,29.306115365098701631
0.219000000000000028,28.134521331842705649
0.220000000000000029,26.987982132013495828
0.221000000000000030,25.865896896992854437
0.222000000000000031,24.767228680162478582
0.223000000000000032,23.690625887076659950
0.224000000000000032,22.634540767585605181
0.225000000000000033,21.597338079250413045
0.226000000000000034,20.577389507286834913
0.227000000000000035,19.573151444877566973
0.228000000000000036,18.583225316437268049
0.229000000000000037,17.606400806373308399
0.230000000000000038,16.641683189806482090
0.231000000000000039,15.688306506109205074
0.232000000000000040,14.745734626238022003
0.233000000000000040,13.813652391680140141
0.234000000000000041,12.891948991568193961
0.235000000000000042,11.980695633843604142
0.236000000000000043,11.080119388481858067
0.237000000000000044,10.190574861835651532
0.238000000000000045,9.312515121664308282
0.239000000000000046,8.446463048121916728
0.240000000000000047,7.592984048442422917
0.241000000000000048,6.752660850426357442
0.242000000000000048,5.926070887417888677
0.243000000000000049,5.113766608352796617
0.244000000000000050,4.316258892015673254
0.245000000000000051,3.534003614904860591
0.246000000000000052,2.767391316171767368
0.247000000000000053,2.016739819402123324
0.248000000000000054,1.282289607558473765
0.249000000000000055,0.564201701976503545
0.250000000000000056,-0.137442233418689691
0.251000000000000056,-0.822637857846218568
0.252000000000000057,-1.491454489689079121
0.253000000000000058,-2.144030109208562074
0.254000000000000059,-2.780565313243847481
0.255000000000000060,-3.401316490579394891
0.256000000000000061,-4.006588466067974252
0.257000000000000062,-4.596726838311886887
0.258000000000000063,-5.172110210832462585
0.259000000000000064,-5.733142491117535045
0.260000000000000064,-6.280245406479033399
0.261000000000000065,-6.813851360875188945
0.262000000000000066,-7.334396733219518794
0.263000000000000067,-7.842315695551297594
0.264000000000000068,-8.338034609024436605
0.265000000000000069,-8.821967037136221990
0.266000000000000070,-9.294509399044294184
0.267000000000000071,-9.756037271233614305
0.268000000000000071,-10.206902333165150054
0.269000000000000072,-10.647429941802185382
0.270000000000000073,-11.077917310973914411
0.271000000000000074,-11.498632264284754712
0.272000000000000075,-11.909812524583731630
0.273000000000000076,-12.311665498732173418
0.274000000000000077,-12.704368513409720620
0.275000000000000078,-13.088069455834732580
0.276000000000000079,-13.462887772406393339
0.277000000000000079,-13.828915778268912717
0.278000000000000080,-14.186220231521911472
0.279000000000000081,-14.534844127139908920
0.280000000000000082,-14.874808667502463777
0.281000000000000083,-15.206115368676318411
0.282000000000000084,-15.528748264137334445
0.283000000000000085,-15.842676170391882806
0.284000000000000086,-16.147854981881131664
0.285000000000000087,-16.444229965561728335
0.286000000000000087,-16.731738028598929446
0.287000000000000088,-17.010309935634222001
0.288000000000000089,-17.279872455059081204
0.289000000000000090,-17.540350416607005002
0.290000000000000091,-17.791668665339155808
0.291000000000000092,-18.033753899725265768
0.292000000000000093,-18.266536383993354775
0.293000000000000094,-18.489951527227869832
0.294000000000000095,-18.703941323828942700
0.295000000000000095,-18.908455651901412864
0.296000000000000096,-19.103453427918179131
0.297000000000000097,-19.288903617602350948
0.298000000000000098,-19.464786104397113320
0.299000000000000099,-19.631092418148657686
0.300000000000000100,-19.787826327720399178
0.301000000000000101,-19.935004302195956427
0.302000000000000102,-20.072655846119534573
0.303000000000000103,-20.200823714878101356
0.304000000000000103,-20.319564016855458988
0.305000000000000104,-20.428946209397626177
0.306000000000000105,-20.529052995928484648
0.307000000000000106,-20.619980131755788477
0.308000000000000107,-20.701836146219655177
0.309000000000000108,-20.774741988866903597
0.310000000000000109,-20.838830607295470543
0.311000000000000110,-20.894246464210336711
0.312000000000000111,-20.941145001076055365
0.313000000000000111,-20.979692055546721008
0.314000000000000112,-21.010063239610467178
0.315000000000000113,-21.032443285108950448
0.316000000000000114,-21.047025362987920261
0.317000000000000115,-21.054010382309837013
0.318000000000000116,-21.053606274717569846
0.319000000000000117,-21.046027269685311012
0.320000000000000118,-21.031493165531930600
0.321000000000000119,-21.010228600808304122
0.322000000000000119,-20.982462330305420295
0.323000000000000120,-20.948426509568992770
0.324000000000000121,-20.908355991449855793
0.325000000000000122,-20.862487637871137025
0.326000000000000123,-20.811059649654144010
0.327000000000000124,-20.754310916916715257
0.328000000000000125,-20.692480392243151499
0.329000000000000126,-20.625806488522119508
0.330000000000000127,-20.554526503061826048
0.331000000000000127,-20.478876069319518649
0.332000000000000128,-20.399088637324595652
0.333000000000000129,-20.315394983634110559
0.334000000000000130,-20.228022751433083926
0.335000000000000131,-20.137196021183168426
0.336000000000000132,-20.043134912028339301
0.337000000000000133,-19.946055213988358901
0.338000000000000134,-19.846168050806738847
0.339000000000000135,-19.743679573171498021
0.340000000000000135,-19.638790681892270840
0.341000000000000136,-19.531696780496492494
0.342000000000000137,-19.422587556599886227
0.343000000000000138,-19.311646791311311233
0.344000000000000139,-19.199052195848921087
0.345000000000000140,-19.084975274473130469
0.346000000000000141,-18.969581212780564528
0.347000000000000142,-18.853028790352301058
0.348000000000000143,-18.735470316708564553
0.349000000000000143,-18.617051589488738728
0.350000000000000144,-18.497911873751640144
0.351000000000000145,-18.378183901273580148
0.352000000000000146,-18.257993888711947505
0.353000000000000147,-18.137461573498438128
0.354000000000000148,-18.016700266328093960
0.355000000000000149,-17.895816919117947918
0.356000000000000150,-17.774912207321243329
0.357000000000000151,-17.654080625499716461
0.358000000000000151,-17.533410595076770022
0.359000000000000152,-17.412984583217966161
0.360000000000000153,-17.292879231812115393
0.361000000000000154,-17.173165495555075211
0.362000000000000155,-17.053908788170090816
0.363000000000000156,-16.935169135831337428
0.364000000000000157,-16.817001336892261065
0.365000000000000158,-16.699455127056179293
0.366000000000000159,-16.582575349163288791
0.367000000000000159,-16.466402126805824935
0.368000000000000160,-16.350971041021175267
0.369000000000000161,-16.236313309350730805
0.370000000000000162,-16.122455966590436560
0.371000000000000163,-16.009422046597457268
0.372000000000000164,-15.897230764554445059
0.373000000000000165,-15.785897699130938321
0.374000000000000166,-15.675434974017539602
0.375000000000000167,-15.565851438344964208
0.376000000000000167,-15.457152845535045316
0.377000000000000168,-15.349342030165349371
0.378000000000000169,-15.242419082462223656
0.379000000000000170,-15.136381520069914330
0.380000000000000171,-15.031224456774243237
0.381000000000000172,-14.926940767890062745
0.382000000000000173,-14.823521252050337438
0.383000000000000174,-14.720954789163181786
0.384000000000000175,-14.619228494329334467
0.385000000000000175,-14.518327867538678433
0.386000000000000176,-14.418236938988357565
0.387000000000000177,-14.318938409888366081
0.388000000000000178,-14.220413788642639830
0.389000000000000179,-14.122643522314021425
0.390000000000000180,-14.025607123301593759
0.391000000000000181,-13.929283291176972170
0.392000000000000182,-13.833650029643797197
0.393000000000000183,-13.738684758600587799
0.394000000000000183,-13.644364421302617174
0.395000000000000184,-13.550665586632423043
0.396000000000000185,-13.457564546501640024
0.397000000000000186,-13.365037408419132348
0.398000000000000187,-13.273060183271411461
0.399000000000000188,-13.181608868371679222
0.400000000000000189,-13.090659525843241440
0.401000000000000190,-13.000188356411433332
0.402000000000000191,-12.910171768686126370
0.403000000000000191,-12.820586444023604145
0.404000000000000192,-12.731409397063012889
0.405000000000000193,-12.642618032037969300
0.406000000000000194,-12.554190194968706251
0.407000000000000195,-12.466104221844554800
0.408000000000000196,-12.378338982909893318
0.409000000000000197,-12.290873923169819193
0.410000000000000198,-12.203689099234514615
0.411000000000000199,-12.116765212622841119
0.412000000000000199,-12.030083639647594751
0.413000000000000200,-11.943626458005820012
0.414000000000000201,-11.857376470198179419
0.415000000000000202,-11.771317223901681004
0.416000000000000203,-11.685433029420179807
0.417000000000000204,-11.599708974336319756
0.418000000000000205,-11.514130935488248397
0.419000000000000206,-11.428685588393221906
0.420000000000000207,-11.343360414238935263
0.421000000000000207,-11.258143704562256104
0.422000000000000208,-11.173024563732855796
0.423000000000000209,-11.087992909357826221
0.424000000000000210,-11.003039470721043713
0.425000000000000211,-10.918155785368750088
0.426000000000000212,-10.833334193950857838
0.427000000000000213,-10.748567833424495177
0.428000000000000214,-10.663850628724139469
0.429000000000000214,-10.579177282999832954
0.430000000000000215,-10.494543266522159186
0.431000000000000216,-10.409944804350100611
0.432000000000000217,-10.325378862854689643
0.433000000000000218,-10.240843135188715252
0.434000000000000219,-10.156336025789702404
0.435000000000000220,-10.071856634000468489
0.436000000000000221,-9.987404736888491286
0.437000000000000222,-9.902980771342431154
0.438000000000000222,-9.818585815521224447
0.439000000000000223,-9.734221569728072510
0.440000000000000224,-9.649890336778813804
0.441000000000000225,-9.565595001931191277
0.442000000000000226,-9.481339012438787961
0.443000000000000227,-9.397126356790238333
0.444000000000000228,-9.312961543691972821
0.445000000000000229,-9.228849580849566081
0.446000000000000230,-9.144795953600246108
0.447000000000000230,-9.060806603446541985
0.448000000000000231,-8.976887906538260964
0.449000000000000232,-8.893046652147443609
0.450000000000000233,-8.809290021178743046
0.451000000000000234,-8.725625564754782459
0.452000000000000235,-8.642061182914160256
0.453000000000000236,-8.558605103457002983
0.454000000000000237,-8.475265860971282095
0.455000000000000238,-8.392052276070268491
0.456000000000000238,-8.308973434870127406
0.457000000000000239,-8.226038668733949066
0.458000000000000240,-8.143257534307137391
0.459000000000000241,-8.060639793866593905
0.460000000000000242,-7.978195396004934992
0.461000000000000243,-7.895934456668610935
0.462000000000000244,-7.813867240567615724
0.463000000000000245,-7.732004142972360050
0.464000000000000246,-7.650355671912199895
0.465000000000000246,-7.568932430788254173
0.466000000000000247,-7.487745101411826809
0.467000000000000248,-7.406804427478371977
0.468000000000000249,-7.326121198485735064
0.469000000000000250,-7.245706234103894694
0.470000000000000251,-7.165570369002503881
0.471000000000000252,-7.085724438141154380
0.472000000000000253,-7.006179262526518237
0.473000000000000254,-6.926945635439079929
0.474000000000000254,-6.848034309131618258
0.475000000000000255,-6.769455982000354588
0.476000000000000256,-6.691221286229017906
0.477000000000000257,-6.613340775905220070
0.478000000000000258,-6.535824915607612695
0.479000000000000259,-6.458684069461834376
0.480000000000000260,-6.381928490662383879
0.481000000000000261,-6.305568311456893227
0.482000000000000262,-6.229613533588929108
0.483000000000000262,-6.154074019194610834
0.484000000000000263,-6.078959482147961779
0.485000000000000264,-6.004279479849452095
0.486000000000000265,-5.930043405451693950
0.487000000000000266,-5.856260480515867783
0.488000000000000267,-5.782939748092071675
0.489000000000000268,-5.710090066216547910
0.490000000000000269,-5.637720101818198160
0.491000000000000270,-5.565838325026871480
0.492000000000000270,-5.494453003875252151
0.493000000000000271,-5.423572199386351045
0.494000000000000272,-5.353203761038118458
0.495000000000000273,-5.283355322596587023
0.496000000000000274,-5.214034298309009330
0.497000000000000275,-5.145247879447970796
0.498000000000000276,-5.077003031197673266
0.499000000000000277,-5.009306489873361024
0.500000000000000222,-4.942164760464725859
0.501000000000000334,-4.875584114494282417
0.502000000000000224,-4.809570588181507844
0.503000000000000336,-4.744129980903468713
0.504000000000000226,-4.679267853943054334
0.505000000000000338,-4.614989529515209021
0.506000000000000227,-4.551300090062616377
0.507000000000000339,-4.488204377811131351
0.508000000000000229,-4.425706994576498410
0.509000000000000341,-4.363812301812890482
0.510000000000000231,-4.302524420894885182
0.511000000000000343,-4.241847233623531999
0.512000000000000233,-4.181784382948301015
0.513000000000000345,-4.122339273895855527
0.514000000000000234,-4.063515074697613194
0.515000000000000346,-4.005314718107169547
0.516000000000000236,-3.947740902899870008
0.517000000000000348,-3.890796095545922206
0.518000000000000238,-3.834482532049418246
0.519000000000000350,-3.778802219945072149
0.520000000000000240,-3.723756940445265062
0.521000000000000352,-3.669348250729549399
0.522000000000000242,-3.615577486369397242
0.523000000000000353,-3.562445763880732308
0.524000000000000243,-3.509953983397302579
0.525000000000000355,-3.458102831457755766
0.526000000000000245,-3.406892783899824195
0.527000000000000357,-3.356324108854677579
0.528000000000000247,-3.306396869835341423
0.529000000000000359,-3.257110928912466896
0.530000000000000249,-3.208465949971630149
0.531000000000000361,-3.160461402045894541
0.532000000000000250,-3.113096562718074889
0.533000000000000362,-3.066370521586721853
0.534000000000000252,-3.020282183790653274
0.535000000000000364,-2.974830273586376528
0.536000000000000254,-2.930013337973515597
0.537000000000000366,-2.885829750362894242
0.538000000000000256,-2.842277714282781975
0.539000000000000368,-2.799355267118192270
0.540000000000000258,-2.757060283879097629
0.541000000000000369,-2.715390480992727174
0.542000000000000259,-2.674343420116140013
0.543000000000000371,-2.633916511964590867
0.544000000000000261,-2.594107020152013554
0.545000000000000373,-2.554912065039652180
0.546000000000000263,-2.516328627589331735
0.547000000000000375,-2.478353553217614635
0.548000000000000265,-2.440983555647819436
0.549000000000000377,-2.404215220756256155
0.550000000000000266,-2.368045010409927098
0.551000000000000378,-2.332469266292451771
0.552000000000000268,-2.297484213715574874
0.553000000000000380,-2.263085965413348166
0.554000000000000270,-2.229270525316587204
0.555000000000000382,-2.196033792304913579
0.556000000000000272,-2.163371563934279429
0.557000000000000384,-2.131279540137428263
0.558000000000000274,-2.099753326895503314
0.559000000000000385,-2.068788439878450180
0.560000000000000275,-2.038380308052615497
0.561000000000000387,-2.008524277253477930
0.562000000000000277,-1.979215613721986955
0.563000000000000389,-1.950449507602797228
0.564000000000000279,-1.922221076402982121
0.565000000000000391,-1.894525368409728516
0.566000000000000281,-1.867357366065752089
0.567000000000000393,-1.840711989301158535
0.568000000000000282,-1.814584098820693825
0.569000000000000394,-1.788968499345144680
0.570000000000000284,-1.763859942806140335
0.571000000000000396,-1.739253131493228910
0.572000000000000286,-1.715142721152609795
0.573000000000000398,-1.691523324036555920
0.574000000000000288,-1.668389511903036082
0.575000000000000400,-1.645735818964813246
0.576000000000000290,-1.623556744787502115
0.577000000000000401,-1.601846757136099253
0.578000000000000291,-1.580600294769598957
0.579000000000000403,-1.559811770183247237
0.580000000000000293,-1.539475572298262707
0.581000000000000405,-1.519586069098625369
0.582000000000000295,-1.500137610214890227
0.583000000000000407,-1.481124529454728167
0.584000000000000297,-1.462541147280246090
0.585000000000000409,-1.444381773231912192
0.586000000000000298,-1.426640708299192539
0.587000000000000410,-1.409312247237829441
0.588000000000000300,-1.392390680833963890
0.589000000000000412,-1.375870298115092316
0.590000000000000302,-1.359745388508131203
0.591000000000000414,-1.344010243944725680
0.592000000000000304,-1.328659160914034576
0.593000000000000416,-1.313686442463253501
0.594000000000000306,-1.299086400146207243
0.595000000000000417,-1.284853355920273721
0.596000000000000307,-1.270981643992028065
0.597000000000000419,-1.257465612611974537
0.598000000000000309,-1.244299625818795274
0.599000000000000421,-1.231478065133459143
0.600000000000000311,-1.218995331203760912
0.601000000000000423,-1.206845845399638240
0.602000000000000313,-1.195024051359879547
0.603000000000000425,-1.183524416490565612
0.604000000000000314,-1.172341433415990730
0.605000000000000426,-1.161469621382366091
0.606000000000000316,-1.150903527615078303
0.607000000000000428,-1.140637728629883219
0.608000000000000318,-1.130666831498789326
0.609000000000000430,-1.120985475071094140
0.610000000000000320,-1.111588331150257458
0.611000000000000432,-1.102470105627189945
0.612000000000000322,-1.093625539570610261
0.613000000000000433,-1.085049410275071624
0.614000000000000323,-1.076736532267339674
0.615000000000000435,-1.068681758271733395
0.616000000000000325,-1.060879980135102318
0.617000000000000437,-1.053326129712093717
0.618000000000000327,-1.046015179711380139
0.619000000000000439,-1.038942144503490095
0.620000000000000329,-1.032102080890951346
0.621000000000000441,-1.025490088841376934
0.622000000000000330,-1.019101312184206520
0.623000000000000442,-1.012930939271736497
0.624000000000000332,-1.006974203605155216
0.625000000000000444,-1.001226384426231686
0.626000000000000334,-0.995682807275335202
0.627000000000000446,-0.990338844516479133
0.628000000000000336,-0.985189915830036567
0.629000000000000448,-0.980231488673800833
0.630000000000000338,-0.975459078713093009
0.631000000000000449,-0.970868250220519813
0.632000000000000339,-0.966454616446113746
0.633000000000000451,-0.962213839958447892
0.634000000000000341,-0.958141632957427825
0.635000000000000453,-0.954233757559404538
0.636000000000000343,-0.950486026055195388
0.637000000000000455,-0.946894301141774641
0.638000000000000345,-0.943454496128127595
0.639000000000000457,-0.940162575116009536
0.640000000000000346,-0.937014553156167773
0.641000000000000458,-0.934006496380692219
0.642000000000000348,-0.931134522112057050
0.643000000000000460,-0.928394798949506272
0.644000000000000350,-0.925783546833359949
0.645000000000000462,-0.923297037087834171
0.646000000000000352,-0.920931592442962854
0.647000000000000464,-0.918683587036208671
0.648000000000000353,-0.916549446394326450
0.649000000000000465,-0.914525647396040808
0.650000000000000355,-0.912608718216117665
0.651000000000000467,-0.910795238251338346
0.652000000000000357,-0.909081838028971356
0.653000000000000469,-0.907465199098224318
0.654000000000000359,-0.905942053905256506
0.655000000000000471,-0.904509185652209169
0.656000000000000361,-0.903163428140828062
0.657000000000000473,-0.901901665601137936
0.658000000000000362,-0.900720832505685798
0.659000000000000474,-0.899617913369822775
