# bi-graphene_CS-8953-AC
# h[nm],U(h)[kJ/mol]
0.200000000000000011,47.126573475741167840
0.201000000000000012,46.354923495243234299
0.202000000000000013,45.051250723024033107
0.203000000000000014,43.542850174705151289
0.204000000000000015,42.002261789066608344
0.205000000000000016,40.508247586743799218
0.206000000000000016,39.085974357547200952
0.207000000000000017,37.732728001753784497
0.208000000000000018,36.433726494814308694
0.209000000000000019,35.171295227662866978
0.210000000000000020,33.929709328913816080
0.211000000000000021,32.697306941914227707
0.212000000000000022,31.466970068873926891
0.213000000000000023,30.235705925860919763
0.214000000000000024,29.003804237287560852
0.215000000000000024,27.773866232798109621
0.216000000000000025,26.549878052507818182
0.217000000000000026,25.336418962693073809
0.218000000000000027,24.138041468934872569
0.219000000000000028,22.958827419315735341
0.220000000000000029,21.802105181469752182
0.221000000000000030,20.670303368122247889
0.222000000000000031,19.564913094232519342
0.223000000000000032,18.486531058779565484
0.224000000000000032,17.434958249338276204
0.225000000000000033,16.409332678843263409
0.226000000000000034,15.408278565125524295
0.227000000000000035,14.430058304045207507
0.228000000000000036,13.472717201216607208
0.229000000000000037,12.534214077751229865
0.230000000000000038,11.612533499490631073
0.231000000000000039,10.705777498815773896
0.232000000000000040,9.812236298298570247
0.233000000000000040,8.930438759258276349
0.234000000000000041,8.059184126642820800
0.235000000000000042,7.197557186732467471
0.236000000000000043,6.344929255145811631
0.237000000000000044,5.500947523323271859
0.238000000000000045,4.665515259281312055
0.239000000000000046,3.838765223221018097
0.240000000000000047,3.021028453945855841
0.241000000000000048,2.212800335060667312
0.242000000000000048,1.414705581925110867
0.243000000000000049,0.627463517675857063
0.244000000000000050,-0.148145258579387068
0.245000000000000051,-0.911309957509351398
0.246000000000000052,-1.661217812910971148
0.247000000000000053,-2.397078998873704681
0.248000000000000054,-3.118148002960161591
0.249000000000000055,-3.823741356887753629
0.250000000000000056,-4.513251749604158647
0.251000000000000056,-5.186158646735973043
0.252000000000000057,-5.842035617173498174
0.253000000000000058,-6.480554624325101543
0.254000000000000059,-7.101487578750850460
0.255000000000000060,-7.704705472889747497
0.256000000000000061,-8.290175429783761984
0.257000000000000062,-8.857955998293984834
0.258000000000000063,-9.408191019350912399
0.259000000000000064,-9.941102373137429282
0.260000000000000064,-10.456981897420840610
0.261000000000000065,-10.956182743972124882
0.262000000000000066,-11.439110414381723047
0.263000000000000067,-11.906213689648890153
0.264000000000000068,-12.357975640562083086
0.265000000000000069,-12.794904878809967741
0.266000000000000070,-13.217527182529252627
0.267000000000000071,-13.626377605043256125
0.268000000000000071,-14.021993152192152365
0.269000000000000072,-14.404906092127848893
0.270000000000000073,-14.775637941882255433
0.271000000000000074,-15.134694157489445132
0.272000000000000075,-15.482559538964228096
0.273000000000000076,-15.819694347979410765
0.274000000000000077,-16.146531124575322025
0.275000000000000078,-16.463472179581540189
0.276000000000000079,-16.770887731517156283
0.277000000000000079,-17.069114650434279667
0.278000000000000080,-17.358455766339524473
0.279000000000000081,-17.639179696331268588
0.280000000000000082,-17.911521142281344510
0.281000000000000083,-18.175681609630451874
0.282000000000000084,-18.431830497520202528
0.283000000000000085,-18.680106510923025098
0.284000000000000086,-18.920619346533278815
0.285000000000000087,-19.153451605833566873
0.286000000000000087,-19.378660890848841802
0.287000000000000088,-19.596282040549482417
0.288000000000000089,-19.806329468579900066
0.289000000000000090,-20.008799565894172190
0.290000000000000091,-20.203673134906903641
0.291000000000000092,-20.390917824858682650
0.292000000000000093,-20.570490541198012124
0.293000000000000094,-20.742339804853990870
0.294000000000000095,-20.906408040278222416
0.295000000000000095,-21.062633774042030410
0.296000000000000096,-21.210953728559804432
0.297000000000000097,-21.351304798153638131
0.298000000000000098,-21.483625897163090457
0.299000000000000099,-21.607859672127094797
0.300000000000000100,-21.723954072215054367
0.301000000000000101,-21.831863774059634409
0.302000000000000102,-21.931551458940649724
0.303000000000000103,-22.022988941893075321
0.304000000000000103,-22.106158153762308416
0.305000000000000104,-22.181051978514584988
0.306000000000000105,-22.247674949234045982
0.307000000000000106,-22.306043807208670415
0.308000000000000107,-22.356187929333678710
0.309000000000000108,-22.398149629750278677
0.310000000000000109,-22.431984342201104710
0.311000000000000110,-22.457760690027669170
0.312000000000000111,-22.475560451072812640
0.313000000000000111,-22.485478424987249468
0.314000000000000112,-22.487622210587534965
0.315000000000000113,-22.482111900978416941
0.316000000000000114,-22.469079704146516008
0.317000000000000115,-22.448669496661405987
0.318000000000000116,-22.421036317993483067
0.319000000000000117,-22.386345812781875964
0.320000000000000118,-22.344773628167637014
0.321000000000000119,-22.296504773054401483
0.322000000000000119,-22.241732945875394734
0.323000000000000120,-22.180659837139522494
0.324000000000000121,-22.113494412703559533
0.325000000000000122,-22.040452183378594242
0.326000000000000123,-21.961754466129541186
0.327000000000000124,-21.877627641771589140
0.328000000000000125,-21.788302413710564309
0.329000000000000126,-21.694013071916629087
0.330000000000000127,-21.594996765967735541
0.331000000000000127,-21.491492790651136602
0.332000000000000128,-21.383741887270939941
0.333000000000000129,-21.271985563478772008
0.334000000000000130,-21.156465434124513081
0.335000000000000131,-21.037422585316257084
0.336000000000000132,-20.915096963583174272
0.337000000000000133,-20.789726791754297608
0.338000000000000134,-20.661548012898961701
0.339000000000000135,-20.530793763422703790
0.340000000000000135,-20.397693876175562622
0.341000000000000136,-20.262474414207396478
0.342000000000000137,-20.125357235598357875
0.343000000000000138,-19.986559589600751963
0.344000000000000139,-19.846293744151207505
0.345000000000000140,-19.704766644650078433
0.346000000000000141,-19.562179603756050028
0.347000000000000142,-19.418728021809304352
0.348000000000000143,-19.274601137375412918
0.349000000000000143,-19.129981807292796958
0.350000000000000144,-18.985046315510530235
0.351000000000000145,-18.839964209917788196
0.352000000000000146,-18.694898166292581720
0.353000000000000147,-18.550003878433809490
0.354000000000000148,-18.405429973486906903
0.355000000000000149,-18.261317951428889472
0.356000000000000150,-18.117802147643100596
0.357000000000000151,-17.975009717485804117
0.358000000000000151,-17.833060641726909523
0.359000000000000152,-17.692067751733524972
0.360000000000000153,-17.552136773258311564
0.361000000000000154,-17.413366387693475446
0.362000000000000155,-17.275848309655359003
0.363000000000000156,-17.139667379773889877
0.364000000000000157,-17.004901671574405242
0.365000000000000158,-16.871622611357022237
0.366000000000000159,-16.739895109999352485
0.367000000000000159,-16.609777705632417621
0.368000000000000160,-16.481322716166527442
0.369000000000000161,-16.354576400672549141
0.370000000000000162,-16.229579128655213793
0.371000000000000163,-16.106365556288100294
0.372000000000000164,-15.984964808713376883
0.373000000000000165,-15.865400667545525693
0.374000000000000166,-15.747691762753529332
0.375000000000000167,-15.631851768133392611
0.376000000000000167,-15.517889599619678620
0.377000000000000168,-15.405809615722187544
0.378000000000000169,-15.295611819411300658
0.379000000000000170,-15.187292060813010863
0.380000000000000171,-15.080842240111147490
0.381000000000000172,-14.976250510091526635
0.382000000000000173,-14.873501477798209081
0.383000000000000174,-14.772576404807963968
0.384000000000000175,-14.673453405663313021
0.385000000000000175,-14.576107644038682309
0.386000000000000176,-14.480511526247010323
0.387000000000000177,-14.386634891726169272
0.388000000000000178,-14.294445200175781352
0.389000000000000179,-14.203907715044758575
0.390000000000000180,-14.114985683098968394
0.391000000000000181,-14.027640509826195370
0.392000000000000182,-13.941831930462337041
0.393000000000000183,-13.857518176448138547
0.394000000000000183,-13.774656137150481428
0.395000000000000184,-13.693201516705318710
0.396000000000000185,-13.613108985861524403
0.397000000000000186,-13.534332328726065953
0.398000000000000187,-13.456824584330661310
0.399000000000000188,-13.380538182958947147
0.400000000000000189,-13.305425077190928818
0.401000000000000190,-13.231436867638013410
0.402000000000000191,-13.158524923357717284
0.403000000000000191,-13.086640496951522650
0.404000000000000192,-13.015734834363119177
0.405000000000000193,-12.945759279406814812
0.406000000000000194,-12.876665373067609721
0.407000000000000195,-12.808404947625438908
0.408000000000000196,-12.740930215665574821
0.409000000000000197,-12.674193854046819752
0.410000000000000198,-12.608149082907136318
0.411000000000000199,-12.542749739793809027
0.412000000000000199,-12.477950349012283837
0.413000000000000200,-12.413706186293756772
0.414000000000000201,-12.349973338887094698
0.415000000000000202,-12.286708761185208161
0.416000000000000203,-12.223870326000653819
0.417000000000000204,-12.161416871608242474
0.418000000000000205,-12.099308244675992086
0.419000000000000206,-12.037505339207983823
0.420000000000000207,-11.975970131624780635
0.421000000000000207,-11.914665712108909901
0.422000000000000208,-11.853556312343545898
0.423000000000000209,-11.792607329773913349
0.424000000000000210,-11.731785348520883616
0.425000000000000211,-11.671058157076327433
0.426000000000000212,-11.610394762909768573
0.427000000000000213,-11.549765404114882728
0.428000000000000214,-11.489141558223938233
0.429000000000000214,-11.428495948316742314
0.430000000000000215,-11.367802546549658160
0.431000000000000216,-11.307036575228440967
0.432000000000000217,-11.246174505546935762
0.433000000000000218,-11.185194054111798678
0.434000000000000219,-11.124074177371152672
0.435000000000000220,-11.062795064063008610
0.436000000000000221,-11.001338125796745970
0.437000000000000222,-10.939685985878483621
0.438000000000000222,-10.877822466488707320
0.439000000000000223,-10.815732574317657111
0.440000000000000224,-10.753402484761348745
0.441000000000000225,-10.690819524778202521
0.442000000000000226,-10.627972154503554592
0.443000000000000227,-10.564849947716137279
0.444000000000000228,-10.501443571248046283
0.445000000000000229,-10.437744763426447747
0.446000000000000230,-10.373746311632414674
0.447000000000000230,-10.309442029059519896
0.448000000000000231,-10.244826730751473320
0.449000000000000232,-10.179896208995428353
0.450000000000000233,-10.114647208144585733
0.451000000000000234,-10.049077398940706729
0.452000000000000235,-9.983185352404431612
0.453000000000000236,-9.916970513358217332
0.454000000000000237,-9.850433173644210783
0.455000000000000238,-9.783574445096240524
0.456000000000000238,-9.716396232322702886
0.457000000000000239,-9.648901205354151855
0.458000000000000240,-9.581092772207112418
0.459000000000000241,-9.512975051412599470
0.460000000000000242,-9.444552844555810012
0.461000000000000243,-9.375831608870601741
0.462000000000000244,-9.306817429930184460
0.463000000000000245,-9.237516994472931842
0.464000000000000246,-9.167937563400199608
0.465000000000000246,-9.098086944980519064
0.466000000000000247,-9.027973468292595172
0.467000000000000248,-8.957605956937310765
0.468000000000000249,-8.886993703047046722
0.469000000000000250,-8.816146441618524676
0.470000000000000251,-8.745074325193563425
0.471000000000000252,-8.673787898910235938
0.472000000000000253,-8.602298075945336464
0.473000000000000254,-8.530616113366985331
0.474000000000000254,-8.458753588415026670
0.475000000000000255,-8.386722375224845649
0.476000000000000256,-8.314534622009009723
0.477000000000000257,-8.242202728709624893
0.478000000000000258,-8.169739325132720609
0.479000000000000259,-8.097157249574900462
0.480000000000000260,-8.024469527951028525
0.481000000000000261,-7.951689353430509755
0.482000000000000262,-7.878830066588660586
0.483000000000000262,-7.805905136078439277
0.484000000000000263,-7.732928139826798386
0.485000000000000264,-7.659912746758846147
0.486000000000000265,-7.586872699052190860
0.487000000000000266,-7.513821794922700192
0.488000000000000267,-7.440773871942279349
0.489000000000000268,-7.367742790888311966
0.490000000000000269,-7.294742420123627724
0.491000000000000270,-7.221786620505321608
0.492000000000000270,-7.148889230819707841
0.493000000000000271,-7.076064053740486415
0.494000000000000272,-7.003324842306243525
0.495000000000000273,-6.930685286912959597
0.496000000000000274,-6.858159002816845096
0.497000000000000275,-6.785759518141967206
0.498000000000000276,-6.713500262387026574
0.499000000000000277,-6.641394555425073065
0.500000000000000222,-6.569455596989463686
0.501000000000000334,-6.497696456639221019
0.502000000000000224,-6.426130064196508229
0.503000000000000336,-6.354769200648457073
0.504000000000000226,-6.283626489505843793
0.505000000000000338,-6.212714388610057981
0.506000000000000227,-6.142045182380540425
0.507000000000000339,-6.071630974493674948
0.508000000000000229,-6.001483680984898150
0.509000000000000341,-5.931615023764725159
0.510000000000000231,-5.862036524540253701
0.511000000000000343,-5.792759499132442258
0.512000000000000233,-5.723795052180565612
0.513000000000000345,-5.655154072224076955
0.514000000000000234,-5.586847227153110218
0.515000000000000346,-5.518884960017635954
0.516000000000000236,-5.451277485186540872
0.517000000000000348,-5.384034784846692290
0.518000000000000238,-5.317166605833042681
0.519000000000000350,-5.250682456780007001
0.520000000000000240,-5.184591605585152863
0.521000000000000352,-5.118903077175567695
0.522000000000000242,-5.053625651567932309
0.523000000000000353,-4.988767862212837301
0.524000000000000243,-4.924337994614496061
0.525000000000000355,-4.860344085216543597
0.526000000000000245,-4.796793920545245449
0.527000000000000357,-4.733695036600904515
0.528000000000000247,-4.671054718489129343
0.529000000000000359,-4.608880000282866263
0.530000000000000249,-4.547177665107055233
0.531000000000000361,-4.485954245437126175
0.532000000000000250,-4.425216023603413262
0.533000000000000362,-4.364969032492910905
0.534000000000000252,-4.305219056440741099
0.535000000000000364,-4.245971632303048970
0.536000000000000254,-4.187232050703975084
0.537000000000000366,-4.129005357448590097
0.538000000000000256,-4.071296355094908392
0.539000000000000368,-4.014109604677030596
0.540000000000000258,-3.957449427572864664
0.541000000000000369,-3.901319907508780549
0.542000000000000259,-3.845724892694927011
0.543000000000000371,-3.790667998083962154
0.544000000000000261,-3.736152607747036392
0.545000000000000373,-3.682181877360336308
0.546000000000000263,-3.628758736796191986
0.547000000000000375,-3.575885892812268541
0.548000000000000265,-3.523565831833451512
0.549000000000000377,-3.471800822819984145
0.550000000000000266,-3.420592920216814825
0.551000000000000378,-3.369943966978207861
0.552000000000000268,-3.319855597662626057
0.553000000000000380,-3.270329241592412561
0.554000000000000270,-3.221366126073533565
0.555000000000000382,-3.172967279670169116
0.556000000000000272,-3.125133535529783124
0.557000000000000384,-3.077865534753684962
0.558000000000000274,-3.031163729809030816
0.559000000000000385,-2.985028387977586739
0.560000000000000275,-2.939459594837420475
0.561000000000000387,-2.894457257773226821
0.562000000000000277,-2.850021109511585493
0.563000000000000389,-2.806150711677247944
0.564000000000000279,-2.762845458366984808
0.565000000000000391,-2.720104579737340877
0.566000000000000281,-2.677927145603056669
0.567000000000000393,-2.636312069042813455
0.568000000000000282,-2.595258110009329933
0.569000000000000394,-2.554763878940577992
0.570000000000000284,-2.514827840369552092
0.571000000000000396,-2.475448316529493376
0.572000000000000286,-2.436623490952259719
0.573000000000000398,-2.398351412056969778
0.574000000000000288,-2.360629996726787638
0.575000000000000400,-2.323457033871329624
0.576000000000000290,-2.286830187972592743
0.577000000000000401,-2.250747002612190073
0.578000000000000291,-2.215204903978012840
0.579000000000000403,-2.180201204348228394
0.580000000000000293,-2.145733105550988284
0.581000000000000405,-2.111797702397896437
0.582000000000000295,-2.078391986089840326
0.583000000000000407,-2.045512847593376371
0.584000000000000297,-2.013157080986430536
0.585000000000000409,-1.981321386771736304
0.586000000000000298,-1.950002375156894896
0.587000000000000410,-1.919196569299602029
0.588000000000000300,-1.888900408517157015
0.589000000000000412,-1.859110251458899299
0.590000000000000302,-1.829822379240803043
0.591000000000000414,-1.801032998541150620
0.592000000000000304,-1.772738244656472562
0.593000000000000416,-1.744934184516904407
0.594000000000000306,-1.717616819660307881
0.595000000000000417,-1.690782089164367674
0.596000000000000307,-1.664425872536119844
0.597000000000000419,-1.638543992558305629
0.598000000000000309,-1.613132218092099279
0.599000000000000421,-1.588186266835649452
0.600000000000000311,-1.563701808038170160
0.601000000000000423,-1.539674465169069029
0.602000000000000313,-1.516099818542003375
0.603000000000000425,-1.492973407893331217
0.604000000000000314,-1.470290734915087993
0.605000000000000426,-1.448047265741938094
0.606000000000000316,-1.426238433392331473
0.607000000000000428,-1.404859640163444778
0.608000000000000318,-1.383906259980131725
0.609000000000000430,-1.363373640697641775
0.610000000000000320,-1.343257106358292763
0.611000000000000432,-1.323551959402002876
0.612000000000000322,-1.304253482830904476
0.613000000000000433,-1.285356942328004681
0.614000000000000323,-1.266857588330173812
0.615000000000000435,-1.248750658055509444
0.616000000000000325,-1.231031377485372058
0.617000000000000437,-1.213694963301219509
0.618000000000000327,-1.196736624776576718
0.619000000000000439,-1.180151565624314003
0.620000000000000329,-1.163934985799611521
0.621000000000000441,-1.148082083258846753
0.622000000000000330,-1.132588055674798033
0.623000000000000442,-1.117448102108429042
0.624000000000000332,-1.102657424637722983
0.625000000000000444,-1.088211229943850444
0.626000000000000334,-1.074104730855133250
0.627000000000000446,-1.060333147849179314
0.628000000000000336,-1.046891710513636831
0.629000000000000448,-1.033775658965967459
0.630000000000000338,-1.020980245232766093
0.631000000000000449,-1.008500734588964942
0.632000000000000339,-0.996332406857531439
0.633000000000000451,-0.984470557670013902
0.634000000000000341,-0.972910499688526054
0.635000000000000453,-0.961647563789594928
0.636000000000000343,-0.950677100210400972
0.637000000000000455,-0.939994479657949911
0.638000000000000345,-0.929595094381640563
0.639000000000000457,-0.919474359209781156
0.640000000000000346,-0.909627712550588718
0.641000000000000458,-0.900050617358175153
0.642000000000000348,-0.890738562064080419
0.643000000000000460,-0.881687061474862865
0.644000000000000350,-0.872891657636337692
0.645000000000000462,-0.864347920664928937
0.646000000000000352,-0.856051449546763932
0.647000000000000464,-0.847997872904971084
0.648000000000000353,-0.840182849735821691
0.649000000000000465,-0.832602070114148995
0.650000000000000355,-0.825251255868718281
0.651000000000000467,-0.818126161227967552
0.652000000000000357,-0.811222573436767513
0.653000000000000469,-0.804536313344671350
0.654000000000000359,-0.798063235966256168
0.655000000000000471,-0.791799231014030047
0.656000000000000361,-0.785740223404515215
0.657000000000000473,-0.779882173737982631
0.658000000000000362,-0.774221078752412972
