# bi-graphene_CS-29107-AC
# h[nm],U(h)[kJ/mol]
0.149999999999999994,99.267498869842413001
0.150999999999999995,95.945563454425084160
0.151999999999999996,93.386726874466447157
0.152999999999999997,91.021540633221292182
0.153999999999999998,88.638022721838723328
0.154999999999999999,86.194926889753958221
0.156000000000000000,83.719349274572181230
0.157000000000000001,81.254687599521986385
0.158000000000000002,78.837493316480092176
0.159000000000000002,76.489976998831849642
0.160000000000000003,74.220243501314712375
0.161000000000000004,72.025710046025295696
0.162000000000000005,69.897256339544000525
0.163000000000000006,67.822917876263161929
0.164000000000000007,65.790661987344734030
0.165000000000000008,63.790180550280140892
0.166000000000000009,61.813824539766301314
0.167000000000000010,59.856878320252270953
0.168000000000000010,57.917379221737533612
0.169000000000000011,55.995663414032875949
0.170000000000000012,54.093781913304745501
0.171000000000000013,52.214891660349657343
0.172000000000000014,50.362691594629332315
0.173000000000000015,48.540944873223438094
0.174000000000000016,46.753106352921612654
0.175000000000000017,45.002058681195144629
0.176000000000000018,43.289949888401523026
0.177000000000000018,41.618119162191455018
0.178000000000000019,39.987094476219986916
0.179000000000000020,38.396645024097189491
0.180000000000000021,36.845872219487922905
0.181000000000000022,35.333324768722789599
0.182000000000000023,33.857125554768018105
0.183000000000000024,32.415100468539264966
0.184000000000000025,31.004901665840645109
0.185000000000000026,29.624119876830103948
0.186000000000000026,28.270382271928376383
0.187000000000000027,26.941433959814069965
0.188000000000000028,25.635202456611573041
0.189000000000000029,24.349845437728067310
0.190000000000000030,23.083782794235560232
0.191000000000000031,21.835714499571331260
0.192000000000000032,20.604626086942477770
0.193000000000000033,19.389783679581029219
0.194000000000000034,18.190720538648747606
0.195000000000000034,17.007217027179251545
0.196000000000000035,15.839275758864047816
0.197000000000000036,14.687093529400886638
0.198000000000000037,13.551031433140124705
0.199000000000000038,12.431584362794026788
0.200000000000000039,11.329350885632045731
0.201000000000000040,10.245004293658176664
0.202000000000000041,9.179265443165538940
0.203000000000000042,8.132877834253561034
0.204000000000000042,7.106585235279969659
0.205000000000000043,6.101112031506501054
0.206000000000000044,5.117146371166229279
0.207000000000000045,4.155326094964602923
0.208000000000000046,3.216227365296913998
0.209000000000000047,2.300355857614702071
0.210000000000000048,1.408140336638734613
0.211000000000000049,0.539928412686774828
0.212000000000000050,-0.304015743531648230
0.213000000000000050,-1.123511957403450223
0.214000000000000051,-1.918463108818401652
0.215000000000000052,-2.688852918239802214
0.216000000000000053,-3.434742676820124352
0.217000000000000054,-4.156267124238548050
0.218000000000000055,-4.853629662878756079
0.219000000000000056,-5.527097080386178085
0.220000000000000057,-6.176993935246887446
0.221000000000000058,-6.803696742377769446
0.222000000000000058,-7.407628078279262063
0.223000000000000059,-7.989250708422931169
0.224000000000000060,-8.549061823505088142
0.225000000000000061,-9.087587456183991108
0.226000000000000062,-9.605377136063196986
0.227000000000000063,-10.102998828065613779
0.228000000000000064,-10.581034187992480966
0.229000000000000065,-11.040074158981770580
0.230000000000000066,-11.480714923736265121
0.231000000000000066,-11.903554219738818887
0.232000000000000067,-12.309188018140337917
0.233000000000000068,-12.698207561521874354
0.234000000000000069,-13.071196751211065390
0.235000000000000070,-13.428729871188787470
0.236000000000000071,-13.771369632766090163
0.237000000000000072,-14.099665522059472877
0.238000000000000073,-14.414152430758059964
0.239000000000000073,-14.715349549680359686
0.240000000000000074,-15.003759504087685883
0.241000000000000075,-15.279867709582427793
0.242000000000000076,-15.544141927610997556
0.243000000000000077,-15.797032000054230139
0.244000000000000078,-16.038969743068932416
0.245000000000000079,-16.270368981197172786
0.246000000000000080,-16.491625703742407438
0.247000000000000081,-16.703118326488787915
0.248000000000000081,-16.905208042978646432
0.249000000000000082,-17.098239250737513828
0.250000000000000111,-17.282540039023633227
0.251000000000000112,-17.458422725858660840
0.252000000000000113,-17.626184433256280926
0.253000000000000114,-17.786107690687497751
0.254000000000000115,-17.938461057902248541
0.255000000000000115,-18.083499759252639194
0.256000000000000116,-18.221466322633148138
0.257000000000000117,-18.352591217060624018
0.258000000000000118,-18.477093483760491210
0.259000000000000119,-18.595181356405237949
0.260000000000000120,-18.707052866866021645
0.261000000000000121,-18.812896433488837999
0.262000000000000122,-18.912891429496596629
0.263000000000000123,-19.007208729647480538
0.264000000000000123,-19.096011233753301894
0.265000000000000124,-19.179454366079859540
0.266000000000000125,-19.257686550020139293
0.267000000000000126,-19.330849657751421944
0.268000000000000127,-19.399079434865281968
0.269000000000000128,-19.462505900195331776
0.270000000000000129,-19.521253721267850523
0.271000000000000130,-19.575442565966149289
0.272000000000000131,-19.625187431135202587
0.273000000000000131,-19.670598948961242058
0.274000000000000132,-19.711783672044308702
0.275000000000000133,-19.748844338144483146
0.276000000000000134,-19.781880115624581151
0.277000000000000135,-19.810986830638547929
0.278000000000000136,-19.836257177126565665
0.279000000000000137,-19.857780910676559927
0.280000000000000138,-19.875645027300866019
0.281000000000000139,-19.889933928156192877
0.282000000000000139,-19.900729571207502744
0.283000000000000140,-19.908111610802958324
0.284000000000000141,-19.912157526088503090
0.285000000000000142,-19.912942739149311677
0.286000000000000143,-19.910540723720330902
0.287000000000000144,-19.905023105262120708
0.288000000000000145,-19.896459753151159333
0.289000000000000146,-19.884918865685644818
0.290000000000000147,-19.870467048560872314
0.291000000000000147,-19.853169387420940950
0.292000000000000148,-19.833089515048314411
0.293000000000000149,-19.810289673707750069
0.294000000000000150,-19.784830773118518010
0.295000000000000151,-19.756772444487875617
0.296000000000000152,-19.726173090999385096
0.297000000000000153,-19.693089935112887190
0.298000000000000154,-19.657579062997871944
0.299000000000000155,-19.619695466389377003
0.300000000000000155,-19.579493082125004833
0.301000000000000156,-19.537024829593143238
0.302000000000000157,-19.492342646296549447
0.303000000000000158,-19.445497521710993993
0.304000000000000159,-19.396539529596999785
0.305000000000000160,-19.345517858902010033
0.306000000000000161,-19.292480843372675992
0.307000000000000162,-19.237475989979934354
0.308000000000000163,-19.180550006245205452
0.309000000000000163,-19.121748826542390276
0.310000000000000164,-19.061117637439057404
0.311000000000000165,-18.998700902129478152
0.312000000000000166,-18.934542384003581361
0.313000000000000167,-18.868685169387543255
0.314000000000000168,-18.801171689485471461
0.315000000000000169,-18.732043741545474802
0.316000000000000170,-18.661342509268997958
0.317000000000000171,-18.589108582477969378
0.318000000000000171,-18.515381976051109802
0.319000000000000172,-18.440202148138588711
0.320000000000000173,-18.363608017661526617
0.321000000000000174,-18.285637981102073724
0.322000000000000175,-18.206329928588399270
0.323000000000000176,-18.125721259278613218
0.324000000000000177,-18.043848896047204988
0.325000000000000178,-17.960749299477797081
0.326000000000000179,-17.876458481166448422
0.327000000000000179,-17.791012016340019386
0.328000000000000180,-17.704445055795009267
0.329000000000000181,-17.616792337163321491
0.330000000000000182,-17.528088195511767111
0.331000000000000183,-17.438366573283953898
0.332000000000000184,-17.347661029593588466
0.333000000000000185,-17.256004748879796296
0.334000000000000186,-17.163430548935917130
0.335000000000000187,-17.069970888324505154
0.336000000000000187,-16.975657873192265157
0.337000000000000188,-16.880523263499604525
0.338000000000000189,-16.784598478680784694
0.339000000000000190,-16.687914602751241944
0.340000000000000191,-16.590502388879617257
0.341000000000000192,-16.492392263443104383
0.342000000000000193,-16.393614329584966782
0.343000000000000194,-16.294198370294143530
0.344000000000000195,-16.194173851027176880
0.345000000000000195,-16.093569921893298158
0.346000000000000196,-15.992415419423789302
0.347000000000000197,-15.890738867947217017
0.348000000000000198,-15.788568480592180876
0.349000000000000199,-15.685932159939488528
0.350000000000000200,-15.582857498345793701
0.351000000000000201,-15.479371777960542644
0.352000000000000202,-15.375501970458207879
0.353000000000000203,-15.271274736507558956
0.354000000000000203,-15.166716424999545865
0.355000000000000204,-15.061853072055043867
0.356000000000000205,-14.956710399833529124
0.357000000000000206,-14.851313815163280196
0.358000000000000207,-14.745688408013259973
0.359000000000000208,-14.639858949826475509
0.360000000000000209,-14.533849891734124782
0.361000000000000210,-14.427685362669071978
0.362000000000000210,-14.321389167396972653
0.363000000000000211,-14.214984784482462388
0.364000000000000212,-14.108495364207442435
0.365000000000000213,-14.001943726457616535
0.366000000000000214,-13.895352358593058284
0.367000000000000215,-13.788743413317590125
0.368000000000000216,-13.682138706561369546
0.369000000000000217,-13.575559715390156157
0.370000000000000218,-13.469027575954225284
0.371000000000000218,-13.362563081488966432
0.372000000000000219,-13.256186680378732490
0.373000000000000220,-13.149918474294665316
0.374000000000000221,-13.043778216416603399
0.375000000000000222,-12.937785309748335294
0.376000000000000223,-12.831958805535062851
0.377000000000000224,-12.726317401790982586
0.378000000000000225,-12.620879441944380162
0.379000000000000226,-12.515662913606947271
0.380000000000000226,-12.410685447473520426
0.381000000000000227,-12.305964316357471233
0.382000000000000228,-12.201516434366894259
0.383000000000000229,-12.097358356225734966
0.384000000000000230,-11.993506276743501004
0.385000000000000231,-11.889976030436965715
0.386000000000000232,-11.786783091306290316
0.387000000000000233,-11.683942572767852752
0.388000000000000234,-11.581469227745243344
0.389000000000000234,-11.479377448919983351
0.390000000000000235,-11.377681269142165377
0.391000000000000236,-11.276394362001905591
0.392000000000000237,-11.175530042561012678
0.393000000000000238,-11.075101268244752717
0.394000000000000239,-10.975120639892637087
0.395000000000000240,-10.875600402967149805
0.396000000000000241,-10.776552448918899074
0.397000000000000242,-10.677988316706251481
0.398000000000000242,-10.579919194467521493
0.399000000000000243,-10.482355921343222249
0.400000000000000244,-10.385308989445658057
0.401000000000000245,-10.288788545973284627
0.402000000000000246,-10.192804395466504630
0.403000000000000247,-10.097366002201670909
0.404000000000000248,-10.002482492720004004
0.405000000000000249,-9.908162658487656316
0.406000000000000250,-9.814414958683236989
0.407000000000000250,-9.721247523108933919
0.408000000000000251,-9.628668155221117075
0.409000000000000252,-9.536684335276525815
0.410000000000000253,-9.445303223589583297
0.411000000000000254,-9.354531663896825222
0.412000000000000255,-9.264376186823875869
0.413000000000000256,-9.174843013450846740
0.414000000000000257,-9.085938058971418485
0.415000000000000258,-8.997666936441452989
0.416000000000000258,-8.910034960612483346
0.417000000000000259,-8.823047151845633707
0.418000000000000260,-8.736708240101556555
0.419000000000000261,-8.651022669001783072
0.420000000000000262,-8.565994599957196698
0.421000000000000263,-8.481627916359080643
0.422000000000000264,-8.397926227828381940
0.423000000000000265,-8.314892874518811539
0.424000000000000266,-8.232530931469545621
0.425000000000000266,-8.150843213003177823
0.426000000000000267,-8.069832277164765699
0.427000000000000268,-7.989500430197812975
0.428000000000000269,-7.909849731053157029
0.429000000000000270,-7.830881995926712413
0.430000000000000271,-7.752598802822146418
0.431000000000000272,-7.675001496134688850
0.432000000000000273,-7.598091191252237309
0.433000000000000274,-7.521868779170183927
0.434000000000000274,-7.446334931116204814
0.435000000000000275,-7.371490103181697506
0.436000000000000276,-7.297334540956365245
0.437000000000000277,-7.223868284162543674
0.438000000000000278,-7.151091171286229731
0.439000000000000279,-7.079002844201572664
0.440000000000000280,-7.007602752785762945
0.441000000000000281,-6.936890159521500898
0.442000000000000282,-6.866864144084130039
0.443000000000000282,-6.797523607910690657
0.444000000000000283,-6.728867278748325020
0.445000000000000284,-6.660893715179447838
0.446000000000000285,-6.593601311121166653
0.447000000000000286,-6.526988300296840073
0.448000000000000287,-6.461052760677195472
0.449000000000000288,-6.395792618889194259
0.450000000000000289,-6.331205654590313259
0.451000000000000290,-6.267289504806452527
0.452000000000000290,-6.204041668231540463
0.453000000000000291,-6.141459509487050994
0.454000000000000292,-6.079540263339794137
0.455000000000000293,-6.018281038876315492
0.456000000000000294,-5.957678823632488019
0.457000000000000295,-5.897730487676776434
0.458000000000000296,-5.838432787645932542
0.459000000000000297,-5.779782370731807006
0.460000000000000298,-5.721775778618122033
0.461000000000000298,-5.664409451366145376
0.462000000000000299,-5.607679731248206068
0.463000000000000300,-5.551582866528153026
0.464000000000000301,-5.496115015187862163
0.465000000000000302,-5.441272248599072547
0.466000000000000303,-5.387050555139738961
0.467000000000000304,-5.333445843754299531
0.468000000000000305,-5.280453947457314001
0.469000000000000306,-5.228070626779869556
0.470000000000000306,-5.176291573158413151
0.471000000000000307,-5.125112412265460549
0.472000000000000308,-5.074528707282049744
0.473000000000000309,-5.024535962111467136
0.474000000000000310,-4.975129624534169182
0.475000000000000311,-4.926305089303609108
0.476000000000000312,-4.878057701183053041
0.477000000000000313,-4.830382757923031178
0.478000000000000314,-4.783275513179654936
0.479000000000000314,-4.736731179373752987
0.480000000000000315,-4.690744930490798659
0.481000000000000316,-4.645311904821933346
0.482000000000000317,-4.600427207646058392
0.483000000000000318,-4.556085913853316072
0.484000000000000319,-4.512283070510114236
0.485000000000000320,-4.469013699366044534
0.486000000000000321,-4.426272799302902961
0.487000000000000322,-4.384055348726237256
0.488000000000000322,-4.342356307899685852
0.489000000000000323,-4.301170621222634161
0.490000000000000324,-4.260493219451495506
0.491000000000000325,-4.220319021865138964
0.492000000000000326,-4.180642938374884210
0.493000000000000327,-4.141459871579620255
0.494000000000000328,-4.102764718766526819
0.495000000000000329,-4.064552373857961420
0.496000000000000330,-4.026817729305055771
0.497000000000000330,-3.989555677928635191
0.498000000000000331,-3.952761114707999290
0.499000000000000332,-3.916428938518259351
0.500000000000000333,-3.880554053816780424
0.501000000000000334,-3.845131372279424475
0.502000000000000335,-3.810155814387207407
0.503000000000000336,-3.775622310964096950
0.504000000000000337,-3.741525804666546939
0.505000000000000338,-3.707861251425523363
0.506000000000000338,-3.674623621841684784
0.507000000000000339,-3.641807902534417885
0.508000000000000340,-3.609409097445442249
0.509000000000000341,-3.577422229097727779
0.510000000000000342,-3.545842339810386878
0.511000000000000343,-3.514664492870319012
0.512000000000000344,-3.483883773661303529
0.513000000000000345,-3.453495290751284585
0.514000000000000346,-3.423494176938606692
0.515000000000000346,-3.393875590257864783
0.516000000000000347,-3.364634714946170391
0.517000000000000348,-3.335766762370587113
0.518000000000000349,-3.307266971917351306
0.519000000000000350,-3.279130611843760423
0.520000000000000351,-3.251352980093365375
0.521000000000000352,-3.223929405075241394
0.522000000000000353,-3.196855246408038198
0.523000000000000353,-3.170125895629540835
0.524000000000000354,-3.143736776872505523
0.525000000000000355,-3.117683347507409941
0.526000000000000356,-3.091961098752892489
0.527000000000000357,-3.066565556254601255
0.528000000000000358,-3.041492280633061984
0.529000000000000359,-3.016736868001392846
0.530000000000000360,-2.992294950453462832
0.531000000000000361,-2.968162196523219443
0.532000000000000361,-2.944334311615852684
0.533000000000000362,-2.920807038411503243
0.534000000000000363,-2.897576157242133910
0.535000000000000364,-2.874637486442243706
0.536000000000000365,-2.851986882674102830
0.537000000000000366,-2.829620241228128386
0.538000000000000367,-2.807533496299016829
0.539000000000000368,-2.785722621238345020
0.540000000000000369,-2.764183628784146141
0.541000000000000369,-2.742912571268193211
0.542000000000000370,-2.721905540801513812
0.543000000000000371,-2.701158669438751492
0.544000000000000372,-2.680668129322008486
0.545000000000000373,-2.660430132804685321
0.546000000000000374,-2.640440932555932818
0.547000000000000375,-2.620696821646260055
0.548000000000000376,-2.601194133614882276
0.549000000000000377,-2.581929242519323431
0.550000000000000377,-2.562898562967800498
0.551000000000000378,-2.544098550134982428
0.552000000000000379,-2.525525699761563381
0.553000000000000380,-2.507176548138228434
0.554000000000000381,-2.489047672074458095
0.555000000000000382,-2.471135688852723167
0.556000000000000383,-2.453437256168484737
0.557000000000000384,-2.435949072056547760
0.558000000000000385,-2.418667874804175000
0.559000000000000385,-2.401590442851465390
0.560000000000000386,-2.384713594679395587
0.561000000000000387,-2.368034188686023445
0.562000000000000388,-2.351549123051240642
0.563000000000000389,-2.335255335590509240
0.564000000000000390,-2.319149803598002713
0.565000000000000391,-2.303229543679556457
0.566000000000000392,-2.287491611575814598
0.567000000000000393,-2.271933101975981195
0.568000000000000393,-2.256551148322527567
0.569000000000000394,-2.241342922607250987
0.570000000000000395,-2.226305635159055551
0.571000000000000396,-2.211436534423769196
0.572000000000000397,-2.196732906736404978
0.573000000000000398,-2.182192076086141519
0.574000000000000399,-2.167811403874420062
0.575000000000000400,-2.153588288666420159
0.576000000000000401,-2.139520165936271034
0.577000000000000401,-2.125604507806307719
0.578000000000000402,-2.111838822780640612
0.579000000000000403,-2.098220655473359564
0.580000000000000404,-2.084747586331659353
0.581000000000000405,-2.071417231354157451
0.582000000000000406,-2.058227241804666541
0.583000000000000407,-2.045175303921710874
0.584000000000000408,-2.032259138624027184
0.585000000000000409,-2.019476501212300157
0.586000000000000409,-2.006825181067397601
0.587000000000000410,-1.994303001345311799
0.588000000000000411,-1.981907818669075727
0.589000000000000412,-1.969637522817843323
0.590000000000000413,-1.957490036413376044
0.591000000000000414,-1.945463314604142013
0.592000000000000415,-1.933555344747238891
0.593000000000000416,-1.921764146088323910
0.594000000000000417,-1.910087769439764216
0.595000000000000417,-1.898524296857215798
0.596000000000000418,-1.887071841314732712
0.597000000000000419,-1.875728546378708561
0.598000000000000420,-1.864492585880705322
0.599000000000000421,-1.853362163589416411
0.600000000000000422,-1.842335512881875470
0.601000000000000423,-1.831410896414112699
0.602000000000000424,-1.820586605791361778
0.603000000000000425,-1.809860961238010102
0.604000000000000425,-1.799232311267400020
0.605000000000000426,-1.788699032351627860
0.606000000000000427,-1.778259528591513261
0.607000000000000428,-1.767912231386753463
0.608000000000000429,-1.757655599106568545
0.609000000000000430,-1.747488116760736787
