# bi-graphene_CS-13835861-AC
# h[nm],U(h)[kJ/mol]
0.149999999999999994,153.882903027626156245
0.150999999999999995,149.522648515371145095
0.151999999999999996,146.905340838140574533
0.152999999999999997,144.672757533682897702
0.153999999999999998,142.323086519848715170
0.154999999999999999,139.761143789990626374
0.156000000000000000,137.053318850017262776
0.157000000000000001,134.303945365386084632
0.158000000000000002,131.600831767494440783
0.159000000000000002,128.997933883605639949
0.160000000000000003,126.516161314012379080
0.161000000000000004,124.151512928577247408
0.162000000000000005,121.884787457693022361
0.163000000000000006,119.690127265077535412
0.164000000000000007,117.541371374187107790
0.165000000000000008,115.416109156027943072
0.166000000000000009,113.297758809521340595
0.167000000000000010,111.176149712400118119
0.168000000000000010,109.047093138954551250
0.169000000000000011,106.911359713466325161
0.170000000000000012,104.773389810198935379
0.171000000000000013,102.639969887670574167
0.172000000000000014,100.519025758055718711
0.173000000000000015,98.418617822786117699
0.174000000000000016,96.346173906638455264
0.175000000000000017,94.307960881104889950
0.176000000000000018,92.308774248839682741
0.177000000000000018,90.351812528263906188
0.178000000000000019,88.438698078874637076
0.179000000000000020,86.569605754513077045
0.180000000000000021,84.743463694925736718
0.181000000000000022,82.958195304979355456
0.182000000000000023,81.210977028023492608
0.183000000000000024,79.498492200218805692
0.184000000000000025,77.817166622838527701
0.185000000000000026,76.163376241240797526
0.186000000000000026,74.533621340065948857
0.187000000000000027,72.924664917620290794
0.188000000000000028,71.333635415495365351
0.189000000000000029,69.758095818629314522
0.190000000000000030,68.196082393764655194
0.191000000000000031,66.646117096327316176
0.192000000000000032,65.107198042297966367
0.193000000000000033,63.578772501597882183
0.194000000000000034,62.060696702335725661
0.195000000000000034,60.553186409381524413
0.196000000000000035,59.056761813176024134
0.197000000000000036,57.572189781500398453
0.198000000000000037,56.100426024085550125
0.199000000000000038,54.642559224496871195
0.200000000000000039,53.199758725111635727
0.201000000000000040,51.773226922267681971
0.202000000000000041,50.364157147703366491
0.203000000000000042,48.973697483054323243
0.204000000000000042,47.602920677133155891
0.205000000000000043,46.252800109423475305
0.206000000000000044,44.924191564482086392
0.207000000000000045,43.617820446544769197
0.208000000000000046,42.334273966742600237
0.209000000000000047,41.073997771884549479
0.210000000000000048,39.837296448674123894
0.211000000000000049,38.624337325635003992
0.212000000000000050,37.435157002365187395
0.213000000000000050,36.269670057889953796
0.214000000000000051,35.127679423141877635
0.215000000000000052,34.008887943748433713
0.216000000000000053,32.912910705595130878
0.217000000000000054,31.839287744743820951
0.218000000000000055,30.787496813326026057
0.219000000000000056,29.756965922479544417
0.220000000000000057,28.747085431068075678
0.221000000000000058,27.757219493940816335
0.222000000000000058,26.786716725207661227
0.223000000000000059,25.834919970027016234
0.224000000000000060,24.901175112482576424
0.225000000000000061,23.984838877183342731
0.226000000000000062,23.085285608287872350
0.227000000000000063,22.201913031853695912
0.228000000000000064,21.334147025939877551
0.229000000000000065,20.481445437985048130
0.230000000000000066,19.643301000924999755
0.231000000000000066,18.819243408592402744
0.232000000000000067,18.008840617466344014
0.233000000000000068,17.211699446107981970
0.234000000000000069,16.427465545930253654
0.235000000000000070,15.655822817584681417
0.236000000000000071,14.896492346474056845
0.237000000000000072,14.149230928960230713
0.238000000000000073,13.413829257960529162
0.239000000000000073,12.690109833017274354
0.240000000000000074,11.977924655761709616
0.241000000000000075,11.277152767143437728
0.242000000000000076,10.587697677994070133
0.243000000000000077,9.909484739562186562
0.244000000000000078,9.242458495698821608
0.245000000000000079,8.586580053472385288
0.246000000000000080,7.941824504221936643
0.247000000000000081,7.308178422470085422
0.248000000000000081,6.685637465760206233
0.249000000000000082,6.074204094386262298
0.250000000000000111,5.473885426171078095
0.251000000000000112,4.884691237937052399
0.252000000000000113,4.306632122105583882
0.253000000000000114,3.739717803965906917
0.254000000000000115,3.183955622559021315
0.255000000000000115,2.639349175828316074
0.256000000000000116,2.105897128678567931
0.257000000000000117,1.583592180849271003
0.258000000000000118,1.072420190030991760
0.259000000000000119,0.572359444416404628
0.260000000000000120,0.083380077864937258
0.261000000000000121,-0.394556379945862734
0.262000000000000122,-0.861497326628818172
0.263000000000000123,-1.317499292149713286
0.264000000000000123,-1.762628034835156399
0.265000000000000124,-2.196958537476842999
0.266000000000000125,-2.620574912724725536
0.267000000000000126,-3.033570226898203437
0.268000000000000127,-3.436046251192488743
0.269000000000000128,-3.828113149027622342
0.270000000000000129,-4.209889107995546276
0.271000000000000130,-4.581499924516077016
0.272000000000000131,-4.943078548925667448
0.273000000000000131,-5.294764598304526615
0.274000000000000132,-5.636703843904844469
0.275000000000000133,-5.969047679584721600
0.276000000000000134,-6.291952577184494189
0.277000000000000135,-6.605579534310434653
0.278000000000000136,-6.910093519522135352
0.279000000000000137,-7.205662919456282900
0.280000000000000138,-7.492458991966074677
0.281000000000000139,-7.770655328916163285
0.282000000000000139,-8.040427331848182035
0.283000000000000140,-8.301951703326029275
0.284000000000000141,-8.555405956382946542
0.285000000000000142,-8.800967944126744769
0.286000000000000143,-9.038815411215004758
0.287000000000000144,-9.269125568589640096
0.288000000000000145,-9.492074692561285332
0.289000000000000146,-9.707837749055455490
0.290000000000000147,-9.916588043578668632
0.291000000000000147,-10.118496897228455467
0.292000000000000148,-10.313733348860335326
0.293000000000000149,-10.502463883332749717
0.294000000000000150,-10.684852185580444583
0.295000000000000151,-10.861058920114135873
0.296000000000000152,-11.031241535410437393
0.297000000000000153,-11.195554092539131474
0.298000000000000154,-11.354147117274164813
0.299000000000000155,-11.507167474849385513
0.300000000000000155,-11.654758266448713044
0.301000000000000156,-11.797058746462246503
0.302000000000000157,-11.934204259494247680
0.303000000000000158,-12.066326196073779542
0.304000000000000159,-12.193551965994933184
0.305000000000000160,-12.316004988197891024
0.306000000000000161,-12.433804696096034448
0.307000000000000162,-12.547066557255027064
0.308000000000000163,-12.655902106337642010
0.309000000000000163,-12.760418990242028414
0.310000000000000164,-12.860721024380442401
0.311000000000000165,-12.956908259068958600
0.312000000000000166,-13.049077055027021643
0.313000000000000167,-13.137320167016545369
0.314000000000000168,-13.221726834684551122
0.315000000000000169,-13.302382879709918839
0.316000000000000170,-13.379370808393176162
0.317000000000000171,-13.452769918867881316
0.318000000000000171,-13.522656412153278183
0.319000000000000172,-13.589103506309523794
0.320000000000000173,-13.652181552998587932
0.321000000000000174,-13.711958155796082792
0.322000000000000175,-13.768498289641325272
0.323000000000000176,-13.821864420854279132
0.324000000000000177,-13.872116627189109650
0.325000000000000178,-13.919312717433900417
0.326000000000000179,-13.963508350105943379
0.327000000000000179,-14.004757150829380663
0.328000000000000180,-14.043110828019525371
0.329000000000000181,-14.078619286533751165
0.330000000000000182,-14.111330738983038913
0.331000000000000183,-14.141291814431559359
0.332000000000000184,-14.168547664242908013
0.333000000000000185,-14.193142064861778096
0.334000000000000186,-14.215117517348545562
0.335000000000000187,-14.234515343510917518
0.336000000000000187,-14.251375778502890057
0.337000000000000188,-14.265738059784577985
0.338000000000000189,-14.277640512359784708
0.339000000000000190,-14.287120630228816509
0.340000000000000191,-14.294215154013642177
0.341000000000000192,-14.298960144731235999
0.342000000000000193,-14.301391053707259715
0.343000000000000194,-14.301542788638462511
0.344000000000000195,-14.299449775825570086
0.345000000000000195,-14.295146018612783223
0.346000000000000196,-14.288665152080492149
0.347000000000000197,-14.280040494049718092
0.348000000000000198,-14.269305092465794260
0.349000000000000199,-14.256491769237632283
0.350000000000000200,-14.241633160616739673
0.351000000000000201,-14.224761754206536324
0.352000000000000202,-14.205909922698657155
0.353000000000000203,-14.185109954437859159
0.354000000000000203,-14.162394080921369977
0.355000000000000204,-14.137794501341911513
0.356000000000000205,-14.111343404286634140
0.357000000000000206,-14.083072986706472562
0.358000000000000207,-14.053015470271457588
0.359000000000000208,-14.021203115229315728
0.360000000000000209,-13.987668231884686776
0.361000000000000210,-13.952443189816483127
0.362000000000000210,-13.915560424950644602
0.363000000000000211,-13.877052444604609960
0.364000000000000212,-13.836951830618904324
0.365000000000000213,-13.795291240689541823
0.366000000000000214,-13.752103408013493180
0.367000000000000215,-13.707421139357132134
0.368000000000000216,-13.661277311655766198
0.369000000000000217,-13.613704867249404984
0.370000000000000218,-13.564736807857855183
0.371000000000000218,-13.514406187394907732
0.372000000000000219,-13.462746103718927770
0.373000000000000220,-13.409789689413889491
0.374000000000000221,-13.355570101691899509
0.375000000000000222,-13.300120511504811560
0.376000000000000223,-13.243474091949886784
0.377000000000000224,-13.185664006050368258
0.378000000000000225,-13.126723393989234268
0.379000000000000226,-13.066685359870598759
0.380000000000000226,-13.005582958080292855
0.381000000000000227,-12.943449179313361697
0.382000000000000228,-12.880316936333468192
0.383000000000000229,-12.816219049525599871
0.384000000000000230,-12.751188232300130210
0.385000000000000231,-12.685257076403683385
0.386000000000000232,-12.618458037188386101
0.387000000000000233,-12.550823418888677807
0.388000000000000234,-12.482385359951342352
0.389000000000000234,-12.413175818461997579
0.390000000000000235,-12.343226557707890123
0.391000000000000236,-12.272569131914574214
0.392000000000000237,-12.201234872190928726
0.393000000000000238,-12.129254872714749780
0.394000000000000239,-12.056659977188212807
0.395000000000000240,-11.983480765590432071
0.396000000000000241,-11.909747541251780589
0.397000000000000242,-11.835490318272336552
0.398000000000000242,-11.760738809304854158
0.399000000000000243,-11.685522413720297763
0.400000000000000244,-11.609870206172109519
0.401000000000000245,-11.533810925573584782
0.402000000000000246,-11.457372964500594392
0.403000000000000247,-11.380584359030365249
0.404000000000000248,-11.303472779025414141
0.405000000000000249,-11.226065518869912552
0.406000000000000250,-11.148389488664486535
0.407000000000000250,-11.070471205883929855
0.408000000000000251,-10.992336787500997630
0.409000000000000252,-10.914011942578163428
0.410000000000000253,-10.835521965328059224
0.411000000000000254,-10.756891728642168360
0.412000000000000255,-10.678145678086327308
0.413000000000000256,-10.599307826360652385
0.414000000000000257,-10.520401748220351124
0.415000000000000258,-10.441450575853492566
0.416000000000000258,-10.362476994710503320
0.417000000000000259,-10.283503239779815175
0.418000000000000260,-10.204551092303223214
0.419000000000000261,-10.125641876923959117
0.420000000000000262,-10.046796459259876855
0.421000000000000263,-9.968035243893814012
0.422000000000000264,-9.889378172772364195
0.423000000000000265,-9.810844724004208928
0.424000000000000266,-9.732453911048828843
0.425000000000000266,-9.654224282285619907
0.426000000000000267,-9.576173920953712226
0.427000000000000268,-9.498320445452193894
0.428000000000000269,-9.420681009990264698
0.429000000000000270,-9.343272305576897807
0.430000000000000271,-9.266110561339008456
0.431000000000000272,-9.189211546157491028
0.432000000000000273,-9.112590570610032970
0.433000000000000274,-9.036262489209747173
0.434000000000000274,-8.960241702928538388
0.435000000000000275,-8.884542161994177789
0.436000000000000276,-8.809177368950065201
0.437000000000000277,-8.734160381966523445
0.438000000000000278,-8.659503818392838781
0.439000000000000279,-8.585219858539083759
0.440000000000000280,-8.511320249676890271
0.441000000000000281,-8.437816310248484442
0.442000000000000282,-8.364718934273518869
0.443000000000000282,-8.292038595943063584
0.444000000000000283,-8.219785354390644727
0.445000000000000284,-8.147968858630092015
0.446000000000000285,-8.076598352650160351
0.447000000000000286,-8.005682680656354577
0.448000000000000287,-7.935230292450023981
0.449000000000000288,-7.865249248935614723
0.450000000000000289,-7.795747227746623764
0.451000000000000290,-7.726731528981339636
0.452000000000000290,-7.658209081039592192
0.453000000000000291,-7.590186446551802746
0.454000000000000292,-7.522669828392077207
0.455000000000000293,-7.455665075767067940
0.456000000000000294,-7.389177690372768836
0.457000000000000295,-7.323212832611503131
0.458000000000000296,-7.257775327861523351
0.459000000000000297,-7.192869672792161495
0.460000000000000298,-7.128500041717276581
0.461000000000000298,-7.064670292980378186
0.462000000000000299,-7.001383975364733558
0.463000000000000300,-6.938644334522149570
0.464000000000000301,-6.876454319414277094
0.465000000000000302,-6.814816588760630012
0.466000000000000303,-6.753733517487435556
0.467000000000000304,-6.693207203172066855
0.468000000000000305,-6.633239472477667320
0.469000000000000306,-6.573831887572966437
0.470000000000000306,-6.514985752532544083
0.471000000000000307,-6.456702119712728560
0.472000000000000308,-6.398981796098961006
0.473000000000000309,-6.341825349620215491
0.474000000000000310,-6.285233115426569483
0.475000000000000311,-6.229205202126019358
0.476000000000000312,-6.173741497977077941
0.477000000000000313,-6.118841677033439730
0.478000000000000314,-6.064505205237693986
0.479000000000000314,-6.010731346460905122
0.480000000000000315,-5.957519168485073457
0.481000000000000316,-5.904867548925916587
0.482000000000000317,-5.852775181093186951
0.483000000000000318,-5.801240579786260732
0.484000000000000319,-5.750262087022643520
0.485000000000000320,-5.699837877697381927
0.486000000000000321,-5.649965965171304560
0.487000000000000322,-5.600644206786372870
0.488000000000000322,-5.551870309306369933
0.489000000000000323,-5.503641834281530087
0.490000000000000324,-5.455956203335540877
0.491000000000000325,-5.408810703373747586
0.492000000000000326,-5.362202491711291152
0.493000000000000327,-5.316128601120297503
0.494000000000000328,-5.270585944795000088
0.495000000000000329,-5.225571321234150801
0.496000000000000330,-5.181081419039859526
0.497000000000000330,-5.137112821632401349
0.498000000000000331,-5.093662011880303098
0.499000000000000332,-5.050725376645504028
0.500000000000000333,-5.008299211243099514
0.501000000000000334,-4.966379723815475877
0.502000000000000335,-4.924963039620733340
0.503000000000000336,-4.884045205235286069
0.504000000000000337,-4.843622192670626880
0.505000000000000338,-4.803689903404374739
0.506000000000000338,-4.764244172325732052
0.507000000000000339,-4.725280771595569362
0.508000000000000340,-4.686795414421388806
0.509000000000000341,-4.648783758747610406
0.510000000000000342,-4.611241410861429912
0.511000000000000343,-4.574163928914822819
0.512000000000000344,-4.537546826363124453
0.513000000000000345,-4.501385575320775878
0.514000000000000346,-4.465675609834870663
0.515000000000000346,-4.430412329077049627
0.516000000000000347,-4.395591100454493194
0.517000000000000348,-4.361207262640806270
0.518000000000000349,-4.327256128527369405
0.519000000000000350,-4.293732988096154557
0.520000000000000351,-4.260633111214692903
0.521000000000000352,-4.227951750354142391
0.522000000000000353,-4.195684143231273922
0.523000000000000353,-4.163825515375302544
0.524000000000000354,-4.132371082620574398
0.525000000000000355,-4.101316053525939864
0.526000000000000356,-4.070655631721860068
0.527000000000000357,-4.040385018186303689
0.528000000000000358,-4.010499413450263617
0.529000000000000359,-3.980994019734159117
0.530000000000000360,-3.951864043015921091
0.531000000000000361,-3.923104695032031408
0.532000000000000361,-3.894711195212392063
0.533000000000000362,-3.866678772550244503
0.534000000000000363,-3.839002667408113467
0.535000000000000364,-3.811678133260912205
0.536000000000000365,-3.784700438377285536
0.537000000000000366,-3.758064867440298773
0.538000000000000367,-3.731766723108508987
0.539000000000000368,-3.705801327518650989
0.540000000000000369,-3.680164023730847500
0.541000000000000369,-3.654850177117634047
0.542000000000000370,-3.629855176697755148
0.543000000000000371,-3.605174436415899297
0.544000000000000372,-3.580803396369434122
0.545000000000000373,-3.556737523983282578
0.546000000000000374,-3.532972315133922958
0.547000000000000375,-3.509503295223691310
0.548000000000000376,-3.486326020206428122
0.549000000000000377,-3.463436077565527516
0.550000000000000377,-3.440829087245419693
0.551000000000000378,-3.418500702537604408
0.552000000000000379,-3.396446610922241316
0.553000000000000380,-3.374662534866324393
0.554000000000000381,-3.353144232579460926
0.555000000000000382,-3.331887498728350661
0.556000000000000383,-3.310888165110807968
0.557000000000000384,-3.290142101290528753
0.558000000000000385,-3.269645215193384580
0.559000000000000385,-3.249393453666383103
0.560000000000000386,-3.229382803000139468
0.561000000000000387,-3.209609289415875644
0.562000000000000388,-3.190068979517856285
0.563000000000000389,-3.170757980712201718
0.564000000000000390,-3.151672441592973772
0.565000000000000391,-3.132808552296447946
0.566000000000000392,-3.114162544824455203
0.567000000000000393,-3.095730693337687800
0.568000000000000393,-3.077509314419780040
0.569000000000000394,-3.059494767313054808
0.570000000000000395,-3.041683454126791197
0.571000000000000396,-3.024071820018732204
0.572000000000000397,-3.006656353350802391
0.573000000000000398,-2.989433585819653683
0.574000000000000399,-2.972400092562974550
0.575000000000000400,-2.955552492242204288
0.576000000000000401,-2.938887447102481509
0.577000000000000401,-2.922401663010584461
0.578000000000000402,-2.906091889471490664
0.579000000000000403,-2.889954919624351692
0.580000000000000404,-2.873987590218594956
0.581000000000000405,-2.858186781570746682
0.582000000000000406,-2.842549417502751030
0.583000000000000407,-2.827072465262369327
0.584000000000000408,-2.811752935426344635
0.585000000000000409,-2.796587881786956942
0.586000000000000409,-2.781574401222563608
0.587000000000000410,-2.766709633552783210
0.588000000000000411,-2.751990761378844130
0.589000000000000412,-2.737415009909762720
0.590000000000000413,-2.722979646774824403
0.591000000000000414,-2.708681981823002349
0.592000000000000415,-2.694519366909824409
0.593000000000000416,-2.680489195672197233
0.594000000000000417,-2.666588903291727597
0.595000000000000417,-2.652815966247099144
0.596000000000000418,-2.639167902055834070
0.597000000000000419,-2.625642269006153828
0.598000000000000420,-2.612236665879187125
0.599000000000000421,-2.598948731662142464
0.600000000000000422,-2.585776145252798752
0.601000000000000423,-2.572716625155797132
0.602000000000000424,-2.559767929171138157
0.603000000000000425,-2.546927854075312414
0.604000000000000425,-2.534194235295445186
0.605000000000000426,-2.521564946576856148
0.606000000000000427,-2.509037899644476877
0.607000000000000428,-2.496611043858321999
0.608000000000000429,-2.484282365863657027
0.609000000000000430,-2.472049889235876652
