# bi-graphene_CS-61591-AC
# h[nm],U(h)[kJ/mol]
0.200000000000000011,103.200117440804660873
0.201000000000000012,100.035116560763910343
0.202000000000000013,97.774395184378093404
0.203000000000000014,95.987902254519596568
0.204000000000000015,94.413575088448538963
0.205000000000000016,92.901975658009490644
0.206000000000000016,91.376891609023331853
0.207000000000000017,89.807755567465477498
0.208000000000000018,88.190728789175835800
0.209000000000000019,86.536064764745134426
0.210000000000000020,84.859962672880868695
0.211000000000000021,83.179577446660729834
0.212000000000000022,81.510202686110687864
0.213000000000000023,79.863908451487645834
0.214000000000000024,78.249116833322133857
0.215000000000000024,76.670748860190457208
0.216000000000000025,75.130688346419404411
0.217000000000000026,73.628390757371192876
0.218000000000000027,72.161525145458696784
0.219000000000000028,70.726580177349774203
0.220000000000000029,69.319395482740105763
0.221000000000000030,67.935600282807641292
0.222000000000000031,66.570955012399380735
0.223000000000000032,65.221600346952030236
0.224000000000000032,63.884223130668090107
0.225000000000000033,62.556151263367134163
0.226000000000000034,61.235390448040675437
0.227000000000000035,59.920615423977288572
0.228000000000000036,58.611127342645247040
0.229000000000000037,57.306787592818594135
0.230000000000000038,56.007936862083127494
0.231000000000000039,54.715306678859725764
0.232000000000000040,53.429929206297813948
0.233000000000000040,52.153049713550750255
0.234000000000000041,50.886044961238198425
0.235000000000000042,49.630349718025257744
0.236000000000000043,48.387392773370052623
0.237000000000000044,47.158543118703541097
0.238000000000000045,45.945066421823590019
0.239000000000000046,44.748091500802800624
0.240000000000000047,43.568586196976170299
0.241000000000000048,42.407341834541696812
0.242000000000000048,41.264965320809935179
0.243000000000000049,40.141877871349116447
0.244000000000000050,39.038319324932487575
0.245000000000000051,37.954357032675503092
0.246000000000000052,36.889898354085673304
0.247000000000000053,35.844705861500251842
0.248000000000000054,34.818414436582422411
0.249000000000000055,33.810549532497745417
0.250000000000000056,32.820545968567522266
0.251000000000000056,31.847766717064835973
0.252000000000000057,30.891521231708935602
0.253000000000000058,29.951082952378538238
0.254000000000000059,29.025705699257731141
0.255000000000000060,28.114638741199748040
0.256000000000000061,27.217140387088637254
0.257000000000000062,26.332490005256193655
0.258000000000000063,25.459998424673301542
0.259000000000000064,24.599016712963116760
0.260000000000000064,23.748943360691974647
0.261000000000000065,22.909229929386640379
0.262000000000000066,22.079385242857476612
0.263000000000000067,21.258978218267039040
0.264000000000000068,20.447639445560390925
0.265000000000000069,19.645061631951413972
0.266000000000000070,18.850999032699739644
0.267000000000000071,18.065265990942798169
0.268000000000000071,17.287734708362400227
0.269000000000000072,16.518332365414998719
0.270000000000000073,15.757037705150787943
0.271000000000000074,15.003877188655872388
0.272000000000000075,14.258920823197744454
0.273000000000000076,13.522277756523859438
0.274000000000000077,12.794091722699878488
0.275000000000000078,12.074536416589932486
0.276000000000000079,11.363810865752503432
0.277000000000000079,10.662134860297211247
0.278000000000000080,9.969744493243542394
0.279000000000000081,9.286887856230885419
0.280000000000000082,8.613820928130012433
0.281000000000000083,7.950803687248179763
0.282000000000000084,7.298096471445011169
0.283000000000000085,6.655956604606023674
0.284000000000000086,6.024635302566115236
0.285000000000000087,5.404374866741365580
0.286000000000000087,4.795406169403550578
0.287000000000000088,4.197946430707135690
0.288000000000000089,3.612197284233971573
0.289000000000000090,3.038343124932506356
0.290000000000000091,2.476549730872851907
0.291000000000000092,1.926963148184463348
0.292000000000000093,1.389708826864747948
0.293000000000000094,0.864890993811162523
0.294000000000000095,0.352592248408194919
0.295000000000000095,-0.147126634737650086
0.296000000000000096,-0.634226711803318022
0.297000000000000097,-1.108690700639974880
0.298000000000000098,-1.570522652748986614
0.299000000000000099,-2.019747482424514295
0.300000000000000100,-2.456410368873910954
0.301000000000000101,-2.880576046729995898
0.302000000000000102,-3.292327999862510346
0.303000000000000103,-3.691767572803487774
0.304000000000000103,-4.079013013434451551
0.305000000000000104,-4.454198459863772719
0.306000000000000105,-4.817472883660271599
0.307000000000000106,-5.168999000819037626
0.308000000000000107,-5.508952161028469519
0.309000000000000108,-5.837519224992841593
0.310000000000000109,-6.154897438752820804
0.311000000000000110,-6.461293313141723615
0.312000000000000111,-6.756921515728926408
0.313000000000000111,-7.042003781833758858
0.314000000000000112,-7.316767850452736255
0.315000000000000113,-7.581446430230760924
0.316000000000000114,-7.836276199927195485
0.317000000000000115,-8.081496847182130239
0.318000000000000116,-8.317350148778967167
0.319000000000000117,-8.544079095026905435
0.320000000000000118,-8.761927060352345364
0.321000000000000119,-8.971137021691651725
0.322000000000000119,-9.171950825818418807
0.323000000000000120,-9.364608506316418612
0.324000000000000121,-9.549347650524454778
0.325000000000000122,-9.726402816428889153
0.326000000000000123,-9.896004999164150107
0.327000000000000124,-10.058381146498637904
0.328000000000000125,-10.213753722432686644
0.329000000000000126,-10.362340317813528046
0.330000000000000127,-10.504353306679941937
0.331000000000000127,-10.639999546883135650
0.332000000000000128,-10.769480123389772785
0.333000000000000129,-10.892990132555846472
0.334000000000000130,-11.010718505564522474
0.335000000000000131,-11.122847869146557542
0.336000000000000132,-11.229554441644591378
0.337000000000000133,-11.331007962444067161
0.338000000000000134,-11.427371652769590327
0.339000000000000135,-11.518802205835598329
0.340000000000000135,-11.605449804344367237
0.341000000000000136,-11.687458163338309447
0.342000000000000137,-11.764964596439019928
0.343000000000000138,-11.838100103539401786
0.344000000000000139,-11.906989478057260712
0.345000000000000140,-11.971751431907616592
0.346000000000000141,-12.032498736405729645
0.347000000000000142,-12.089338377372614630
0.348000000000000143,-12.142371722778849019
0.349000000000000143,-12.191694701329589989
0.350000000000000144,-12.237397990463874109
0.351000000000000145,-12.279567212312917590
0.352000000000000146,-12.318283136235725905
0.353000000000000147,-12.353621886624262416
0.354000000000000148,-12.385655154744911854
0.355000000000000149,-12.414450413457538858
0.356000000000000150,-12.440071133726990027
0.357000000000000151,-12.462577001915148500
0.358000000000000151,-12.482024136913413059
0.359000000000000152,-12.498465306245709172
0.360000000000000153,-12.511950140341193460
0.361000000000000154,-12.522525344242181333
0.362000000000000155,-12.530234906077968304
0.363000000000000156,-12.535120301697610046
0.364000000000000157,-12.537220694914832819
0.365000000000000158,-12.536573132876565495
0.366000000000000159,-12.533212736121200237
0.367000000000000159,-12.527172882946263854
0.368000000000000160,-12.518485387754921589
0.369000000000000161,-12.507180673098758916
0.370000000000000162,-12.493287935179107961
0.371000000000000163,-12.476835302612180101
0.372000000000000164,-12.457849988302779565
0.373000000000000165,-12.436358434309390475
0.374000000000000166,-12.412386449618271200
0.375000000000000167,-12.385959340776818038
0.376000000000000167,-12.357102035367100612
0.377000000000000168,-12.325839198328290891
0.378000000000000169,-12.292195341162642563
0.379000000000000170,-12.256194924083683162
0.380000000000000171,-12.217862451186563888
0.381000000000000172,-12.177222558740696812
0.382000000000000173,-12.134300096722311579
0.383000000000000174,-12.089120203720955971
0.384000000000000175,-12.041708375367980111
0.385000000000000175,-11.992090526448020427
0.386000000000000176,-11.940293046865525284
0.387000000000000177,-11.886342851647976104
0.388000000000000178,-11.830267425176113960
0.389000000000000179,-11.772094859837903158
0.390000000000000180,-11.711853889309360000
0.391000000000000181,-11.649573916669508478
0.392000000000000182,-11.585285037560648647
0.393000000000000183,-11.519018058607290556
0.394000000000000183,-11.450804511309156553
0.395000000000000184,-11.380676661624091750
0.396000000000000185,-11.308667515456763297
0.397000000000000186,-11.234810820268410936
0.398000000000000187,-11.159141063021266405
0.399000000000000188,-11.081693464669369220
0.400000000000000189,-11.002503971404800964
0.401000000000000190,-10.921609242865258693
0.402000000000000191,-10.839046637505520110
0.403000000000000191,-10.754854195330977973
0.404000000000000192,-10.669070618187564747
0.405000000000000193,-10.581735247797341870
0.406000000000000194,-10.492888041724361514
0.407000000000000195,-10.402569547450280396
0.408000000000000196,-10.310820874733440888
0.409000000000000197,-10.217683666420155575
0.410000000000000198,-10.123200067870978813
0.411000000000000199,-10.027412695158769651
0.412000000000000199,-9.930364602189964529
0.413000000000000200,-9.832099246894149047
0.414000000000000201,-9.732660456621326617
0.415000000000000202,-9.632092392880091225
0.416000000000000203,-9.530439515544250284
0.417000000000000204,-9.427746546649158788
0.418000000000000205,-9.324058433893506859
0.419000000000000206,-9.219420313956241841
0.420000000000000207,-9.113877475732511613
0.421000000000000207,-9.007475323587195604
0.422000000000000208,-8.900259340718436718
0.423000000000000209,-8.792275052718776962
0.424000000000000210,-8.683567991415616305
0.425000000000000211,-8.574183659067688978
0.426000000000000212,-8.464167492989284725
0.427000000000000213,-8.353564830668599228
0.428000000000000214,-8.242420875442231676
0.429000000000000214,-8.130780662782726154
0.430000000000000215,-8.018689027251733492
0.431000000000000216,-7.906190570167089149
0.432000000000000217,-7.793329628027491296
0.433000000000000218,-7.680150241734702732
0.434000000000000219,-7.566696126649146592
0.435000000000000220,-7.453010643510969757
0.436000000000000221,-7.339136770254971687
0.437000000000000222,-7.225117074744386692
0.438000000000000222,-7.110993688445191196
0.439000000000000223,-6.996808281059307077
0.440000000000000224,-6.882602036132195344
0.441000000000000225,-6.768415627647195620
0.442000000000000226,-6.654289197616646945
0.443000000000000227,-6.540262334676680389
0.444000000000000228,-6.426374053690568466
0.445000000000000229,-6.312662776362921946
0.446000000000000230,-6.199166312864828221
0.447000000000000230,-6.085921844468190400
0.448000000000000231,-5.972965907185249002
0.449000000000000232,-5.860334376407590362
0.450000000000000233,-5.748062452537410216
0.451000000000000234,-5.636184647601806041
0.452000000000000235,-5.524734772839849484
0.453000000000000236,-5.413745927250348089
0.454000000000000237,-5.303250487087415976
0.455000000000000238,-5.193280096289319303
0.456000000000000238,-5.083865657825408668
0.457000000000000239,-4.975037325944602351
0.458000000000000240,-4.866824499308387786
0.459000000000000241,-4.759255814989945321
0.460000000000000242,-4.652359143320976997
0.461000000000000243,-4.546161583566425080
0.462000000000000244,-4.440689460407418743
0.463000000000000245,-4.335968321211505661
0.464000000000000246,-4.232022934069588516
0.465000000000000246,-4.128877286578013006
0.466000000000000247,-4.026554585344175763
0.467000000000000248,-3.925077256193758135
0.468000000000000249,-3.824466945057578560
0.469000000000000250,-3.724744519515634344
0.470000000000000251,-3.625930070976186137
0.471000000000000252,-3.528042917467271167
0.472000000000000253,-3.431101607018504751
0.473000000000000254,-3.335123921610556152
0.474000000000000254,-3.240126881670186698
0.475000000000000255,-3.146126751088564877
0.476000000000000256,-3.053139042740849796
0.477000000000000257,-2.961178524485250652
0.478000000000000258,-2.870259225619740562
0.479000000000000259,-2.780394443775178637
0.480000000000000260,-2.691596752223573308
0.481000000000000261,-2.603878007580534781
0.482000000000000262,-2.517249357881493843
0.483000000000000262,-2.431721251011270457
0.484000000000000263,-2.347303443467092077
0.485000000000000264,-2.264005009435514193
0.486000000000000265,-2.181834350164000291
0.487000000000000266,-2.100799203608321619
0.488000000000000267,-2.020906654337324859
0.489000000000000268,-1.942163143677100079
0.490000000000000269,-1.864574480076761631
0.491000000000000270,-1.788145849678846488
0.492000000000000270,-1.712881827077284758
0.493000000000000271,-1.638786386246819493
0.494000000000000272,-1.565862911627816212
0.495000000000000273,-1.494114209350910105
0.496000000000000274,-1.423542518586671690
0.497000000000000275,-1.354149523005394151
0.498000000000000276,-1.285936362333039984
0.499000000000000277,-1.218903643989522667
0.500000000000000222,-1.153051454796002462
0.501000000000000334,-1.088379372738425221
0.502000000000000224,-1.024886478774858611
0.503000000000000336,-0.962571368674502659
0.504000000000000226,-0.901432164877101649
0.505000000000000338,-0.841466528361215160
0.506000000000000227,-0.782671670511134066
0.507000000000000339,-0.725044364971588307
0.508000000000000229,-0.668580959480873149
0.509000000000000341,-0.613277387672435448
0.510000000000000231,-0.559129180836330786
0.511000000000000343,-0.506131479631312109
0.512000000000000233,-0.454279045739735376
0.513000000000000345,-0.403566273456929303
0.514000000000000234,-0.353987201207905444
0.515000000000000346,-0.305535522983697294
0.516000000000000236,-0.258204599691000958
0.517000000000000348,-0.211987470408239786
0.518000000000000238,-0.166876863542157028
0.519000000000000350,-0.122865207878925381
0.520000000000000240,-0.079944643524472100
0.521000000000000352,-0.038107032728707128
0.522000000000000242,0.002656029411111616
0.523000000000000353,0.042353204372513706
0.524000000000000243,0.080993399759616141
0.525000000000000355,0.118585758988680096
0.526000000000000245,0.155139651110962312
0.527000000000000357,0.190664660776504291
0.528000000000000247,0.225170578341756938
0.529000000000000359,0.258667390124232566
0.530000000000000249,0.291165268806583888
0.531000000000000361,0.322674563992747576
0.532000000000000250,0.353205792918157124
0.533000000000000362,0.382769631316179360
0.534000000000000252,0.411376904442357472
0.535000000000000364,0.439038578258122425
0.536000000000000254,0.465765750775216258
0.537000000000000366,0.491569643562115410
0.538000000000000256,0.516461593413208409
0.539000000000000368,0.540453044181750331
0.540000000000000258,0.563555538776949083
0.541000000000000369,0.585780711325882608
0.542000000000000259,0.607140279500277935
0.543000000000000371,0.627646037008494750
0.544000000000000261,0.647309846252540622
0.545000000000000373,0.666143631150058591
0.546000000000000263,0.684159370120921428
0.547000000000000375,0.701369089238102594
0.548000000000000265,0.717784855542143774
0.549000000000000377,0.733418770518722285
0.550000000000000266,0.748282963738413742
0.551000000000000378,0.762389586657841956
0.552000000000000268,0.775750806581228525
0.553000000000000380,0.788378800781265321
0.554000000000000270,0.800285750778122029
0.555000000000000382,0.811483836775427014
0.556000000000000272,0.821985232251753350
0.557000000000000384,0.831802098706386994
0.558000000000000274,0.840946580557705659
0.559000000000000385,0.849430800192822688
0.560000000000000275,0.857266853166720466
0.561000000000000387,0.864466803549327034
0.562000000000000277,0.871042679418796317
0.563000000000000389,0.877006468499174630
0.564000000000000279,0.882370113940692535
0.565000000000000391,0.887145510240802460
0.566000000000000281,0.891344499304089211
0.567000000000000393,0.894978866639079995
0.568000000000000282,0.898060337690001931
0.569000000000000394,0.900600574301519630
0.570000000000000284,0.902611171314403271
0.571000000000000396,0.904103653290059817
0.572000000000000286,0.905089471361881892
0.573000000000000398,0.905580000211354985
0.574000000000000288,0.905586535166772344
0.575000000000000400,0.905120289422407298
0.576000000000000290,0.904192391376155813
0.577000000000000401,0.902813882083324470
0.578000000000000291,0.900995712824561146
0.579000000000000403,0.898748742785723587
0.580000000000000293,0.896083736847535839
0.581000000000000405,0.893011363482860032
0.582000000000000295,0.889542192759500083
0.583000000000000407,0.885686694446291112
0.584000000000000297,0.881455236220441529
0.585000000000000409,0.876858081973851844
0.586000000000000298,0.871905390216454967
0.587000000000000410,0.866607212574252883
0.588000000000000300,0.860973492380134653
0.589000000000000412,0.855014063355223342
0.590000000000000302,0.848738648378792648
0.591000000000000414,0.842156858344513815
0.592000000000000304,0.835278191101198830
0.593000000000000416,0.828112030475792849
0.594000000000000306,0.820667645376704336
0.595000000000000417,0.812954188975425374
0.596000000000000307,0.804980697964520098
0.597000000000000419,0.796756091889891049
0.598000000000000309,0.788289172555475703
0.599000000000000421,0.779588623498464028
0.600000000000000311,0.770663009533025134
0.601000000000000423,0.761520776360755103
0.602000000000000313,0.752170250245965732
0.603000000000000425,0.742619637753968109
0.604000000000000314,0.732877025550530470
0.605000000000000426,0.722950380260749093
0.606000000000000316,0.712847548385563412
0.607000000000000428,0.702576256274162536
0.608000000000000318,0.692144110150594183
0.609000000000000430,0.681558596192854305
0.610000000000000320,0.670827080662867670
0.611000000000000432,0.659956810085611245
0.612000000000000322,0.648954911475927432
0.613000000000000433,0.637828392611276440
0.614000000000000323,0.626584142349020268
0.615000000000000435,0.615228930986585931
0.616000000000000325,0.603769410663138273
0.617000000000000437,0.592212115801148187
0.618000000000000327,0.580563463586518225
0.619000000000000439,0.568829754485785655
0.620000000000000329,0.557017172799039728
0.621000000000000441,0.545131787247140176
0.622000000000000330,0.533179551591972611
0.623000000000000442,0.521166305288314424
0.624000000000000332,0.509097774166179740
0.625000000000000444,0.496979571142177445
0.626000000000000334,0.484817196958867158
0.627000000000000446,0.472616040950705085
0.628000000000000336,0.460381381835547665
0.629000000000000448,0.448118388530441725
0.630000000000000338,0.435832120990675975
0.631000000000000449,0.423527531070841623
0.632000000000000339,0.411209463407003983
0.633000000000000451,0.398882656318734319
0.634000000000000341,0.386551742730150583
0.635000000000000453,0.374221251108756259
0.636000000000000343,0.361895606421347549
0.637000000000000455,0.349579131105727636
0.638000000000000345,0.337276046057582435
0.639000000000000457,0.324990471631365963
0.640000000000000346,0.312726428654477251
0.641000000000000458,0.300487839453717431
0.642000000000000348,0.288278528893327946
0.643000000000000460,0.276102225423618952
0.644000000000000350,0.263962562139563650
0.645000000000000462,0.251863077848389072
0.646000000000000352,0.239807218145604573
0.647000000000000464,0.227798336498520271
0.648000000000000353,0.215839695336737136
0.649000000000000465,0.203934467148720211
0.650000000000000355,0.192085735583959194
0.651000000000000467,0.180296496559899044
0.652000000000000357,0.168569659373111941
0.653000000000000469,0.156908047814020457
0.654000000000000359,0.145314401284616979
0.655000000000000471,0.133791375918568795
0.656000000000000361,0.122341545703155502
0.657000000000000473,0.110967403602467929
0.658000000000000362,0.099671362681381284
0.659000000000000474,0.088455757229746634
0.660000000000000364,0.077322843886335590
0.661000000000000476,0.066274802762010629
0.662000000000000366,0.055313738561746248
0.663000000000000478,0.044441681704925302
0.664000000000000368,0.033660589443625273
