# bi-graphene_THEOBROMINE-AC
# h[nm],U(h)[kJ/mol]
0.200000000000000011,93.405935200602158375
0.201000000000000012,92.251806939138589314
0.202000000000000013,90.243323893378232015
0.203000000000000014,87.913764063574916463
0.204000000000000015,85.548529253451391696
0.205000000000000016,83.279916438159560244
0.206000000000000016,81.150627686935365546
0.207000000000000017,79.155224212281112273
0.208000000000000018,77.266246951098622731
0.209000000000000019,75.449868857777374842
0.210000000000000020,73.674563042385969425
0.211000000000000021,71.915250687121641704
0.212000000000000022,70.154644739598523984
0.213000000000000023,68.382961876015045277
0.214000000000000024,66.596784370020102983
0.215000000000000024,64.797575912251204500
0.216000000000000025,62.990161270444389174
0.217000000000000026,61.181346468093600777
0.218000000000000027,59.378767018747453221
0.219000000000000028,57.589994101738327004
0.220000000000000029,55.821893085173982740
0.221000000000000030,54.080208646411207951
0.222000000000000031,52.369340924669451454
0.223000000000000032,50.692274076925976090
0.224000000000000032,49.050619748951433508
0.225000000000000033,47.444741539775762362
0.226000000000000034,45.873931315610100512
0.227000000000000035,44.336613413382636395
0.228000000000000036,42.830557853241359112
0.229000000000000037,41.353088349642789012
0.230000000000000038,39.901275011539922843
0.231000000000000039,38.472105090155672258
0.232000000000000040,37.062627967401716944
0.233000000000000040,35.670072817602381576
0.234000000000000041,34.291939080153632347
0.235000000000000042,32.926061121671438059
0.236000000000000043,31.570649316071314416
0.237000000000000044,30.224310300329580770
0.238000000000000045,28.886049437296566822
0.239000000000000046,27.555258592623186331
0.240000000000000047,26.231692260592041066
0.241000000000000048,24.915434895628827405
0.242000000000000048,23.606862057345669115
0.243000000000000049,22.306597685255905361
0.244000000000000050,21.015469506965096969
0.245000000000000051,19.734464267660371206
0.246000000000000052,18.464684161712440869
0.247000000000000053,17.207305558109609933
0.248000000000000054,15.963540846243365223
0.249000000000000055,14.734603990838346377
0.250000000000000056,13.521680176278291441
0.251000000000000056,12.325899741497883255
0.252000000000000057,11.148316456204165448
0.253000000000000058,9.989890065916995354
0.254000000000000059,8.851472935118822605
0.255000000000000060,7.733800542321290550
0.256000000000000061,6.637485525565725020
0.257000000000000062,5.563014939224393274
0.258000000000000063,4.510750360455758390
0.259000000000000064,3.480930473904937372
0.260000000000000064,2.473675764005506483
0.261000000000000065,1.488994953496690865
0.262000000000000066,0.526792842682262119
0.263000000000000067,-0.413120775093015979
0.264000000000000068,-1.331021421712434760
0.265000000000000069,-2.227259739311235442
0.266000000000000070,-3.102251036750621971
0.267000000000000071,-3.956464793430159776
0.268000000000000071,-4.790414307726361898
0.269000000000000072,-5.604646649519718693
0.270000000000000073,-6.399733049658328454
0.271000000000000074,-7.176259834133387194
0.272000000000000075,-7.934819987446649847
0.273000000000000076,-8.676005408284130027
0.274000000000000077,-9.400399901262671776
0.275000000000000078,-10.108572931215464408
0.276000000000000079,-10.801074151212647578
0.277000000000000079,-11.478428702224990232
0.278000000000000080,-12.141133270945644540
0.279000000000000081,-12.789652882692799096
0.280000000000000082,-13.424418398400305819
0.281000000000000083,-14.045824678342365033
0.282000000000000084,-14.654229370294752144
0.283000000000000085,-15.249952276176236055
0.284000000000000086,-15.833275248705183103
0.285000000000000087,-16.404442568112639123
0.286000000000000087,-16.963661748353246139
0.287000000000000088,-17.511104722423219471
0.288000000000000089,-18.046909357220091152
0.289000000000000090,-18.571181249755124298
0.290000000000000091,-19.083995758358103245
0.291000000000000092,-19.585400224708770622
0.292000000000000093,-20.075416345006335206
0.293000000000000094,-20.554042651277420362
0.294000000000000095,-21.021257066658602497
0.295000000000000095,-21.477019501416840797
0.296000000000000096,-21.921274459437608328
0.297000000000000097,-22.353953627876883559
0.298000000000000098,-22.774978425600696852
0.299000000000000099,-23.184262488895686971
0.300000000000000100,-23.581714075699466093
0.301000000000000101,-23.967238372252531065
0.302000000000000102,-24.340739688594290158
0.303000000000000103,-24.702123531707975701
0.304000000000000103,-25.051298547346878109
0.305000000000000104,-25.388178323649242429
0.306000000000000105,-25.712683051563068659
0.307000000000000106,-26.024741038856255670
0.308000000000000107,-26.324290076083521228
0.309000000000000108,-26.611278654321154136
0.310000000000000109,-26.885667035769557742
0.311000000000000110,-27.147428179463965137
0.312000000000000111,-27.396548525337415469
0.313000000000000111,-27.633028640747077986
0.314000000000000112,-27.856883734318028445
0.315000000000000113,-28.068144042583167419
0.316000000000000114,-28.266855095412005028
0.317000000000000115,-28.453077866632384030
0.318000000000000116,-28.626888816567401363
0.319000000000000117,-28.788379833440636446
0.320000000000000118,-28.937658080755113588
0.321000000000000119,-29.074845757833589488
0.322000000000000119,-29.200079780724685463
0.323000000000000120,-29.313511390640236698
0.324000000000000121,-29.415305697000171392
0.325000000000000122,-29.505641162026883251
0.326000000000000123,-29.584709033659720490
0.327000000000000124,-29.652712733355677699
0.328000000000000125,-29.709867205110519706
0.329000000000000126,-29.756398231779570551
0.330000000000000127,-29.792541724504651768
0.331000000000000127,-29.818542990765831036
0.332000000000000128,-29.834655986278640682
0.333000000000000129,-29.841142555651778423
0.334000000000000130,-29.838271666409735161
0.335000000000000131,-29.826318640674308824
0.336000000000000132,-29.805564388486153860
0.337000000000000133,-29.776294646440430114
0.338000000000000134,-29.738799225006591342
0.339000000000000135,-29.693371267604163677
0.340000000000000135,-29.640306524217471917
0.341000000000000136,-29.579902642050274864
0.342000000000000137,-29.512458475450113582
0.343000000000000138,-29.438273417071297189
0.344000000000000139,-29.357646751995531531
0.345000000000000140,-29.270877036291381046
0.346000000000000141,-29.178261501267126476
0.347000000000000142,-29.080095484458155397
0.348000000000000143,-28.976671888188313631
0.349000000000000143,-28.868280666355378372
0.350000000000000144,-28.755208339914123172
0.351000000000000145,-28.637737541365719807
0.352000000000000146,-28.516146588409622353
0.353000000000000147,-28.390709086773028957
0.354000000000000148,-28.261693562103744171
0.355000000000000149,-28.129363120693739120
0.356000000000000150,-27.993975138693048876
0.357000000000000151,-27.855780979376522311
0.358000000000000151,-27.715025737938269401
0.359000000000000152,-27.571948013210715089
0.360000000000000153,-27.426779705636668893
0.361000000000000154,-27.279745840761723485
0.362000000000000155,-27.131064417462663840
0.363000000000000156,-26.980946280082605426
0.364000000000000157,-26.829595013606109433
0.365000000000000158,-26.677206860977129566
0.366000000000000159,-26.523970661637786606
0.367000000000000159,-26.370067810347659787
0.368000000000000160,-26.215672235330139017
0.369000000000000161,-26.060950394784121897
0.370000000000000162,-25.906061290795765473
0.371000000000000163,-25.751156499686238988
0.372000000000000164,-25.596380217835054793
0.373000000000000165,-25.441869322027770295
0.374000000000000166,-25.287753443387156693
0.375000000000000167,-25.134155053961727333
0.376000000000000167,-24.981189565061892921
0.377000000000000168,-24.828965436452968163
0.378000000000000169,-24.677584295535190506
0.379000000000000170,-24.527141065663819575
0.380000000000000171,-24.377724102785958138
0.381000000000000172,-24.229415339596972245
0.382000000000000173,-24.082290436444818482
0.383000000000000174,-23.936418938239178544
0.384000000000000175,-23.791864436648946679
0.385000000000000175,-23.648684736901287806
0.386000000000000176,-23.506932028523642941
0.387000000000000177,-23.366653059399268955
0.388000000000000178,-23.227889312536394328
0.389000000000000179,-23.090677184979586656
0.390000000000000180,-22.955048168321447122
0.391000000000000181,-22.821029030301094309
0.392000000000000182,-22.688641997004484807
0.393000000000000183,-22.557904935209364794
0.394000000000000183,-22.428831534445414775
0.395000000000000184,-22.301431488366752376
0.396000000000000185,-22.175710675060521737
0.397000000000000186,-22.051671335940831398
0.398000000000000187,-21.929312252902413150
0.399000000000000188,-21.808628923432472391
0.400000000000000189,-21.689613733402769213
0.401000000000000190,-21.572256127286820515
0.402000000000000191,-21.456542775568905768
0.403000000000000191,-21.342457739132580485
0.404000000000000192,-21.229982630437149282
0.405000000000000193,-21.119096771309408211
0.406000000000000194,-21.009777347197161390
0.407000000000000195,-20.901999557748702330
0.408000000000000196,-20.795736763599290242
0.409000000000000197,-20.690960629262022508
0.410000000000000198,-20.587641262036100898
0.411000000000000199,-20.485747346859618290
0.412000000000000199,-20.385246277048327812
0.413000000000000200,-20.286104280874688754
0.414000000000000201,-20.188286543953871899
0.415000000000000202,-20.091757327414949685
0.416000000000000203,-19.996480081846538468
0.417000000000000204,-19.902417557016253369
0.418000000000000205,-19.809531907372868176
0.419000000000000206,-19.717784793349103722
0.420000000000000207,-19.627137478490912059
0.421000000000000207,-19.537550922447348256
0.422000000000000208,-19.448985869861367348
0.423000000000000209,-19.361402935209319764
0.424000000000000210,-19.274762683642187255
0.425000000000000211,-19.189025707887235939
0.426000000000000212,-19.104152701274102810
0.427000000000000213,-19.020104526953073076
0.428000000000000214,-18.936842283378226170
0.429000000000000214,-18.854327366130831933
0.430000000000000215,-18.772521526162311289
0.431000000000000216,-18.691386924538484493
0.432000000000000217,-18.610886183769277835
0.433000000000000218,-18.530982435810333442
0.434000000000000219,-18.451639366824473143
0.435000000000000220,-18.372821258792679799
0.436000000000000221,-18.294493028065151208
0.437000000000000222,-18.216620260943962251
0.438000000000000222,-18.139169246389549528
0.439000000000000223,-18.062107005943534688
0.440000000000000224,-17.985401320960409777
0.441000000000000225,-17.909020757240803334
0.442000000000000226,-17.832934687158665810
0.443000000000000227,-17.757113309374034316
0.444000000000000228,-17.681527666222940809
0.445000000000000229,-17.606149658874677755
0.446000000000000230,-17.530952060346013610
0.447000000000000230,-17.455908526461065833
0.448000000000000231,-17.380993604843943956
0.449000000000000232,-17.306182742030305377
0.450000000000000233,-17.231452288782559634
0.451000000000000234,-17.156779503691868882
0.452000000000000235,-17.082142555148699614
0.453000000000000236,-17.007520521761811949
0.454000000000000237,-16.932893391304396857
0.455000000000000238,-16.858242058263606111
0.456000000000000238,-16.783548320068682358
0.457000000000000239,-16.708794872070559023
0.458000000000000240,-16.633965301344240117
0.459000000000000241,-16.559044079383141934
0.460000000000000242,-16.484016553752997680
0.461000000000000243,-16.408868938770702073
0.462000000000000244,-16.333588305271838692
0.463000000000000245,-16.258162569528252561
0.464000000000000246,-16.182580481375818948
0.465000000000000246,-16.106831611609806032
0.466000000000000247,-16.030906338703992731
0.467000000000000248,-15.954795834907320895
0.468000000000000249,-15.878492051770360050
0.469000000000000250,-15.801987705151550045
0.470000000000000251,-15.725276259751762353
0.471000000000000252,-15.648351913223454090
0.472000000000000253,-15.571209579899436548
0.473000000000000254,-15.493844874183764659
0.474000000000000254,-15.416254093646239554
0.475000000000000255,-15.338434201859627137
0.476000000000000256,-15.260382811017610294
0.477000000000000257,-15.182098164369296711
0.478000000000000258,-15.103579118504828926
0.479000000000000259,-15.024825125524888136
0.480000000000000260,-14.945836215125401836
0.481000000000000261,-14.866612976627134657
0.482000000000000262,-14.787156540978495300
0.483000000000000262,-14.707468562758402086
0.484000000000000263,-14.627551202204500669
0.485000000000000264,-14.547407107290903028
0.486000000000000265,-14.467039395878149577
0.487000000000000266,-14.386451637956668037
0.488000000000000267,-14.305647838004068362
0.489000000000000268,-14.224632417475158164
0.490000000000000269,-14.143410197442346288
0.491000000000000270,-14.061986381403277946
0.492000000000000270,-13.980366538270988741
0.493000000000000271,-13.898556585561191667
0.494000000000000272,-13.816562772790126346
0.495000000000000273,-13.734391665095268209
0.496000000000000274,-13.652050127090618048
0.497000000000000275,-13.569545306966910303
0.498000000000000276,-13.486884620846518956
0.499000000000000277,-13.404075737401996093
0.500000000000000222,-13.321126562745988053
0.501000000000000334,-13.238045225600046706
0.502000000000000224,-13.154840062748666796
0.503000000000000336,-13.071519604784237245
0.504000000000000226,-12.988092562148235487
0.505000000000000338,-12.904567811472684724
0.506000000000000227,-12.820954382226139145
0.507000000000000339,-12.737261443666870520
0.508000000000000229,-12.653498292106348799
0.509000000000000341,-12.569674338484563947
0.510000000000000231,-12.485799096259423635
0.511000000000000343,-12.401882169610455975
0.512000000000000233,-12.317933241958224144
0.513000000000000345,-12.233962064798831193
0.514000000000000234,-12.149978446854088787
0.515000000000000346,-12.065992243535742290
0.516000000000000236,-11.982013346723617175
0.517000000000000348,-11.898051674855530280
0.518000000000000238,-11.814117163327923166
0.519000000000000350,-11.730219755204551291
0.520000000000000240,-11.646369392231427753
0.521000000000000352,-11.562576006155071084
0.522000000000000242,-11.478849510341483153
0.523000000000000353,-11.395199791692467883
0.524000000000000243,-11.311636702856278092
0.525000000000000355,-11.228170054728847660
0.526000000000000245,-11.144809609242166459
0.527000000000000357,-11.061565072435501023
0.528000000000000247,-10.978446087806002396
0.529000000000000359,-10.895462229933945864
0.530000000000000249,-10.812622998378753181
0.531000000000000361,-10.729937811840974504
0.532000000000000250,-10.647416002586144401
0.533000000000000362,-10.565066811125310764
0.534000000000000252,-10.482899381148090612
0.535000000000000364,-10.400922754702950357
0.536000000000000254,-10.319145867620358459
0.537000000000000366,-10.237577545173229154
0.538000000000000256,-10.156226497970573419
0.539000000000000368,-10.075101318078353074
0.540000000000000258,-9.994210475363505708
0.541000000000000369,-9.913562314055152314
0.542000000000000259,-9.833165049518793666
0.543000000000000371,-9.753026765237652995
0.544000000000000261,-9.673155409996692100
0.545000000000000373,-9.593558795263803063
0.546000000000000263,-9.514244592763530406
0.547000000000000375,-9.435220332237665986
0.548000000000000265,-9.356493399388622123
0.549000000000000377,-9.278071033999520267
0.550000000000000266,-9.199960328227032136
0.551000000000000378,-9.122168225061253466
0.552000000000000268,-9.044701516948354225
0.553000000000000380,-8.967566844570649565
0.554000000000000270,-8.890770695779815824
0.555000000000000382,-8.814319404677920744
0.556000000000000272,-8.738219150842279959
0.557000000000000384,-8.662475958688776956
0.558000000000000274,-8.587095696969779368
0.559000000000000385,-8.512084078401484177
0.560000000000000275,-8.437446659416925954
0.561000000000000387,-8.363188840039596172
0.562000000000000277,-8.289315863873918389
0.563000000000000389,-8.215832818207967847
0.564000000000000279,-8.142744634224541755
0.565000000000000391,-8.070056087316187288
0.566000000000000281,-7.997771797500499602
0.567000000000000393,-7.925896229931358228
0.568000000000000282,-7.854433695502675228
0.569000000000000394,-7.783388351540301286
0.570000000000000284,-7.712764202578989980
0.571000000000000396,-7.642565101220118784
0.572000000000000286,-7.572794749067242037
0.573000000000000398,-7.503456697735335190
0.574000000000000288,-7.434554349930881934
0.575000000000000400,-7.366090960599021464
0.576000000000000290,-7.298069638134824011
0.577000000000000401,-7.230493345655181869
0.578000000000000291,-7.163364902328536843
0.579000000000000403,-7.096686984759053018
0.580000000000000293,-7.030462128422669821
0.581000000000000405,-6.964692729151645167
0.582000000000000295,-6.899381044665370055
0.583000000000000407,-6.834529196144115026
0.584000000000000297,-6.770139169843534255
0.585000000000000409,-6.706212818746928761
0.586000000000000298,-6.642751864253180649
0.587000000000000410,-6.579757897897378527
0.588000000000000300,-6.517232383102303572
0.589000000000000412,-6.455176656957945625
0.590000000000000302,-6.393591932027268498
0.591000000000000414,-6.332479298175671012
0.592000000000000304,-6.271839724422319406
0.593000000000000416,-6.211674060811033016
0.594000000000000306,-6.151983040299063177
0.595000000000000417,-6.092767280661507634
0.596000000000000307,-6.034027286409802571
0.597000000000000419,-5.975763450722266334
0.598000000000000309,-5.917976057385160082
0.599000000000000421,-5.860665282742393956
0.600000000000000311,-5.803831197652488783
0.601000000000000423,-5.747473769450960113
0.602000000000000313,-5.691592863916976164
0.603000000000000425,-5.636188247242382765
0.604000000000000314,-5.581259588002280836
0.605000000000000426,-5.526806459125160664
0.606000000000000316,-5.472828339861957936
0.607000000000000428,-5.419324617752203643
0.608000000000000318,-5.366294590586601743
0.609000000000000430,-5.313737468364415406
0.610000000000000320,-5.261652375245029489
0.611000000000000432,-5.210038351492196185
0.612000000000000322,-5.158894355410374111
0.613000000000000433,-5.108219265271864984
0.614000000000000323,-5.058011881234085294
0.615000000000000435,-5.008270927245908055
0.616000000000000325,-4.958995052942425374
0.617000000000000437,-4.910182835527139744
0.618000000000000327,-4.861832781641055590
0.619000000000000439,-4.813943329217710065
0.620000000000000329,-4.766512849323704337
0.621000000000000441,-4.719539647983907571
0.622000000000000330,-4.673021967990862890
0.623000000000000442,-4.626957990697667000
0.624000000000000332,-4.581345837793994846
0.625000000000000444,-4.536183573064508145
0.626000000000000334,-4.491469204129437287
0.627000000000000446,-4.447200684166618956
0.628000000000000336,-4.403375913614820725
0.629000000000000448,-4.359992741857737997
0.630000000000000338,-4.317048968888549609
0.631000000000000449,-4.274542346954371297
0.632000000000000339,-4.232470582180665630
0.633000000000000451,-4.190831336174987598
0.634000000000000341,-4.149622227610075598
0.635000000000000453,-4.108840833785815327
0.636000000000000343,-4.068484692170085459
0.637000000000000455,-4.028551301918070315
0.638000000000000345,-3.989038125370112819
0.639000000000000457,-3.949942589527634773
0.640000000000000346,-3.911262087507395790
0.641000000000000458,-3.872993979973552658
0.642000000000000348,-3.835135596547806447
0.643000000000000460,-3.797684237197216817
0.644000000000000350,-3.760637173599961525
0.645000000000000462,-3.723991650488657434
0.646000000000000352,-3.687744886971532132
0.647000000000000464,-3.651894077831125518
0.648000000000000353,-3.616436394800869980
0.649000000000000465,-3.581368987819135263
0.650000000000000355,-3.546688986261254506
0.651000000000000467,-3.512393500149092240
0.652000000000000357,-3.478479621338614436
0.653000000000000469,-3.444944424685201678
0.654000000000000359,-3.411784969187064753
0.655000000000000471,-3.378998299106553027
0.656000000000000361,-3.346581445069781946
0.657000000000000473,-3.314531425144337184
