# bi-graphene_THYMINE
# h[nm],U(h)[kJ/mol]
0.149999999999999994,100.089761300606468808
0.150999999999999995,96.893064101062662985
0.151999999999999996,93.896383514148439531
0.152999999999999997,90.981853488901705873
0.153999999999999998,88.106979953843364228
0.154999999999999999,85.264915785423951888
0.156000000000000000,82.462598786148248564
0.157000000000000001,79.709659791457781353
0.158000000000000002,77.013564741801403102
0.159000000000000002,74.378156078171983268
0.160000000000000003,71.803875211054531746
0.161000000000000004,69.288667524616926130
0.162000000000000005,66.829025100439167772
0.163000000000000006,64.420900063126580903
0.164000000000000007,62.060384601086923340
0.165000000000000008,59.744143827226267263
0.166000000000000009,57.469632448594964558
0.167000000000000010,55.235143956988409286
0.168000000000000010,53.039743515365195492
0.169000000000000011,50.883130320815510572
0.170000000000000012,48.765466497554506020
0.171000000000000013,46.687200139725760550
0.172000000000000014,44.648901395113092860
0.173000000000000015,42.651123111932299992
0.174000000000000016,40.694291763893417624
0.175000000000000017,38.778630071292944592
0.176000000000000018,36.904109766908554491
0.177000000000000018,35.070431082609459850
0.178000000000000019,33.277024517804633774
0.179000000000000020,31.523070075027696646
0.180000000000000021,29.807529222607890063
0.181000000000000022,28.129185215200436687
0.182000000000000023,26.486687948910070389
0.183000000000000024,24.878600157649906066
0.184000000000000025,23.303442405489420253
0.185000000000000026,21.759734951105251355
0.186000000000000026,20.246035126519217329
0.187000000000000027,18.760969367078157433
0.188000000000000028,17.303259446311965775
0.189000000000000029,15.871742807639094508
0.190000000000000030,14.465387148982600252
0.191000000000000031,13.083299613036057707
0.192000000000000032,11.724731073464305098
0.193000000000000033,10.389076094578083342
0.194000000000000034,9.075869187756058665
0.195000000000000034,7.784778000365561113
0.196000000000000035,6.515594059677224159
0.197000000000000036,5.268221661904187947
0.198000000000000037,4.042665450715191788
0.199000000000000038,2.839017175141065330
0.200000000000000039,1.657442057612109165
0.201000000000000040,0.498165142028429819
0.202000000000000041,-0.638542068325454570
0.203000000000000042,-1.752374430771689529
0.204000000000000042,-2.843005242652816733
0.205000000000000043,-3.910097430816553921
0.206000000000000044,-4.953313745834523552
0.207000000000000045,-5.972325894300127835
0.208000000000000046,-6.966822575911249871
0.209000000000000047,-7.936516420247184733
0.210000000000000048,-8.881149841480587170
0.211000000000000049,-9.800499848085170385
0.212000000000000050,-10.694381859322788841
0.213000000000000050,-11.562652591348243192
0.214000000000000051,-12.405212083604649109
0.215000000000000052,-13.222004941222838426
0.216000000000000053,-14.013020871800936362
0.217000000000000054,-14.778294595611422224
0.218000000000000055,-15.517905207318648309
0.219000000000000056,-16.231975065010949777
0.220000000000000057,-16.920668279051483296
0.221000000000000058,-17.584188869174976588
0.222000000000000058,-18.222778653637437429
0.223000000000000059,-18.836714929238077332
0.224000000000000060,-19.426307995848155485
0.225000000000000061,-19.991898573827008079
0.226000000000000062,-20.533855157492471477
0.227000000000000063,-21.052571342728114701
0.228000000000000064,-21.548463161920665243
0.229000000000000065,-22.021966454780891098
0.230000000000000066,-22.473534299244018797
0.231000000000000066,-22.903634522600174961
0.232000000000000067,-23.312747309281995456
0.233000000000000068,-23.701362918344720754
0.234000000000000069,-24.069979520610267798
0.235000000000000070,-24.419101162706009944
0.236000000000000071,-24.749235862798780516
0.237000000000000072,-25.060893840693029944
0.238000000000000073,-25.354585883109635347
0.239000000000000073,-25.630821843371251134
0.240000000000000074,-25.890109273374349641
0.241000000000000075,-26.132952184602572743
0.242000000000000076,-26.359849934015208817
0.243000000000000077,-26.571296229906806730
0.244000000000000078,-26.767778252260558958
0.245000000000000079,-26.949775881690989365
0.246000000000000080,-27.117761030773102959
0.247000000000000081,-27.272197071370300137
0.248000000000000081,-27.413538351485289724
0.249000000000000082,-27.542229795154280936
0.250000000000000111,-27.658706578971742118
0.251000000000000112,-27.763393878958851246
0.252000000000000113,-27.856706681664441305
0.253000000000000114,-27.939049653599994372
0.254000000000000115,-28.010817063356501677
0.255000000000000115,-28.072392751018185209
0.256000000000000116,-28.124150139773831825
0.257000000000000117,-28.166452284922325333
0.258000000000000118,-28.199651955771010137
0.259000000000000119,-28.224091746229824196
0.260000000000000120,-28.240104210206776969
0.261000000000000121,-28.248012018207482754
0.262000000000000122,-28.248128131832800136
0.263000000000000123,-28.240755993149218028
0.264000000000000123,-28.226189726178169792
0.265000000000000124,-28.204714348008213420
0.266000000000000125,-28.176605987280872512
0.267000000000000126,-28.142132108032352988
0.268000000000000127,-28.101551737092584915
0.269000000000000128,-28.055115693447426395
0.270000000000000129,-28.003066818160004203
0.271000000000000130,-27.945640203624598996
0.272000000000000131,-27.883063421089179457
0.273000000000000131,-27.815556745532955318
0.274000000000000132,-27.743333377122450401
0.275000000000000133,-27.666599658595167455
0.276000000000000134,-27.585555288032956867
0.277000000000000135,-27.500393526590311666
0.278000000000000136,-27.411301400834474862
0.279000000000000137,-27.318459899436923877
0.280000000000000138,-27.222044164029284730
0.281000000000000139,-27.122223674101036295
0.282000000000000139,-27.019162425873634703
0.283000000000000140,-26.913019105135475684
0.284000000000000141,-26.803947254064695471
0.285000000000000142,-26.692095432103979391
0.286000000000000143,-26.577607370982850199
0.287000000000000144,-26.460622124008626344
0.288000000000000145,-26.341274209769739656
0.289000000000000146,-26.219693750411646960
0.290000000000000147,-26.096006604659937267
0.291000000000000147,-25.970334495775478700
0.292000000000000148,-25.842795134634123144
0.293000000000000149,-25.713502338128250813
0.294000000000000150,-25.582566143090275546
0.295000000000000151,-25.450092915938945737
0.296000000000000152,-25.316185458248003926
0.297000000000000153,-25.180943108434902911
0.298000000000000154,-25.044461839762810484
0.299000000000000155,-24.906834354845006629
0.300000000000000155,-24.768150176834975440
0.301000000000000156,-24.628495737479234151
0.302000000000000157,-24.487954462203017414
0.303000000000000158,-24.346606852392003617
0.304000000000000159,-24.204530565025528688
0.305000000000000160,-24.061800489809044734
0.306000000000000161,-23.918488823945928345
0.307000000000000162,-23.774665144680788842
0.308000000000000163,-23.630396479738696058
0.309000000000000163,-23.485747375777073387
0.310000000000000164,-23.340779964959562420
0.311000000000000165,-23.195554029753587599
0.312000000000000166,-23.050127066046648849
0.313000000000000167,-22.904554344669161736
0.314000000000000168,-22.758888971405312418
0.315000000000000169,-22.613181945566903863
0.316000000000000170,-22.467482217199631123
0.317000000000000171,-22.321836742985034618
0.318000000000000171,-22.176290540896236081
0.319000000000000172,-22.030886743660939686
0.320000000000000173,-21.885666651079635159
0.321000000000000174,-21.740669781243404657
0.322000000000000175,-21.595933920690988828
0.323000000000000176,-21.451495173541466954
0.324000000000000177,-21.307388009634927073
0.325000000000000178,-21.163645311710759245
0.326000000000000179,-21.020298421649876275
0.327000000000000179,-20.877377185804611770
0.328000000000000180,-20.734909999437597605
0.329000000000000181,-20.592923850288862297
0.330000000000000182,-20.451444361287840934
0.331000000000000183,-20.310495832426035179
0.332000000000000184,-20.170101281803695770
0.333000000000000185,-20.030282485862922925
0.334000000000000186,-19.891060018818279787
0.335000000000000187,-19.752453291294763460
0.336000000000000187,-19.614480588182338749
0.337000000000000188,-19.477159105715081466
0.338000000000000189,-19.340504987782630053
0.339000000000000190,-19.204533361481061604
0.340000000000000191,-19.069258371909281635
0.341000000000000192,-18.934693216217930001
0.342000000000000193,-18.800850176915975709
0.343000000000000194,-18.667740654441235648
0.344000000000000195,-18.535375199000206692
0.345000000000000195,-18.403763541683019866
0.346000000000000196,-18.272914624858749733
0.347000000000000197,-18.142836631857040430
0.348000000000000198,-18.013537015941533781
0.349000000000000199,-17.885022528580943657
0.350000000000000200,-17.757299247023819788
0.351000000000000201,-17.630372601183101011
0.352000000000000202,-17.504247399836749821
0.353000000000000203,-17.378927856151150877
0.354000000000000203,-17.254417612533917037
0.355000000000000204,-17.130719764823179929
0.356000000000000205,-17.007836885820644568
0.357000000000000206,-16.885771048175886477
0.358000000000000207,-16.764523846629561632
0.359000000000000208,-16.644096419623608085
0.360000000000000209,-16.524489470286649606
0.361000000000000210,-16.405703286802992835
0.362000000000000210,-16.287737762173872369
0.363000000000000211,-16.170592413379942798
0.364000000000000212,-16.054266399954030931
0.365000000000000213,-15.938758541973388816
0.366000000000000214,-15.824067337480977713
0.367000000000000215,-15.710190979345403761
0.368000000000000216,-15.597127371569252219
0.369000000000000217,-15.484874145055760764
0.370000000000000218,-15.373428672843928666
0.371000000000000218,-15.262788084822080492
0.372000000000000219,-15.152949281930322201
0.373000000000000220,-15.043908949862096591
0.374000000000000221,-14.935663572275331035
0.375000000000000222,-14.828209443523542532
0.376000000000000223,-14.721542680917504953
0.377000000000000224,-14.615659236527978493
0.378000000000000225,-14.510554908540010288
0.379000000000000226,-14.406225352169309772
0.380000000000000226,-14.302666090151481271
0.381000000000000227,-14.199872522814178666
0.382000000000000228,-14.097839937743117389
0.383000000000000229,-13.996563519052054758
0.384000000000000230,-13.896038356267201408
0.385000000000000231,-13.796259452836414638
0.386000000000000232,-13.697221734273316684
0.387000000000000233,-13.598920055946473795
0.388000000000000234,-13.501349210523690303
0.389000000000000234,-13.404503935081422128
0.390000000000000235,-13.308378917888896709
0.391000000000000236,-13.212968804876997098
0.392000000000000237,-13.118268205801035364
0.393000000000000238,-13.024271700107348693
0.394000000000000239,-12.930973842512557326
0.395000000000000240,-12.838369168304961221
0.396000000000000241,-12.746452198376976739
0.397000000000000242,-12.655217443997397453
0.398000000000000242,-12.564659411332350203
0.399000000000000243,-12.474772605723355667
0.400000000000000244,-12.385551535730837003
0.401000000000000245,-12.296990716951517797
0.402000000000000246,-12.209084675617537741
0.403000000000000247,-12.121827951985160610
0.404000000000000248,-12.035215103520979341
0.405000000000000249,-11.949240707892998969
0.406000000000000250,-11.863899365773960426
0.407000000000000250,-11.779185703464214896
0.408000000000000251,-11.695094375340996606
0.409000000000000252,-11.611620066141149721
0.410000000000000253,-11.528757493083766406
0.411000000000000254,-11.446501407839406284
0.412000000000000255,-11.364846598352128737
0.413000000000000256,-11.283787890520580177
0.414000000000000257,-11.203320149744010692
0.415000000000000258,-11.123438282339170868
0.416000000000000258,-11.044137236833682536
0.417000000000000259,-10.965412005141326190
0.418000000000000260,-10.887257623624725156
0.419000000000000261,-10.809669174050409168
0.420000000000000262,-10.732641784441403487
0.421000000000000263,-10.656170629832203645
0.422000000000000264,-10.580250932930695740
0.423000000000000265,-10.504877964691718972
0.424000000000000266,-10.430047044806645573
0.425000000000000266,-10.355753542113166787
0.426000000000000267,-10.281992874929436255
0.427000000000000268,-10.208760511316581798
0.428000000000000269,-10.136051969273344397
0.429000000000000270,-10.063862816866596006
0.430000000000000271,-9.992188672301283603
0.431000000000000272,-9.921025203933224290
0.432000000000000273,-9.850368130228082109
0.433000000000000274,-9.780213219669724012
0.434000000000000274,-9.710556290620939279
0.435000000000000275,-9.641393211139600794
0.436000000000000276,-9.572719898753003775
0.437000000000000277,-9.504532320193117556
0.438000000000000278,-9.436826491095361646
0.439000000000000279,-9.369598475663504900
0.440000000000000280,-9.302844386302915325
0.441000000000000281,-9.236560383224601267
0.442000000000000282,-9.170742674022232421
0.443000000000000282,-9.105387513224169282
0.444000000000000283,-9.040491201822629108
0.445000000000000284,-8.976050086781853565
0.446000000000000285,-8.912060560527049091
0.447000000000000286,-8.848519060416112580
0.448000000000000287,-8.785422068195462231
0.449000000000000288,-8.722766109441895566
0.450000000000000289,-8.660547752991778481
0.451000000000000290,-8.598763610359140941
0.452000000000000290,-8.537410335144002715
0.453000000000000291,-8.476484622432234772
0.454000000000000292,-8.415983208188240638
0.455000000000000293,-8.355902868641576831
0.456000000000000294,-8.296240419668697186
0.457000000000000295,-8.236992716170815854
0.458000000000000296,-8.178156651448913905
0.459000000000000297,-8.119729156576878992
0.460000000000000298,-8.061707199773568533
0.461000000000000298,-8.004087785774727237
0.462000000000000299,-7.946867955205523693
0.463000000000000300,-7.890044783954403229
0.464000000000000301,-7.833615382549031558
0.465000000000000302,-7.777576895534918933
0.466000000000000303,-7.721926500857394515
0.467000000000000304,-7.666661409247400805
0.468000000000000305,-7.611778863611770696
0.469000000000000306,-7.557276138428399292
0.470000000000000306,-7.503150539146790088
0.471000000000000307,-7.449399401594369863
0.472000000000000308,-7.396020091389064355
0.473000000000000309,-7.343010003358368287
0.474000000000000310,-7.290366560965326315
0.475000000000000311,-7.238087215741670022
0.476000000000000312,-7.186169446728532861
0.477000000000000313,-7.134610759924733259
0.478000000000000314,-7.083408687743090404
0.479000000000000314,-7.032560788474914837
0.480000000000000315,-6.982064645762714683
0.481000000000000316,-6.931917868081539424
0.482000000000000317,-6.882118088228817321
0.483000000000000318,-6.832662962823039088
0.484000000000000319,-6.783550171811201679
0.485000000000000320,-6.734777417985279513
0.486000000000000321,-6.686342426507638770
0.487000000000000322,-6.638242944445532423
0.488000000000000322,-6.590476740314656467
0.489000000000000323,-6.543041603631874814
0.490000000000000324,-6.495935344477041795
0.491000000000000325,-6.449155793063988895
0.492000000000000326,-6.402700799320567349
0.493000000000000327,-6.356568232477874503
0.494000000000000328,-6.310755980668451670
0.495000000000000329,-6.265261950533599133
0.496000000000000330,-6.220084066839577375
0.497000000000000330,-6.175220272102777130
0.498000000000000331,-6.130668526223695736
0.499000000000000332,-6.086426806129721534
0.500000000000000333,-6.042493105426567368
0.501000000000000334,-5.998865434058350488
0.502000000000000335,-5.955541817976111929
0.503000000000000336,-5.912520298814845532
0.504000000000000337,-5.869798933578752376
0.505000000000000338,-5.827375794334727743
0.506000000000000338,-5.785248967913949159
0.507000000000000339,-5.743416555621419839
0.508000000000000340,-5.701876672953363645
0.509000000000000341,-5.660627449322399585
0.510000000000000342,-5.619667027790277380
0.511000000000000343,-5.578993564808130579
0.512000000000000344,-5.538605229964073118
0.513000000000000345,-5.498500205738023894
0.514000000000000346,-5.458676687263654514
0.515000000000000346,-5.419132882097267512
0.516000000000000347,-5.379867009993512639
0.517000000000000348,-5.340877302687844441
0.518000000000000349,-5.302162003685461755
0.519000000000000350,-5.263719368056747783
0.520000000000000351,-5.225547662238970048
0.521000000000000352,-5.187645163844136320
0.522000000000000353,-5.150010161472889259
0.523000000000000353,-5.112640954534239945
0.524000000000000354,-5.075535853071146519
0.525000000000000355,-5.038693177591601291
0.526000000000000356,-5.002111258905275193
0.527000000000000357,-4.965788437965509061
0.528000000000000358,-4.929723065716489216
0.529000000000000359,-4.893913502945554050
0.530000000000000360,-4.858358120140437109
0.531000000000000361,-4.823055297351368509
0.532000000000000361,-4.788003424057859725
0.533000000000000362,-4.753200899040078475
0.534000000000000363,-4.718646130254709803
0.535000000000000364,-4.684337534715104390
0.536000000000000365,-4.650273538375687465
0.537000000000000366,-4.616452576020448006
0.538000000000000367,-4.582873091155390100
0.539000000000000368,-4.549533535904908277
0.540000000000000369,-4.516432370911831029
0.541000000000000369,-4.483568065241176903
0.542000000000000370,-4.450939096287405583
0.543000000000000371,-4.418543949685087568
0.544000000000000372,-4.386381119222907188
0.545000000000000373,-4.354449106760869270
0.546000000000000374,-4.322746422150613554
0.547000000000000375,-4.291271583158706271
0.548000000000000376,-4.260023115392918669
0.549000000000000377,-4.228999552231249126
0.550000000000000377,-4.198199434753670189
0.551000000000000378,-4.167621311676539264
0.552000000000000379,-4.137263739289513964
0.553000000000000380,-4.107125281394916172
0.554000000000000381,-4.077204509249452435
0.555000000000000382,-4.047500001508248957
0.556000000000000383,-4.018010344171003112
0.557000000000000384,-3.988734130530308342
0.558000000000000385,-3.959669961121986326
0.559000000000000385,-3.930816443677375815
0.560000000000000386,-3.902172193077491080
0.561000000000000387,-3.873735831308995792
0.562000000000000388,-3.845505987421915073
0.563000000000000389,-3.817481297488995118
0.564000000000000390,-3.789660404566659313
0.565000000000000391,-3.762041958657507568
0.566000000000000392,-3.734624616674266484
0.567000000000000393,-3.707407042405149955
0.568000000000000393,-3.680387906480551585
0.569000000000000394,-3.653565886341012092
0.570000000000000395,-3.626939666206442148
0.571000000000000396,-3.600507937046462104
0.572000000000000397,-3.574269396551899014
0.573000000000000398,-3.548222749107311724
0.574000000000000399,-3.522366705764560013
0.575000000000000400,-3.496699984217277013
0.576000000000000401,-3.471221308776301306
0.577000000000000401,-3.445929410345959898
0.578000000000000402,-3.420823026401150990
0.579000000000000403,-3.395900900965208358
0.580000000000000404,-3.371161784588519339
0.581000000000000405,-3.346604434327795641
0.582000000000000406,-3.322227613726027151
0.583000000000000407,-3.298030092793021062
0.584000000000000408,-3.274010647986535183
0.585000000000000409,-3.250168062193940166
0.586000000000000409,-3.226501124714379110
0.587000000000000410,-3.203008631241414772
0.588000000000000411,-3.179689383846099560
0.589000000000000412,-3.156542190960463845
0.590000000000000413,-3.133565867361359558
0.591000000000000414,-3.110759234154674591
0.592000000000000415,-3.088121118759865613
0.593000000000000416,-3.065650354894764895
0.594000000000000417,-3.043345782560657131
0.595000000000000417,-3.021206248027643149
0.596000000000000418,-2.999230603820128849
0.597000000000000419,-2.977417708702627230
0.598000000000000420,-2.955766427665626583
0.599000000000000421,-2.934275631911687832
0.600000000000000422,-2.912944198841625365
0.601000000000000423,-2.891771012040835309
0.602000000000000424,-2.870754961265693073
0.603000000000000425,-2.849894942430044154
0.604000000000000425,-2.829189857591752677
0.605000000000000426,-2.808638614939277467
0.606000000000000427,-2.788240128778322280
0.607000000000000428,-2.767993319518423867
0.608000000000000429,-2.747897113659635515
