# Ag322_LYSSCA-AC
# h[nm],U(h)[kJ/mol]
0.200000000000000011,128.548737174897411251
0.201000000000000012,123.987908413226932680
0.202000000000000013,120.485482958349308547
0.203000000000000014,117.528628983757386095
0.204000000000000015,114.815408601817495082
0.205000000000000016,112.180985733115534231
0.206000000000000016,109.546521058515878622
0.207000000000000017,106.884451831426076751
0.208000000000000018,104.195472407926672531
0.209000000000000019,101.493758472101106349
0.210000000000000020,98.797904269006124878
0.211000000000000021,96.125737803638159562
0.212000000000000022,93.491698291705034762
0.213000000000000023,90.905845231904180537
0.214000000000000024,88.373851785311785534
0.215000000000000024,85.897541690008026194
0.216000000000000025,83.475677883880806007
0.217000000000000026,81.104817014996996249
0.218000000000000027,78.780118249059142954
0.219000000000000028,76.496045698410881641
0.220000000000000029,74.246937777952226156
0.221000000000000030,72.027438624741392914
0.222000000000000031,69.832799963450582936
0.223000000000000032,67.659069092527857947
0.224000000000000032,65.503181933959808703
0.225000000000000033,63.362980729071125552
0.226000000000000034,61.237174971167121384
0.227000000000000035,59.125262243475518176
0.228000000000000036,57.027423258977286480
0.229000000000000037,54.944402898253045464
0.230000000000000038,52.877386617491495713
0.231000000000000039,50.827879373911287075
0.232000000000000040,48.797592254993411132
0.233000000000000040,46.788340326755111676
0.234000000000000041,44.801953834554431921
0.235000000000000042,42.840203781104079894
0.236000000000000043,40.904742044636677178
0.237000000000000044,38.997055555086745926
0.238000000000000045,37.118433585992534063
0.239000000000000046,35.269946913658586141
0.240000000000000047,33.452437414131431126
0.241000000000000048,31.666516586786833898
0.242000000000000048,29.912571488019455757
0.243000000000000049,28.190776610132775915
0.244000000000000050,26.501110332645158252
0.245000000000000051,24.843374692319940777
0.246000000000000052,23.217217353404041802
0.247000000000000053,21.622154802187356637
0.248000000000000054,20.057595933451008108
0.249000000000000055,18.522865335698902811
0.250000000000000056,17.017225713712129220
0.251000000000000056,15.539899008524724167
0.252000000000000057,14.090085884913818859
0.253000000000000058,12.666983354182374200
0.254000000000000059,11.269800385202426440
0.255000000000000060,9.897771429631339046
0.256000000000000061,8.550167848462203679
0.257000000000000062,7.226307277394505846
0.258000000000000063,5.925561008816169206
0.259000000000000064,4.647359499457398790
0.260000000000000064,3.391196136021195962
0.261000000000000065,2.156629407323257919
0.262000000000000066,0.943283641649723892
0.263000000000000067,-0.249151526906920939
0.264000000000000068,-1.420922798599625780
0.265000000000000069,-2.572215792853307370
0.266000000000000070,-3.703158421462198646
0.267000000000000071,-4.813824901531865486
0.268000000000000071,-5.904240268827975591
0.269000000000000072,-6.974385262622097237
0.270000000000000073,-8.024201464280023899
0.271000000000000074,-9.053596583376432250
0.272000000000000075,-10.062449796755647213
0.273000000000000076,-11.050617057453646197
0.274000000000000077,-12.017936301567702984
0.275000000000000078,-12.964232491857297092
0.276000000000000079,-13.889322446973579872
0.277000000000000079,-14.793019414668398426
0.278000000000000080,-15.675137356068116645
0.279000000000000081,-16.535494916091202811
0.280000000000000082,-17.373919062321114382
0.281000000000000083,-18.190248381129062949
0.282000000000000084,-18.984336025584152452
0.283000000000000085,-19.756052314721859631
0.284000000000000086,-20.505286988097953582
0.285000000000000087,-21.231951123269055870
0.286000000000000087,-21.935978726961245400
0.287000000000000088,-22.617328013254770269
0.288000000000000089,-23.275982384172763773
0.289000000000000090,-23.911951129664238636
0.290000000000000091,-24.525269865155586047
0.291000000000000092,-25.116000725663134574
0.292000000000000093,-25.684232335946102666
0.293000000000000094,-26.230079576381506001
0.294000000000000095,-26.753683164194036692
0.295000000000000095,-27.255209069413979250
0.296000000000000096,-27.734847784493808831
0.297000000000000097,-28.192813465923070027
0.298000000000000098,-28.629342965466953785
0.299000000000000099,-29.044694767843015626
0.300000000000000100,-29.439147850763767167
0.301000000000000101,-29.813000482332483898
0.302000000000000102,-30.166568969800977129
0.303000000000000103,-30.500186372699552351
0.304000000000000103,-30.814201192341254654
0.305000000000000104,-31.108976048700014871
0.306000000000000105,-31.384886354672516973
0.307000000000000106,-31.642318996766288564
0.308000000000000107,-31.881671030318830873
0.309000000000000108,-32.103348396448801338
0.310000000000000109,-32.307764667076881437
0.311000000000000110,-32.495339823531416812
0.312000000000000111,-32.666499073479045023
0.313000000000000111,-32.821671710189434634
0.314000000000000112,-32.961290017462587798
0.315000000000000113,-33.085788222912427159
0.316000000000000114,-33.195601501715259474
0.317000000000000115,-33.291165032392385115
0.318000000000000116,-33.372913105703617020
0.319000000000000117,-33.441278287281321013
0.320000000000000118,-33.496690634229196348
0.321000000000000119,-33.539576965548484111
0.322000000000000119,-33.570360185929629893
0.323000000000000120,-33.589458662162428482
0.324000000000000121,-33.597285651167354104
0.325000000000000122,-33.594248778433168923
0.326000000000000123,-33.580749565460436656
0.327000000000000124,-33.557183004653126090
0.328000000000000125,-33.523937179970360489
0.329000000000000126,-33.481392931544867508
0.330000000000000127,-33.429923562391159919
0.331000000000000127,-33.369894585265143405
0.332000000000000128,-33.301663507692310873
0.333000000000000129,-33.225579653155932647
0.334000000000000130,-33.141984016424686388
0.335000000000000131,-33.051209151002481690
0.336000000000000132,-32.953579086696251466
0.337000000000000133,-32.849409275323786517
0.338000000000000134,-32.739006562617440466
0.339000000000000135,-32.622669184421660304
0.340000000000000135,-32.500686785332185025
0.341000000000000136,-32.373340457979011831
0.342000000000000137,-32.240902801215817419
0.343000000000000138,-32.103637995541220107
0.344000000000000139,-31.961801894144940661
0.345000000000000140,-31.815642128040803271
0.346000000000000141,-31.665398223818488788
0.347000000000000142,-31.511301732618608895
0.348000000000000143,-31.353576369007477354
0.349000000000000143,-31.192438158499818712
0.350000000000000144,-31.028095592549998827
0.351000000000000145,-30.860749789902740758
0.352000000000000146,-30.690594663264398889
0.353000000000000147,-30.517817090323895002
0.354000000000000148,-30.342597088219473989
0.355000000000000149,-30.165107990611581101
0.356000000000000150,-29.985516626585575040
0.357000000000000151,-29.803983500667960982
0.358000000000000151,-29.620662973298436782
0.359000000000000152,-29.435703441155432358
0.360000000000000153,-29.249247516786898160
0.361000000000000154,-29.061432207048301990
0.362000000000000155,-28.872389089898820913
0.363000000000000156,-28.682244489152331823
0.364000000000000157,-28.491119646823143796
0.365000000000000158,-28.299130892748053157
0.366000000000000159,-28.106389811204138596
0.367000000000000159,-27.913003404278121877
0.368000000000000160,-27.719074251777687579
0.369000000000000161,-27.524700667505669571
0.370000000000000162,-27.329976851748256195
0.371000000000000163,-27.134993039855892505
0.372000000000000164,-26.939835646819709325
0.373000000000000165,-26.744587407771312826
0.374000000000000166,-26.549327514353745272
0.375000000000000167,-26.354131746932143443
0.376000000000000167,-26.159072602630050852
0.377000000000000168,-25.964219419194005667
0.378000000000000169,-25.769638494703549725
0.379000000000000170,-25.575393203157680944
0.380000000000000171,-25.381544105979976678
0.381000000000000172,-25.188149059496208082
0.382000000000000173,-24.995263318446898637
0.383000000000000174,-24.802939635606399804
0.384000000000000175,-24.611228357586561799
0.385000000000000175,-24.420177516909962634
0.386000000000000176,-24.229832920442753164
0.387000000000000177,-24.040238234281421370
0.388000000000000178,-23.851435065192099216
0.389000000000000179,-23.663463038703191899
0.390000000000000180,-23.476359873955068736
0.391000000000000181,-23.290161455411780622
0.392000000000000182,-23.104901901541140319
0.393000000000000183,-22.920613630569654617
0.394000000000000183,-22.737327423419451122
0.395000000000000184,-22.555072483933557237
0.396000000000000185,-22.373876496495338273
0.397000000000000186,-22.193765681146921054
0.398000000000000187,-22.014764846309894608
0.399000000000000188,-21.836897439210037675
0.400000000000000189,-21.660185594106049933
0.401000000000000190,-21.484650178419858690
0.402000000000000191,-21.310310836864285733
0.403000000000000191,-21.137186033660931628
0.404000000000000192,-20.965293092939056407
0.405000000000000193,-20.794648237403158930
0.406000000000000194,-20.625266625354544914
0.407000000000000195,-20.457162386149356337
0.408000000000000196,-20.290348654172355225
0.409000000000000197,-20.124837601403175569
0.410000000000000198,-19.960640468649014423
0.411000000000000199,-19.797767595514240924
0.412000000000000199,-19.636228449175028743
0.413000000000000200,-19.476031652024133223
0.414000000000000201,-19.317185008247939493
0.415000000000000202,-19.159695529395026625
0.416000000000000203,-19.003569458993226249
0.417000000000000204,-18.848812296268611988
0.418000000000000205,-18.695428819018029998
0.419000000000000206,-18.543423105683597640
0.420000000000000207,-18.392798556675217014
0.421000000000000207,-18.243557914984943835
0.422000000000000208,-18.095703286134114052
0.423000000000000209,-17.949236157492400423
0.424000000000000210,-17.804157417005352926
0.425000000000000211,-17.660467371364823919
0.426000000000000212,-17.518165763654856448
0.427000000000000213,-17.377251790503251527
0.428000000000000214,-17.237724118767477677
0.429000000000000214,-17.099580901781312292
0.430000000000000215,-16.962819795187265015
0.431000000000000216,-16.827437972377921938
0.432000000000000217,-16.693432139567637051
0.433000000000000218,-16.560798550514718386
0.434000000000000219,-16.429533020912646890
0.435000000000000220,-16.299630942467505434
0.436000000000000221,-16.171087296677477241
0.437000000000000222,-16.043896668328990529
0.438000000000000222,-15.918053258723066534
0.439000000000000223,-15.793550898644189928
0.440000000000000224,-15.670383061082940657
0.441000000000000225,-15.548542873722700719
0.442000000000000226,-15.428023131200081508
0.443000000000000227,-15.308816307147196767
0.444000000000000228,-15.190914566024037669
0.445000000000000229,-15.074309774747467472
0.446000000000000230,-14.958993514123445578
0.447000000000000230,-14.844957090088016116
0.448000000000000231,-14.732191544762173407
0.449000000000000232,-14.620687667324949288
0.450000000000000233,-14.510436004708967772
0.451000000000000234,-14.401426872121669831
0.452000000000000235,-14.293650363395647318
0.453000000000000236,-14.187096361170357994
0.454000000000000237,-14.081754546907978565
0.455000000000000238,-13.977614410745104578
0.456000000000000238,-13.874665261182176579
0.457000000000000239,-13.772896234611938127
0.458000000000000240,-13.672296304688387636
0.459000000000000241,-13.572854291536879501
0.460000000000000242,-13.474558870806609079
0.461000000000000243,-13.377398582565765750
0.462000000000000244,-13.281361840040267097
0.463000000000000245,-13.186436938195985391
0.464000000000000246,-13.092612062165368769
0.465000000000000246,-12.999875295518219076
0.466000000000000247,-12.908214628376986965
0.467000000000000248,-12.817617965376651767
0.468000000000000249,-12.728073133469376188
0.469000000000000250,-12.639567889573763537
0.470000000000000251,-12.552089928069014135
0.471000000000000252,-12.465626888133719774
0.472000000000000253,-12.380166360929758085
0.473000000000000254,-12.295695896630899568
0.474000000000000254,-12.212203011296567823
0.475000000000000255,-12.129675193590633953
0.476000000000000256,-12.048099911345605761
0.477000000000000257,-11.967464617972270347
0.478000000000000258,-11.887756758715072536
0.479000000000000259,-11.808963776753616415
0.480000000000000260,-11.731073119150572381
0.481000000000000261,-11.654072242646384083
0.482000000000000262,-11.577948619301400512
0.483000000000000262,-11.502689741985836491
0.484000000000000263,-11.428283129718272093
0.485000000000000264,-11.354716332853294958
0.486000000000000265,-11.281976938119203879
0.487000000000000266,-11.210052573506329665
0.488000000000000267,-11.138930913007115464
0.489000000000000268,-11.068599681208812768
0.490000000000000269,-10.999046657739757649
0.491000000000000270,-10.930259681570495545
0.492000000000000270,-10.862226655170680090
0.493000000000000271,-10.794935548523216795
0.494000000000000272,-10.728374402996784909
0.495000000000000273,-10.662531335078085704
0.496000000000000274,-10.597394539965380389
0.497000000000000275,-10.532952295024569977
0.498000000000000276,-10.469192963109547279
0.499000000000000277,-10.406104995748286512
0.500000000000000222,-10.343676936196313676
0.501000000000000334,-10.281897422359277172
0.502000000000000224,-10.220755189586389733
0.503000000000000336,-10.160239073336324367
0.504000000000000226,-10.100338011717722608
0.505000000000000338,-10.041041047905729044
0.506000000000000227,-9.982337332436978627
0.507000000000000339,-9.924216125384432985
0.508000000000000229,-9.866666798414451378
0.509000000000000341,-9.809678836727778517
0.510000000000000231,-9.753241840886847314
0.511000000000000343,-9.697345528530926018
0.512000000000000233,-9.641979735981728084
0.513000000000000345,-9.587134419741092373
0.514000000000000234,-9.532799657883316513
0.515000000000000346,-9.478965651343767007
0.516000000000000236,-9.425622725106370225
0.517000000000000348,-9.372761329291739330
0.518000000000000238,-9.320372040148463100
0.519000000000000350,-9.268445560949368556
0.520000000000000240,-9.216972722795169659
0.521000000000000352,-9.165944485327624847
0.522000000000000242,-9.115351937354288836
0.523000000000000353,-9.065186297387114678
0.524000000000000243,-9.015438914097055445
0.525000000000000355,-8.966101266686781202
0.526000000000000245,-8.917164965183800973
0.527000000000000357,-8.868621750655893976
0.528000000000000247,-8.820463495351294370
0.529000000000000359,-8.772682202765459181
0.530000000000000249,-8.725270007636792613
0.531000000000000361,-8.678219175873161717
0.532000000000000250,-8.631522104411585516
0.533000000000000362,-8.585171321012872170
0.534000000000000252,-8.539159483993435273
0.535000000000000364,-8.493479381896243297
0.536000000000000254,-8.448123933103014238
0.537000000000000366,-8.403086185389337714
0.538000000000000256,-8.358359315425222036
0.539000000000000368,-8.313936628222352354
0.540000000000000258,-8.269811556530600072
0.541000000000000369,-8.225977660185151308
0.542000000000000259,-8.182428625406526379
0.543000000000000371,-8.139158264055016190
0.544000000000000261,-8.096160512841574786
0.545000000000000373,-8.053429432496789886
0.546000000000000263,-8.010959206899844531
0.547000000000000375,-7.968744142168898925
0.548000000000000265,-7.926778665715100480
0.549000000000000377,-7.885057325261250583
0.550000000000000266,-7.843574787827360062
0.551000000000000378,-7.802325838684241788
0.552000000000000268,-7.761305380277041976
0.553000000000000380,-7.720508431119999848
0.554000000000000270,-7.679930124664210211
0.555000000000000382,-7.639565708139548050
0.556000000000000272,-7.599410541372629169
0.557000000000000384,-7.559460095581689743
0.558000000000000274,-7.519709952150404497
0.559000000000000385,-7.480155801381364711
0.560000000000000275,-7.440793441231076777
0.561000000000000387,-7.401618776027438784
0.562000000000000277,-7.362627815171078005
0.563000000000000389,-7.323816671821800739
0.564000000000000279,-7.285181561571334896
0.565000000000000391,-7.246718801103520846
0.566000000000000281,-7.208424806843119370
0.567000000000000393,-7.170296093594293652
0.568000000000000282,-7.132329273170012307
0.569000000000000394,-7.094521053013119527
0.570000000000000284,-7.056868234810456997
0.571000000000000396,-7.019367713100710837
0.572000000000000286,-6.982016473877239449
0.573000000000000398,-6.944811593186483556
0.574000000000000288,-6.907750235723206345
0.575000000000000400,-6.870829653423217387
0.576000000000000290,-6.834047184054500512
0.577000000000000401,-6.797400249807582284
0.578000000000000291,-6.760886355885945775
0.579000000000000403,-6.724503089097164654
0.580000000000000293,-6.688248116445710600
0.581000000000000405,-6.652119183727853269
0.582000000000000295,-6.616114114129686641
0.583000000000000407,-6.580230806828637924
0.584000000000000297,-6.544467235599311650
0.585000000000000409,-6.508821447424198325
0.586000000000000298,-6.473291561109898673
0.587000000000000410,-6.437875765909335080
0.588000000000000300,-6.402572320150658136
0.589000000000000412,-6.367379549873176892
0.590000000000000302,-6.332295847471028694
0.591000000000000414,-6.297319670344906584
0.592000000000000304,-6.262449539562426892
0.593000000000000416,-6.227684038527433685
0.594000000000000306,-6.193021811658878661
0.595000000000000417,-6.158461563079438150
0.596000000000000307,-6.124002055314439197
0.597000000000000419,-6.089642108001333654
0.598000000000000309,-6.055380596610196342
0.599000000000000421,-6.021216451175375184
0.600000000000000311,-5.987148655038863510
0.601000000000000423,-5.953176243605411422
0.602000000000000313,-5.919298303109930437
0.603000000000000425,-5.885513969397136336
0.604000000000000314,-5.851822426714067937
0.605000000000000426,-5.818222906515249093
0.606000000000000316,-5.784714686281171581
0.607000000000000428,-5.751297088349854647
0.608000000000000318,-5.717969478762116253
0.609000000000000430,-5.684731266120269133
0.610000000000000320,-5.651581900460807439
0.611000000000000432,-5.618520872140900124
0.612000000000000322,-5.585547710739074745
0.613000000000000433,-5.552661983970001103
0.614000000000000323,-5.519863296613680248
0.615000000000000435,-5.487151289458946479
0.616000000000000325,-5.454525638261499054
0.617000000000000437,-5.421986052716473381
0.618000000000000327,-5.389532275445652942
0.619000000000000439,-5.357164080999285538
0.620000000000000329,-5.324881274872694803
0.621000000000000441,-5.292683692537563545
0.622000000000000330,-5.260571198488039890
0.623000000000000442,-5.228543685301557886
0.624000000000000332,-5.196601072714509328
0.625000000000000444,-5.164743306712631821
0.626000000000000334,-5.132970358636239183
0.627000000000000446,-5.101282224300122792
0.628000000000000336,-5.069678923128249082
0.629000000000000448,-5.038160497303087126
0.630000000000000338,-5.006727010929667543
0.631000000000000449,-4.975378549214129364
0.632000000000000339,-4.944115217656954719
0.633000000000000451,-4.912937141260567131
0.634000000000000341,-4.881844463751459529
0.635000000000000453,-4.850837346816610385
0.636000000000000343,-4.819915969354217289
0.637000000000000455,-4.789080526738603183
0.638000000000000345,-4.758331230099291709
0.639000000000000457,-4.727668305613993205
0.640000000000000346,-4.697091993815673661
0.641000000000000458,-4.666602548913293624
0.642000000000000348,-4.636200238126422235
0.643000000000000460,-4.605885341033316038
0.644000000000000350,-4.575658148932673974
0.645000000000000462,-4.545518964218628000
0.646000000000000352,-4.515468099769142540
0.647000000000000464,-4.485505878347434638
0.648000000000000353,-4.455632632016625294
0.649000000000000465,-4.425848701567037580
0.650000000000000355,-4.396154435956558082
0.651000000000000467,-4.366550191763391098
0.652000000000000357,-4.337036332651551973
0.653000000000000469,-4.307613228848538256
0.654000000000000359,-4.278281256635452223
0.655000000000000471,-4.249040797849042761
0.656000000000000361,-4.219892239395871769
0.657000000000000473,-4.190835972778168994
