# Ag322_GLUPSCA-AC
# h[nm],U(h)[kJ/mol]
0.149999999999999994,94.099884751872835409
0.150999999999999995,90.198800070247699523
0.151999999999999996,86.850273472321902091
0.152999999999999997,83.626941990338252708
0.153999999999999998,80.413252665660294838
0.154999999999999999,77.217880902547534561
0.156000000000000000,74.082260002245604369
0.157000000000000001,71.041899326346054977
0.158000000000000002,68.114805320167107539
0.159000000000000002,65.302334657649140581
0.160000000000000003,62.594533416649142055
0.161000000000000004,59.976001777371152457
0.162000000000000005,57.430592229915760072
0.163000000000000006,54.944465938866073884
0.164000000000000007,52.507623574675150735
0.165000000000000008,50.114262571954562020
0.166000000000000009,47.762358099051098748
0.167000000000000010,45.452819032404249810
0.168000000000000010,43.188489636680358785
0.169000000000000011,40.973182922872346978
0.170000000000000012,38.810857436514538676
0.171000000000000013,36.704991008141305997
0.172000000000000014,34.658163289881727565
0.173000000000000015,32.671831781177488097
0.174000000000000016,30.746270644305589315
0.175000000000000017,28.880634940536015876
0.176000000000000018,27.073112293464145495
0.177000000000000018,25.321127191871759976
0.178000000000000019,23.621568469908250876
0.179000000000000020,21.971016703078504406
0.180000000000000021,20.365954485124060369
0.181000000000000022,18.802948268919749353
0.182000000000000023,17.278795368010158029
0.183000000000000024,15.790633700206274881
0.184000000000000025,14.336014903622537275
0.185000000000000026,12.912943635643753026
0.186000000000000026,11.519887285448255909
0.187000000000000027,10.155761118471092530
0.188000000000000028,8.819894156985606415
0.189000000000000029,7.511981007865450977
0.190000000000000030,6.232024486281224185
0.191000000000000031,4.980273346098834431
0.192000000000000032,3.757158790617073585
0.193000000000000033,2.563232761199049747
0.194000000000000034,1.399110331634146664
0.195000000000000034,0.265417905051560210
0.196000000000000035,-0.837251660652822194
0.197000000000000036,-1.908376371025626739
0.198000000000000037,-2.947534648762068610
0.199000000000000038,-3.954427255679367370
0.200000000000000039,-4.928891981223003427
0.201000000000000040,-5.870911691809707733
0.202000000000000041,-6.780616469433757842
0.203000000000000042,-7.658280648518045908
0.204000000000000042,-8.504315595547613071
0.205000000000000043,-9.319259074927604303
0.206000000000000044,-10.103762014599897867
0.207000000000000045,-10.858573433352967541
0.208000000000000046,-11.584524224775512025
0.209000000000000047,-12.282510415873789000
0.210000000000000048,-12.953476436072454803
0.211000000000000049,-13.598398848398437266
0.212000000000000050,-14.218270912095587022
0.213000000000000050,-14.814088267024072110
0.214000000000000051,-15.386835956651918167
0.215000000000000052,-15.937476939401983955
0.216000000000000053,-16.466942178290643994
0.217000000000000054,-16.976122346531592910
0.218000000000000055,-17.465861142129913475
0.219000000000000056,-17.936950167274932966
0.220000000000000057,-18.390125298203436444
0.221000000000000058,-18.826064447655692646
0.222000000000000058,-19.245386604527435992
0.223000000000000059,-19.648652023201996997
0.224000000000000060,-20.036363427693064665
0.225000000000000061,-20.408968092495889834
0.226000000000000062,-20.766860662307120577
0.227000000000000063,-21.110386575939877218
0.228000000000000064,-21.439845965272947836
0.229000000000000065,-21.755497907426239124
0.230000000000000066,-22.057564917086143197
0.231000000000000066,-22.346237575609599446
0.232000000000000067,-22.621679203854572648
0.233000000000000068,-22.884030496311606129
0.234000000000000069,-23.133414044785034491
0.235000000000000070,-23.369938690376653057
0.236000000000000071,-23.593703652684052230
0.237000000000000072,-23.804802394802187848
0.238000000000000073,-24.003326191803232348
0.239000000000000073,-24.189367378790343821
0.240000000000000074,-24.363022262326367695
0.241000000000000075,-24.524393685997150527
0.242000000000000076,-24.673593247072354018
0.243000000000000077,-24.810743166679507965
0.244000000000000078,-24.935977820627016399
0.245000000000000079,-25.049444942026074301
0.246000000000000080,-25.151306510207348310
0.247000000000000081,-25.241739343145940921
0.248000000000000081,-25.320935412743683202
0.249000000000000082,-25.389101903919204517
0.250000000000000111,-25.446461039573698315
0.251000000000000112,-25.493249694181614018
0.252000000000000113,-25.529718819052970247
0.253000000000000114,-25.556132702270264900
0.254000000000000115,-25.572768085969830310
0.255000000000000115,-25.579913163052303560
0.256000000000000116,-25.577866474614850745
0.257000000000000117,-25.566935728434081909
0.258000000000000118,-25.547436557728712359
0.259000000000000119,-25.519691238226680952
0.260000000000000120,-25.484027380281940367
0.261000000000000121,-25.440776611454758438
0.262000000000000122,-25.390273263612236576
0.263000000000000123,-25.332853077239356310
0.264000000000000123,-25.268851934295135209
0.265000000000000124,-25.198604629616017547
0.266000000000000125,-25.122443689573970005
0.267000000000000126,-25.040698245447774895
0.268000000000000127,-24.953692967773594802
0.269000000000000128,-24.861747066809421369
0.270000000000000129,-24.765173363183805577
0.271000000000000130,-24.664277431805075480
0.272000000000000131,-24.559356821186177910
0.273000000000000131,-24.450700349491789609
0.274000000000000132,-24.338587477840849971
0.275000000000000133,-24.223287760696674553
0.276000000000000134,-24.105060372547505665
0.277000000000000135,-23.984153709521049080
0.278000000000000136,-23.860805064084555482
0.279000000000000137,-23.735240370554116396
0.280000000000000138,-23.607674018770559599
0.281000000000000139,-23.478308732990662122
0.282000000000000139,-23.347335512788106371
0.283000000000000140,-23.214933632554977549
0.284000000000000141,-23.081270696037776702
0.285000000000000142,-22.946502742228510385
0.286000000000000143,-22.810774398857411427
0.287000000000000144,-22.674219079695635770
0.288000000000000145,-22.536959221871093462
0.289000000000000146,-22.399106559423579199
0.290000000000000147,-22.260762429375056115
0.291000000000000147,-22.122018106662483916
0.292000000000000148,-21.982955164372938839
0.293000000000000149,-21.843645855828910385
0.294000000000000150,-21.704153515195336865
0.295000000000000151,-21.564532973414880956
0.296000000000000152,-21.424830986422954027
0.297000000000000153,-21.285086672746711400
0.298000000000000154,-21.145331957750531870
0.299000000000000155,-21.005592021953145121
0.300000000000000155,-20.865885751006469917
0.301000000000000156,-20.726226185092251342
0.302000000000000157,-20.586620965658699589
0.303000000000000158,-20.447072777583422010
0.304000000000000159,-20.307579785011984796
0.305000000000000160,-20.168136059279497374
0.306000000000000161,-20.028731997478736560
0.307000000000000162,-19.889354730388379977
0.308000000000000163,-19.749988518620323674
0.309000000000000163,-19.610615135985586477
0.310000000000000164,-19.471214239211455777
0.311000000000000165,-19.331763723271240707
0.312000000000000166,-19.192240061708666587
0.313000000000000167,-19.052618631454368625
0.314000000000000168,-18.912874021739888519
0.315000000000000169,-18.772980326816217200
0.316000000000000170,-18.632911422279036628
0.317000000000000171,-18.492641224890885354
0.318000000000000171,-18.352143935872600622
0.319000000000000172,-18.211394267711646933
0.320000000000000173,-18.070367654604428509
0.321000000000000174,-17.929040446712679824
0.322000000000000175,-17.787390088471525473
0.323000000000000176,-17.645395281238602792
0.324000000000000177,-17.503036130619733513
0.325000000000000178,-17.360294278847867133
0.326000000000000179,-17.217153022628441050
0.327000000000000179,-17.073597416895317735
0.328000000000000180,-16.929614364948797345
0.329000000000000181,-16.785192695470289692
0.330000000000000182,-16.640323226926376776
0.331000000000000183,-16.494998819891073083
0.332000000000000184,-16.349214417826132717
0.333000000000000185,-16.202967076868183938
0.334000000000000186,-16.056255985176790091
0.335000000000000187,-15.909082472400262631
0.336000000000000187,-15.761450009816680762
0.337000000000000188,-15.613364201704737155
0.338000000000000189,-15.464832768495611504
0.339000000000000190,-15.315865522250444286
0.340000000000000191,-15.166474334999971774
0.341000000000000192,-15.016673100474269731
0.342000000000000193,-14.866477689738440304
0.343000000000000194,-14.715905901239386466
0.344000000000000195,-14.564977405754612860
0.345000000000000195,-14.413713686720631912
0.346000000000000196,-14.262137976403362671
0.347000000000000197,-14.110275188357539022
0.348000000000000198,-13.958151846606096314
0.349000000000000199,-13.805796011953935576
0.350000000000000200,-13.653237205833761436
0.351000000000000201,-13.500506332064450277
0.352000000000000202,-13.347635596885444542
0.353000000000000203,-13.194658427613120466
0.354000000000000203,-13.041609390248002143
0.355000000000000204,-12.888524106344297238
0.356000000000000205,-12.735439169436364892
0.357000000000000206,-12.582392061299698227
0.358000000000000207,-12.429421068307219045
0.359000000000000208,-12.276565198125656053
0.360000000000000209,-12.123864096980357274
0.361000000000000210,-11.971357967701427683
0.362000000000000210,-11.819087488748593273
0.363000000000000211,-11.667093734397401050
0.364000000000000212,-11.515418096254851577
0.365000000000000213,-11.364102206258461791
0.366000000000000214,-11.213187861299328318
0.367000000000000215,-11.062716949596527627
0.368000000000000216,-10.912731378937731819
0.369000000000000217,-10.763273006888692152
0.370000000000000218,-10.614383573062768917
0.371000000000000218,-10.466104633530427748
0.372000000000000219,-10.318477497438163226
0.373000000000000220,-10.171543165896089533
0.374000000000000221,-10.025342273183950326
0.375000000000000222,-9.879915030316068325
0.376000000000000223,-9.735301170997077591
0.377000000000000224,-9.591539899992357121
0.378000000000000225,-9.448669843929049961
0.379000000000000226,-9.306729004536606453
0.380000000000000226,-9.165754714328830488
0.381000000000000227,-9.025783594723012726
0.382000000000000228,-8.886851516585988264
0.383000000000000229,-8.748993563191289624
0.384000000000000230,-8.612243995566302601
0.385000000000000231,-8.476636220203989325
0.386000000000000232,-8.342202759108955590
0.387000000000000233,-8.208975222143793715
0.388000000000000234,-8.076984281638035057
0.389000000000000234,-7.946259649218630372
0.390000000000000235,-7.816830054817692996
0.391000000000000236,-7.688723227810973171
0.392000000000000237,-7.561965880237472959
0.393000000000000238,-7.436583692049088867
0.394000000000000239,-7.312601298336756095
0.395000000000000240,-7.190042278478307125
0.396000000000000241,-7.068929147151631120
0.397000000000000242,-6.949283347155606805
0.398000000000000242,-6.831125243980372019
0.399000000000000243,-6.714474122067683126
0.400000000000000244,-6.599348182701372245
0.401000000000000245,-6.485764543467974264
0.402000000000000246,-6.373739239226837050
0.403000000000000247,-6.263287224529167752
0.404000000000000248,-6.154422377425748714
0.405000000000000249,-6.047157504602854949
0.406000000000000250,-5.941504347786570328
0.407000000000000250,-5.837473591355960778
0.408000000000000251,-5.735074871106161432
0.409000000000000252,-5.634316784103210907
0.410000000000000253,-5.535206899572918893
0.411000000000000254,-5.437751770767249582
0.412000000000000255,-5.341956947752278140
0.413000000000000256,-5.247826991063036850
0.414000000000000257,-5.155365486171254119
0.415000000000000258,-5.064575058713499445
0.416000000000000258,-4.975457390428014826
0.417000000000000259,-4.888013235749886221
0.418000000000000260,-4.802242439015432574
0.419000000000000261,-4.718143952227780602
0.420000000000000262,-4.635715853337085690
0.421000000000000263,-4.554955364990034283
0.422000000000000264,-4.475858873704537721
0.423000000000000265,-4.398421949426960964
0.424000000000000266,-4.322639365430606340
0.425000000000000266,-4.248505118515312873
0.426000000000000267,-4.176012449469610033
0.427000000000000268,-4.105153863758114419
0.428000000000000269,-4.035921152398205258
0.429000000000000270,-3.968305412991365078
0.430000000000000271,-3.902297070875945906
0.431000000000000272,-3.837885900369376380
0.432000000000000273,-3.775061046069196458
0.433000000000000274,-3.713811044183590759
0.434000000000000274,-3.654123843863342103
0.435000000000000275,-3.595986828508420441
0.436000000000000276,-3.539386837023691612
0.437000000000000277,-3.484310184999344528
0.438000000000000278,-3.430742685792986357
0.439000000000000279,-3.378669671491432158
0.440000000000000280,-3.328076013731366523
0.441000000000000281,-3.278946144359236481
0.442000000000000282,-3.231264075911844280
0.443000000000000282,-3.185013421900050989
0.444000000000000283,-3.140177416879278205
0.445000000000000284,-3.096738936291330457
0.446000000000000285,-3.054680516063049911
0.447000000000000286,-3.013984371948532193
0.448000000000000287,-2.974632418602181527
0.449000000000000288,-2.936606288371160112
0.450000000000000289,-2.899887349796437697
0.451000000000000290,-2.864456725812595028
0.452000000000000290,-2.830295311637329281
0.453000000000000291,-2.797383792342456044
0.454000000000000292,-2.765702660098926291
0.455000000000000293,-2.735232231089109067
0.456000000000000294,-2.705952662080393534
0.457000000000000295,-2.677843966654720909
0.458000000000000296,-2.650886031089472183
0.459000000000000297,-2.625058629885633987
0.460000000000000298,-2.600341440939884841
0.461000000000000298,-2.576714060357723213
0.462000000000000299,-2.554156016905488435
0.463000000000000300,-2.532646786099411518
0.464000000000000301,-2.512165803930621610
0.465000000000000302,-2.492692480225303875
0.466000000000000303,-2.474206211639812913
0.467000000000000304,-2.456686394290842124
0.468000000000000305,-2.440112436021409259
0.469000000000000306,-2.424463768303520617
0.470000000000000306,-2.409719857779007324
0.471000000000000307,-2.395860217440223039
0.472000000000000308,-2.382864417452754680
0.473000000000000309,-2.370712095622494964
0.474000000000000310,-2.359382967509807916
0.475000000000000311,-2.348856836193827569
0.476000000000000312,-2.339113601690088196
0.477000000000000313,-2.330133270025021908
0.478000000000000314,-2.321895961971065514
0.479000000000000314,-2.314381921446353463
0.480000000000000315,-2.307571523583098916
0.481000000000000316,-2.301445282469098519
0.482000000000000317,-2.295983858566770675
0.483000000000000318,-2.291168065814511046
0.484000000000000319,-2.286978878415072192
0.485000000000000320,-2.283397437316042389
0.486000000000000321,-2.280405056387382334
0.487000000000000322,-2.277983228301270646
0.488000000000000322,-2.276113630119501519
0.489000000000000323,-2.274778128593799131
0.490000000000000324,-2.273958785184492015
0.491000000000000325,-2.273637860803060740
0.492000000000000326,-2.273797820284062077
0.493000000000000327,-2.274421336592095777
0.494000000000000328,-2.275491294769417028
0.495000000000000329,-2.276990795629873165
0.496000000000000330,-2.278903159204852535
0.497000000000000330,-2.281211927946947604
0.498000000000000331,-2.283900869697068181
0.499000000000000332,-2.286953980420655341
0.500000000000000333,-2.290355486718770539
0.501000000000000334,-2.294089848119717168
0.502000000000000335,-2.298141759156842490
0.503000000000000336,-2.302496151238230038
0.504000000000000337,-2.307138194313842483
0.505000000000000338,-2.312053298345733587
0.506000000000000338,-2.317227114586869696
0.507000000000000339,-2.322645536674046163
0.508000000000000340,-2.328294701540407630
0.509000000000000341,-2.334160990152893245
0.510000000000000342,-2.340231028080057119
0.511000000000000343,-2.346491685895469637
0.512000000000000344,-2.352930079422009157
0.513000000000000345,-2.359533569822142685
0.514000000000000346,-2.366289763539381585
0.515000000000000346,-2.373186512095875944
0.516000000000000347,-2.380211911751146658
0.517000000000000348,-2.387354303026873126
0.518000000000000349,-2.394602270102511365
0.519000000000000350,-2.401944640086489891
0.520000000000000351,-2.409370482167733751
0.521000000000000352,-2.416869106651970966
0.522000000000000353,-2.424430063887434983
0.523000000000000353,-2.432043143084366754
0.524000000000000354,-2.439698371032624991
0.525000000000000355,-2.447386010721741556
0.526000000000000356,-2.455096559867525396
0.527000000000000357,-2.462820749349365457
0.528000000000000358,-2.470549541562272022
0.529000000000000359,-2.478274128687480538
0.530000000000000360,-2.485985930885607598
0.531000000000000361,-2.493676594416015302
0.532000000000000361,-2.501337989686121865
0.533000000000000362,-2.508962209234223639
0.534000000000000363,-2.516541565649373258
0.535000000000000364,-2.524068589431709420
0.536000000000000365,-2.531536026796617822
0.537000000000000366,-2.538936837425962434
0.538000000000000367,-2.546264192169590324
0.539000000000000368,-2.553511470700204899
0.540000000000000369,-2.560672259124619821
0.541000000000000369,-2.567740347554351210
0.542000000000000370,-2.574709727638414769
0.543000000000000371,-2.581574590061070928
0.544000000000000372,-2.588329322007299815
0.545000000000000373,-2.594968504598546222
0.546000000000000374,-2.601486910301382238
0.547000000000000375,-2.607879500311473198
0.548000000000000376,-2.614141421915351593
0.549000000000000377,-2.620268005832245173
0.550000000000000377,-2.626254763538272918
0.551000000000000378,-2.632097384575188492
0.552000000000000379,-2.637791733845784581
0.553000000000000380,-2.643333848898019589
0.554000000000000381,-2.648719937199853547
0.555000000000000382,-2.653946373406706360
0.556000000000000383,-2.659009696623395591
0.557000000000000384,-2.663906607662345660
0.558000000000000385,-2.668633966299799098
0.559000000000000385,-2.673188788531703608
0.560000000000000386,-2.677568243830830141
0.561000000000000387,-2.681769652406765125
0.562000000000000388,-2.685790482470165941
0.563000000000000389,-2.689628347502778904
0.564000000000000390,-2.693281003534548468
0.565000000000000391,-2.696746346429187202
0.566000000000000392,-2.700022409179431371
0.567000000000000393,-2.703107359213227312
0.568000000000000393,-2.705999495711975733
0.569000000000000394,-2.708697246942012971
0.570000000000000395,-2.711199167600326643
0.571000000000000396,-2.713503936175560405
0.572000000000000397,-2.715610352325277255
0.573000000000000398,-2.717517334270405094
0.574000000000000399,-2.719223916207734071
0.575000000000000400,-2.720729245741335234
0.576000000000000401,-2.722032581333647894
0.577000000000000401,-2.723133289777058152
0.578000000000000402,-2.724030843686622738
0.579000000000000403,-2.724724819014652244
0.580000000000000404,-2.725214892587778603
0.581000000000000405,-2.725500839667124087
0.582000000000000406,-2.725582531532106945
0.583000000000000407,-2.725459933088465458
0.584000000000000408,-2.725133100500952477
0.585000000000000409,-2.724602178851180945
0.586000000000000409,-2.723867399821075175
0.587000000000000410,-2.722929079402308439
0.588000000000000411,-2.721787615632092816
0.589000000000000412,-2.720443486355696994
0.590000000000000413,-2.718897247015971352
0.591000000000000414,-2.717149528470202746
0.592000000000000415,-2.715201034834529459
0.593000000000000416,-2.713052541356175240
0.594000000000000417,-2.710704892313712921
0.595000000000000417,-2.708158998945527252
0.596000000000000418,-2.705415837406660806
0.597000000000000419,-2.702476446754182415
0.598000000000000420,-2.699341926961186022
0.599000000000000421,-2.696013436959535436
0.600000000000000422,-2.692492192711428700
0.601000000000000423,-2.688779465309838024
0.602000000000000424,-2.684876579107868366
0.603000000000000425,-2.680784909877083955
0.604000000000000425,-2.676505882994750785
0.605000000000000426,-2.672040971660054165
0.606000000000000427,-2.667391695139216701
0.607000000000000428,-2.662559617039486959
0.608000000000000429,-2.657546343611966400
0.609000000000000430,-2.652353522083149340
