# Ag322_ASNSCA-JS
# h[nm],U(h)[kJ/mol]
0.149999999999999994,98.517595446796491387
0.150999999999999995,95.764682702021232785
0.151999999999999996,92.692817939826937845
0.152999999999999997,89.558810671731720277
0.153999999999999998,86.497015971063547113
0.154999999999999999,83.562534249688269483
0.156000000000000000,80.764115020821662938
0.157000000000000001,78.087257502765936579
0.158000000000000002,75.509146213018908611
0.159000000000000002,73.007363727404921860
0.160000000000000003,70.564201610749165638
0.161000000000000004,68.168087338171261536
0.162000000000000005,65.813294864520727856
0.163000000000000006,63.498778421127383353
0.164000000000000007,61.226693227059300284
0.165000000000000008,59.000951284387227247
0.166000000000000009,56.826002053102726563
0.167000000000000010,54.705918192780394804
0.168000000000000010,52.643795772121009691
0.169000000000000011,50.641436789391853779
0.170000000000000012,48.699261169905945223
0.171000000000000013,46.816388824361112597
0.172000000000000014,44.990834626666639906
0.173000000000000015,43.219766443900240915
0.174000000000000016,41.499785913806285009
0.175000000000000017,39.827201713787630410
0.176000000000000018,38.198274484346420365
0.177000000000000018,36.609420744457395358
0.178000000000000019,35.057369800045734110
0.179000000000000020,33.539272763726160065
0.180000000000000021,32.052766480325935561
0.181000000000000022,30.595997572399834752
0.182000000000000023,29.167613200241284233
0.183000000000000024,27.766725692940816828
0.184000000000000025,26.392858157601143176
0.185000000000000026,25.045877695135128960
0.186000000000000026,23.725922096409583162
0.187000000000000027,22.433324985422807174
0.188000000000000028,21.168543412239905877
0.189000000000000029,19.932090948033383881
0.190000000000000030,18.724478446829749601
0.191000000000000031,17.546163844830438450
0.192000000000000032,16.397511685792995451
0.193000000000000033,15.278762496490523759
0.194000000000000034,14.190011688364752018
0.195000000000000034,13.131197323274054867
0.196000000000000035,12.102095842280373716
0.197000000000000036,11.102324704256124832
0.198000000000000037,10.131350802429153646
0.199000000000000038,9.188503508554966004
0.200000000000000039,8.272991223591418475
0.201000000000000040,7.383920378977554044
0.202000000000000041,6.520315923597666874
0.203000000000000042,5.681142439352306894
0.204000000000000042,4.865325145476314006
0.205000000000000043,4.071770172226748308
0.206000000000000044,3.299383603454248970
0.207000000000000045,2.547088901168963027
0.208000000000000046,1.813842430813937368
0.209000000000000047,1.098646901734117831
0.210000000000000048,0.400562622169983507
0.211000000000000049,-0.281283458496039807
0.212000000000000050,-0.947690885593659771
0.213000000000000050,-1.599380927695198462
0.214000000000000051,-2.236993772161229632
0.215000000000000052,-2.861087531538795581
0.216000000000000053,-3.472138882960865036
0.217000000000000054,-4.070545148826295367
0.218000000000000055,-4.656627619970663545
0.219000000000000056,-5.230635921262893007
0.220000000000000057,-5.792753223115873595
0.221000000000000058,-6.343102109863226090
0.222000000000000058,-6.881750926499016430
0.223000000000000059,-7.408720438131592978
0.224000000000000060,-7.923990650997717822
0.225000000000000061,-8.427507659421593189
0.226000000000000062,-8.919190399175949580
0.227000000000000063,-9.398937203878951152
0.228000000000000064,-9.866632076982631006
0.229000000000000065,-10.322150607290248914
0.230000000000000066,-10.765365470551905958
0.231000000000000066,-11.196151473362792927
0.232000000000000067,-11.614390108202062635
0.233000000000000068,-12.019973599925785734
0.234000000000000069,-12.412808434320401929
0.235000000000000070,-12.792818368422476993
0.236000000000000071,-13.159946930228818118
0.237000000000000072,-13.514159422193307236
0.238000000000000073,-13.855444448580957584
0.239000000000000073,-14.183814991388342008
0.240000000000000074,-14.499309063215857662
0.241000000000000075,-14.801989968263573161
0.242000000000000076,-15.091946204603170045
0.243000000000000077,-15.369291042132919856
0.244000000000000078,-15.634161811233070694
0.245000000000000079,-15.886718937183868405
0.246000000000000080,-16.127144754965186735
0.247000000000000081,-16.355642138198341229
0.248000000000000081,-16.572432974784170767
0.249000000000000082,-16.777756520301629450
0.250000000000000111,-16.971867658516863742
0.251000000000000112,-17.155035096465418576
0.252000000000000113,-17.327539519560801295
0.253000000000000114,-17.489671730090002200
0.254000000000000115,-17.641730790323702394
0.255000000000000115,-17.784022189323486884
0.256000000000000116,-17.916856050403428213
0.257000000000000117,-18.040545394120321987
0.258000000000000118,-18.155404469646786225
0.259000000000000119,-18.261747165441374108
0.260000000000000120,-18.359885508283035449
0.261000000000000121,-18.450128257992496117
0.262000000000000122,-18.532779603530663337
0.263000000000000123,-18.608137964646203955
0.264000000000000123,-18.676494901846755425
0.265000000000000124,-18.738134136189394496
0.266000000000000125,-18.793330679228297697
0.267000000000000126,-18.842350072416518714
0.268000000000000127,-18.885447734334150027
0.269000000000000128,-18.922868413300783175
0.270000000000000129,-18.954845742223305649
0.271000000000000130,-18.981601891924302805
0.272000000000000131,-19.003347318686852674
0.273000000000000131,-19.020280601331744919
0.274000000000000132,-19.032588362807310034
0.275000000000000133,-19.040445271014167616
0.276000000000000134,-19.044014113400201893
0.277000000000000135,-19.043445939739356731
0.278000000000000136,-19.038880267445474459
0.279000000000000137,-19.030445343762533383
0.280000000000000138,-19.018258459210734657
0.281000000000000139,-19.002426306747246088
0.282000000000000139,-18.983045381217053205
0.283000000000000140,-18.960202413817015099
0.284000000000000141,-18.933974836471335834
0.285000000000000142,-18.904431271214505728
0.286000000000000143,-18.871632039893846411
0.287000000000000144,-18.835629689735121417
0.288000000000000145,-18.796469530557637029
0.289000000000000146,-18.754190179676008654
0.290000000000000147,-18.708824110782757089
0.291000000000000147,-18.660398203365229364
0.292000000000000148,-18.608934289470965950
0.293000000000000149,-18.554449694894280753
0.294000000000000150,-18.496957772112747165
0.295000000000000151,-18.436468422553620172
0.296000000000000152,-18.372988606014676094
0.297000000000000153,-18.306522835302541097
0.298000000000000154,-18.237073654380544951
0.299000000000000155,-18.164642098539093951
0.300000000000000155,-18.089228135312623635
0.301000000000000156,-18.010831085067888324
0.302000000000000157,-17.929450020378851605
0.303000000000000158,-17.845084143482903727
0.304000000000000159,-17.757733141282308509
0.305000000000000160,-17.667397517511719940
0.306000000000000161,-17.574078901840273659
0.307000000000000162,-17.477780335812372670
0.308000000000000163,-17.378506535656363496
0.309000000000000163,-17.276264132105847438
0.310000000000000164,-17.171061887482512276
0.311000000000000165,-17.062910890384426210
0.312000000000000166,-16.951824728409285115
0.313000000000000167,-16.837819639417979545
0.314000000000000168,-16.720914641911548415
0.315000000000000169,-16.601131645153401450
0.316000000000000170,-16.478495539720388052
0.317000000000000171,-16.353034269209189233
0.318000000000000171,-16.224778883861826984
0.319000000000000172,-16.093763576903526769
0.320000000000000173,-15.960025704410233161
0.321000000000000174,-15.823605789540653888
0.322000000000000175,-15.684547511980671430
0.323000000000000176,-15.542897683455169755
0.324000000000000177,-15.398706210165570951
0.325000000000000178,-15.252026043009882628
0.326000000000000179,-15.102913116437505892
0.327000000000000179,-14.951426276781967672
0.328000000000000180,-14.797627200903392009
0.329000000000000181,-14.641580305958390440
0.330000000000000182,-14.483352651097172625
0.331000000000000183,-14.323013831869692680
0.332000000000000184,-14.160635868100570178
0.333000000000000185,-13.996293085970339831
0.334000000000000186,-13.830061995016194487
0.335000000000000187,-13.662021160740039250
0.336000000000000187,-13.492251073485359569
0.337000000000000188,-13.320834014217146191
0.338000000000000189,-13.147853917811669788
0.339000000000000190,-12.973396234434492413
0.340000000000000191,-12.797547789556666942
0.341000000000000192,-12.620396643131035930
0.342000000000000193,-12.442031948421188758
0.343000000000000194,-12.262543810948196565
0.344000000000000195,-12.082023147991311163
0.345000000000000195,-11.900561549051570154
0.346000000000000196,-11.718251137659597916
0.347000000000000197,-11.535184434882030047
0.348000000000000198,-11.351454224854990116
0.349000000000000199,-11.167153422646899585
0.350000000000000200,-10.982374944728531929
0.351000000000000201,-10.797211582303367194
0.352000000000000202,-10.611755877728370479
0.353000000000000203,-10.426100004232376151
0.354000000000000203,-10.240335649117358940
0.355000000000000204,-10.054553900607126948
0.356000000000000205,-9.868845138487589708
0.357000000000000206,-9.683298928663642613
0.358000000000000207,-9.498003921739135436
0.359000000000000208,-9.313047755709090936
0.360000000000000209,-9.128516962836428661
0.361000000000000210,-8.944496880769889913
0.362000000000000210,-8.761071567944659577
0.363000000000000211,-8.578323723293340919
0.364000000000000212,-8.396334610281501298
0.365000000000000213,-8.215183985269579381
0.366000000000000214,-8.034950030191341241
0.367000000000000215,-7.855709289528123307
0.368000000000000216,-7.677536611548016587
0.369000000000000217,-7.500505093769753273
0.370000000000000218,-7.324686032602377495
0.371000000000000218,-7.150148877103720046
0.372000000000000219,-6.976961186793539937
0.373000000000000220,-6.805188593450270496
0.374000000000000221,-6.634894766814577238
0.375000000000000222,-6.466141384117041646
0.376000000000000223,-6.298988103342720635
0.377000000000000224,-6.133492540140808913
0.378000000000000225,-5.969710248283766063
0.379000000000000226,-5.807694703576960826
0.380000000000000226,-5.647497291117003826
0.381000000000000227,-5.489167295794330492
0.382000000000000228,-5.332751895933826702
0.383000000000000229,-5.178296159965444012
0.384000000000000230,-5.025843046015451954
0.385000000000000231,-4.875433404308349594
0.386000000000000232,-4.727105982268542839
0.387000000000000233,-4.580897432210790043
0.388000000000000234,-4.436842321508383868
0.389000000000000234,-4.294973145128442304
0.390000000000000235,-4.155320340423908299
0.391000000000000236,-4.017912304073098184
0.392000000000000237,-3.882775411058031700
0.393000000000000238,-3.749934035574528313
0.394000000000000239,-3.619410573767992467
0.395000000000000240,-3.491225468190510384
0.396000000000000241,-3.365397233876572525
0.397000000000000242,-3.241942485936398555
0.398000000000000242,-3.120875968567973668
0.399000000000000243,-3.002210585390805431
0.400000000000000244,-2.885957431006402896
0.401000000000000245,-2.772125823693203817
0.402000000000000246,-2.660723339145363742
0.403000000000000247,-2.551755845167495540
0.404000000000000248,-2.445227537239937909
0.405000000000000249,-2.341140974871348757
0.406000000000000250,-2.239497118658069219
0.407000000000000250,-2.140295367972210983
0.408000000000000251,-2.043533599202846052
0.409000000000000252,-1.949208204477464790
0.410000000000000253,-1.857314130793084050
0.411000000000000254,-1.767844919489330424
0.412000000000000255,-1.680792745998042736
0.413000000000000256,-1.596148459806721265
0.414000000000000257,-1.513901624575463734
0.415000000000000258,-1.434040558349761518
0.416000000000000258,-1.356552373813772583
0.417000000000000259,-1.281423018531327784
0.418000000000000260,-1.208637315124231559
0.419000000000000261,-1.138179001339776120
0.420000000000000262,-1.070030769961882955
0.421000000000000263,-1.004174308522393089
0.422000000000000264,-0.940590338771415291
0.423000000000000265,-0.879258655867718120
0.424000000000000266,-0.820158167252576176
0.425000000000000266,-0.763266931172208896
0.426000000000000267,-0.708562194816347635
0.427000000000000268,-0.656020432042320634
0.428000000000000269,-0.605617380655999904
0.429000000000000270,-0.557328079222920936
0.430000000000000271,-0.511126903384691245
0.431000000000000272,-0.466987601657600393
0.432000000000000273,-0.424883330692114203
0.433000000000000274,-0.384786689973586227
0.434000000000000274,-0.346669755946188318
0.435000000000000275,-0.310504115543600578
0.436000000000000276,-0.276260899111556102
0.437000000000000277,-0.243910812708778735
0.438000000000000278,-0.213424169774284911
0.439000000000000279,-0.184770922150386541
0.440000000000000280,-0.157920690452018814
0.441000000000000281,-0.132842793774251872
0.442000000000000282,-0.109506278731194714
0.443000000000000282,-0.087879947820368690
0.444000000000000283,-0.067932387108109199
0.445000000000000284,-0.049631993232278224
0.446000000000000285,-0.032946999719704051
0.447000000000000286,-0.017845502616885452
0.448000000000000287,-0.004295485433074744
0.449000000000000288,0.007735156603924617
0.450000000000000289,0.018278592978326177
0.451000000000000290,0.027367035001467432
0.452000000000000290,0.035032713608926104
0.453000000000000291,0.041307857836406746
0.454000000000000292,0.046224673970464786
0.455000000000000293,0.049815325369580180
0.456000000000000294,0.052111912950396133
0.457000000000000295,0.053146456333534750
0.458000000000000296,0.052950875642675942
0.459000000000000297,0.051556973950355009
0.460000000000000298,0.048996420363209697
0.461000000000000298,0.045300733739274443
0.462000000000000299,0.040501267029221445
0.463000000000000300,0.034629192233391760
0.464000000000000301,0.027715485965881990
0.465000000000000302,0.019790915616813558
0.466000000000000303,0.010886026103499933
0.467000000000000304,0.001031127201163440
0.468000000000000305,-0.009743718556659370
0.469000000000000306,-0.021408707417787286
0.470000000000000306,-0.033934305401270307
0.471000000000000307,-0.047291258747750010
0.472000000000000308,-0.061450603840648578
0.473000000000000309,-0.076383676608708082
0.474000000000000310,-0.092062121420465992
0.475000000000000311,-0.108457899481451209
0.476000000000000312,-0.125543296744714539
0.477000000000000313,-0.143290931345649575
0.478000000000000314,-0.161673760571851510
0.479000000000000314,-0.180665087378955896
0.480000000000000315,-0.200238566463262796
0.481000000000000316,-0.220368209902096851
0.482000000000000317,-0.241028392372669570
0.483000000000000318,-0.262193855960340949
0.484000000000000319,-0.283839714566995860
0.485000000000000320,-0.305941457930321570
0.486000000000000321,-0.328474955264600688
0.487000000000000322,-0.351416458533634679
0.488000000000000322,-0.374742605366332637
0.489000000000000323,-0.398430421625324160
0.490000000000000324,-0.422457323639013116
0.491000000000000325,-0.446801120107229388
0.492000000000000326,-0.471440013690629267
0.493000000000000327,-0.496352602293816780
0.494000000000000328,-0.521517880052112637
0.495000000000000329,-0.546915238031661421
0.496000000000000330,-0.572524464652557241
0.497000000000000330,-0.598325745844420998
0.498000000000000331,-0.624299664943837707
0.499000000000000332,-0.650427202342754529
0.500000000000000333,-0.676689734897016892
0.501000000000000334,-0.703069035103868756
0.502000000000000335,-0.729547270057186559
0.503000000000000336,-0.756107000189047640
0.504000000000000337,-0.782731177806101353
0.505000000000000338,-0.809403145428981730
0.506000000000000338,-0.836106633942924615
0.507000000000000339,-0.862825760567546007
0.508000000000000340,-0.889545026653584592
0.509000000000000341,-0.916249315314229706
0.510000000000000342,-0.942923888898555829
0.511000000000000343,-0.969554386314348093
0.512000000000000344,-0.996126820207484442
0.513000000000000345,-1.022627574004854711
0.514000000000000346,-1.049043398827693485
0.515000000000000346,-1.075361410281912455
0.516000000000000347,-1.101569085132007686
0.517000000000000348,-1.127654257864877607
0.518000000000000349,-1.153605117149720805
0.519000000000000350,-1.179410202200019020
0.520000000000000351,-1.205058399043587247
0.521000000000000352,-1.230538936706257136
0.522000000000000353,-1.255841383314865833
0.523000000000000353,-1.280955642124940841
0.524000000000000354,-1.305871947478292494
0.525000000000000355,-1.330580860695706580
0.526000000000000356,-1.355073265909605862
0.527000000000000357,-1.379340365841570160
0.528000000000000358,-1.403373677529402119
0.529000000000000359,-1.427165028008149150
0.530000000000000360,-1.450706549949643875
0.531000000000000361,-1.473990677264681581
0.532000000000000361,-1.497010140672040190
0.533000000000000362,-1.519757963238268506
0.534000000000000363,-1.542227455892147603
0.535000000000000364,-1.564412212917518641
0.536000000000000365,-1.586306107428093970
0.537000000000000366,-1.607903286827719214
0.538000000000000367,-1.629198168259440305
0.539000000000000368,-1.650185434046618882
0.540000000000000369,-1.670860027129206227
0.541000000000000369,-1.691217146498161572
0.542000000000000370,-1.711252242630942222
0.543000000000000371,-1.730961012930794851
0.544000000000000372,-1.750339397172575362
0.545000000000000373,-1.769383572957592410
0.546000000000000374,-1.788089951180004800
0.547000000000000375,-1.806455171507084456
0.548000000000000376,-1.824476097875638247
0.549000000000000377,-1.842149814006718955
0.550000000000000377,-1.859473618940731710
0.551000000000000378,-1.876445022594893874
0.552000000000000379,-1.893061741344934434
0.553000000000000380,-1.909321693632850980
0.554000000000000381,-1.925222995602425158
0.555000000000000382,-1.940763956764137266
0.556000000000000383,-1.955943075691024102
0.557000000000000384,-1.970759035746959764
0.558000000000000385,-1.985210700848756060
0.559000000000000385,-1.999297111263410143
0.560000000000000386,-2.013017479441711721
0.561000000000000387,-2.026371185889446647
0.562000000000000388,-2.039357775077256907
0.563000000000000389,-2.051976951390239723
0.564000000000000390,-2.064228575118206788
0.565000000000000391,-2.076112658487596185
0.566000000000000392,-2.087629361735832134
0.567000000000000393,-2.098778989228944347
0.568000000000000393,-2.109561985623189528
0.569000000000000394,-2.119978932071371336
0.570000000000000395,-2.130030542474455224
0.571000000000000396,-2.139717659779071912
0.572000000000000397,-2.149041252321459261
0.573000000000000398,-2.158002410218279543
0.574000000000000399,-2.166602341804757970
0.575000000000000400,-2.174842370120556811
0.576000000000000401,-2.182723929443670663
0.577000000000000401,-2.190248561872700339
0.578000000000000402,-2.197417913957722568
0.579000000000000403,-2.204233733379989069
0.580000000000000404,-2.210697865680641527
0.581000000000000405,-2.216812251038573489
0.582000000000000406,-2.222578921097563498
0.583000000000000407,-2.227999995842731451
0.584000000000000408,-2.233077680526400322
0.585000000000000409,-2.237814262643310848
0.586000000000000409,-2.242212108955248695
0.587000000000000410,-2.246273662564970852
0.588000000000000411,-2.250001440039380629
0.589000000000000412,-2.253398028581867329
0.590000000000000413,-2.256466083253638288
0.591000000000000414,-2.259208324243934474
0.592000000000000415,-2.261627534188938249
0.593000000000000416,-2.263726555539150365
0.594000000000000417,-2.265508287975078083
0.595000000000000417,-2.266975685870919133
0.596000000000000418,-2.268131755806051864
0.597000000000000419,-2.268979554124005649
0.598000000000000420,-2.269522184538653065
0.599000000000000421,-2.269762795787269916
0.600000000000000422,-2.269704579330194427
0.601000000000000423,-2.269350767096685040
0.602000000000000424,-2.268704629276653950
0.603000000000000425,-2.267769472157924682
0.604000000000000425,-2.266548636008570927
0.605000000000000426,-2.265045493004000488
0.606000000000000427,-2.263263445198373081
0.607000000000000428,-2.261205922539883506
0.608000000000000429,-2.258876380929579319
0.609000000000000430,-2.256278300323167674
0.610000000000000431,-2.253415182875477818
