# Ag322_GLUSCA-JS
# h[nm],U(h)[kJ/mol]
0.200000000000000011,73.159588653342467524
0.201000000000000012,70.644310868856251773
0.202000000000000013,68.801480352483579850
0.203000000000000014,67.284222174378584214
0.204000000000000015,65.892671397549705148
0.205000000000000016,64.521342241797782435
0.206000000000000016,63.123027082505394958
0.207000000000000017,61.684537300494412193
0.208000000000000018,60.210825960413274061
0.209000000000000019,58.714957859159881082
0.210000000000000020,57.212086655504393207
0.211000000000000021,55.716116495601760050
0.212000000000000022,54.238109180573054857
0.213000000000000023,52.785780118043746256
0.214000000000000024,51.363632112651295358
0.215000000000000024,49.973424652745535468
0.216000000000000025,48.614782361384641263
0.217000000000000026,47.285820804088572800
0.218000000000000027,45.983719281609531038
0.219000000000000028,44.705204902654088528
0.220000000000000029,43.446934857494603932
0.221000000000000030,42.205777913812291047
0.222000000000000031,40.979004324306259832
0.223000000000000032,39.764397468053346074
0.224000000000000032,38.560302016548369863
0.225000000000000033,37.365623201029436018
0.226000000000000034,36.179790549213997508
0.227000000000000035,35.002697731611604581
0.228000000000000036,33.834628228305675179
0.229000000000000037,32.676174601819489851
0.230000000000000038,31.528157365418429947
0.231000000000000039,30.391547837899604900
0.232000000000000040,29.267398006255326948
0.233000000000000040,28.156779281957955874
0.234000000000000041,27.060731124427668703
0.235000000000000042,25.980219796619245187
0.236000000000000043,24.916106987964337094
0.237000000000000044,23.869127662890395669
0.238000000000000045,22.839876242976032472
0.239000000000000046,21.828800083347267957
0.240000000000000047,20.836199137391233194
0.241000000000000048,19.862230699204712181
0.242000000000000048,18.906918154107465568
0.243000000000000049,17.970162740419816316
0.244000000000000050,17.051757419401930349
0.245000000000000051,16.151402055857332130
0.246000000000000052,15.268719222471947461
0.247000000000000053,14.403270051195656620
0.248000000000000054,13.554569661007846548
0.249000000000000055,12.722101790528927978
0.250000000000000056,11.905332354380833593
0.251000000000000056,11.103721722948346695
0.252000000000000057,10.316735595823351090
0.253000000000000058,9.543854399745359984
0.254000000000000059,8.784581192627776147
0.255000000000000060,8.038448096859953651
0.256000000000000061,7.305021318227167271
0.257000000000000062,6.583904832313788980
0.258000000000000063,5.874742839009823747
0.259000000000000064,5.177221098590871762
0.260000000000000064,4.491067270628322561
0.261000000000000065,3.816050380508826834
0.262000000000000066,3.151979538338733455
0.263000000000000067,2.498702032162166020
0.264000000000000068,1.856100912335835407
0.265000000000000069,1.224092177120013059
0.266000000000000070,0.602621661535998721
0.267000000000000071,-0.008338277292788909
0.268000000000000071,-0.608792194408533716
0.269000000000000072,-1.198725036490852158
0.270000000000000073,-1.778105601587291362
0.271000000000000074,-2.346889923385037768
0.272000000000000075,-2.905024533156789435
0.273000000000000076,-3.452449560873758205
0.274000000000000077,-3.989101644770560284
0.275000000000000078,-4.514916625815533102
0.276000000000000079,-5.029832010055143243
0.277000000000000079,-5.533789187652145003
0.278000000000000080,-6.026735402623248916
0.279000000000000081,-6.508625471823168418
0.280000000000000082,-6.979423255638215196
0.281000000000000083,-7.439102886179364660
0.282000000000000084,-7.887649761536403403
0.283000000000000085,-8.325061316913281217
0.284000000000000086,-8.751347585253240524
0.285000000000000087,-9.166531561321610511
0.286000000000000087,-9.570649384191179720
0.287000000000000088,-9.963750353709803775
0.288000000000000089,-10.345896796864309408
0.289000000000000090,-10.717163800029268828
0.290000000000000091,-11.077638822937856844
0.291000000000000092,-11.427421209873736885
0.292000000000000093,-11.766621613085186837
0.293000000000000094,-12.095361342797945170
0.294000000000000095,-12.413771657476488031
0.295000000000000095,-12.721993007179834834
0.296000000000000096,-13.020174241996951281
0.297000000000000097,-13.308471796649962826
0.298000000000000098,-13.587048861434178448
0.299000000000000099,-13.856074548739917063
0.300000000000000100,-14.115723063481382837
0.301000000000000101,-14.366172884855910041
0.302000000000000102,-14.607605965978189388
0.303000000000000103,-14.840206957089296935
0.304000000000000103,-15.064162457231059733
0.305000000000000104,-15.279660298510782113
0.306000000000000105,-15.486888866359953099
0.307000000000000106,-15.686036458516898762
0.308000000000000107,-15.877290684838524015
0.309000000000000108,-16.060837909470574658
0.310000000000000109,-16.236862736379890748
0.311000000000000110,-16.405547538773635807
0.312000000000000111,-16.567072032501549472
0.313000000000000111,-16.721612893152165924
0.314000000000000112,-16.869343416214789499
0.315000000000000113,-17.010433219381617675
0.316000000000000114,-17.145047985806861846
0.317000000000000115,-17.273349246920545852
0.318000000000000116,-17.395494203210368767
0.319000000000000117,-17.511635581233882419
0.320000000000000118,-17.621921525002541387
0.321000000000000119,-17.726495519786531929
0.322000000000000119,-17.825496346322296404
0.323000000000000120,-17.919058063360267852
0.324000000000000121,-18.007310016468377256
0.325000000000000122,-18.090376871001858206
0.326000000000000123,-18.168378667163089801
0.327000000000000124,-18.241430895102226373
0.328000000000000125,-18.309644588049557967
0.329000000000000126,-18.373126431521868085
0.330000000000000127,-18.431978886705568499
0.331000000000000127,-18.486300326188107590
0.332000000000000128,-18.536185180284196150
0.333000000000000129,-18.581724092283899097
0.334000000000000130,-18.623004081033617041
0.335000000000000131,-18.660108709348975253
0.336000000000000132,-18.693118256847387926
0.337000000000000133,-18.722109895878787711
0.338000000000000134,-18.747157869324070134
0.339000000000000135,-18.768333669120572438
0.340000000000000135,-18.785706214464308772
0.341000000000000136,-18.799342028725913423
0.342000000000000137,-18.809305414203734585
0.343000000000000138,-18.815658623920903381
0.344000000000000139,-18.818462029754591924
0.345000000000000140,-18.817774286263436068
0.346000000000000141,-18.813652489653989619
0.347000000000000142,-18.806152331398763522
0.348000000000000143,-18.795328246086409507
0.349000000000000143,-18.781233553148943827
0.350000000000000144,-18.763920592172016910
0.351000000000000145,-18.743440851551007142
0.352000000000000146,-18.719845090309902957
0.353000000000000147,-18.693183452949000412
0.354000000000000148,-18.663505577234708710
0.355000000000000149,-18.630860694886710149
0.356000000000000150,-18.595297725157756474
0.357000000000000151,-18.556865361337091969
0.358000000000000151,-18.515612150241402389
0.359000000000000152,-18.471586564786967699
0.360000000000000153,-18.424837069763398745
0.361000000000000154,-18.375412180953098584
0.362000000000000155,-18.323360517761919652
0.363000000000000156,-18.268730849545015360
0.364000000000000157,-18.211572135827637453
0.365000000000000158,-18.151933560635207243
0.366000000000000159,-18.089864561157646961
0.367000000000000159,-18.025414850983310089
0.368000000000000160,-17.958634438145178791
0.369000000000000161,-17.889573638227908248
0.370000000000000162,-17.818283082788582306
0.371000000000000163,-17.744813723347085954
0.372000000000000164,-17.669216831202639639
0.373000000000000165,-17.591543993334020968
0.374000000000000166,-17.511847104639137740
0.375000000000000167,-17.430178356767928705
0.376000000000000167,-17.346590223799168484
0.377000000000000168,-17.261135445008111589
0.378000000000000169,-17.173867004966670180
0.379000000000000170,-17.084838111213109357
0.380000000000000171,-16.994102169721458040
0.381000000000000172,-16.901712758395017744
0.382000000000000173,-16.807723598800777154
0.383000000000000174,-16.712188526354832874
0.384000000000000175,-16.615161459160667334
0.385000000000000175,-16.516696365694581772
0.386000000000000176,-16.416847231524617001
0.387000000000000177,-16.315668025240476879
0.388000000000000178,-16.213212663764561938
0.389000000000000179,-16.109534977204845063
0.390000000000000180,-16.004688673402718280
0.391000000000000181,-15.898727302320088128
0.392000000000000182,-15.791704220402058567
0.393000000000000183,-15.683672555042875274
0.394000000000000183,-15.574685169275113594
0.395000000000000184,-15.464794626793928245
0.396000000000000185,-15.354053157420214148
0.397000000000000186,-15.242512623099267799
0.398000000000000187,-15.130224484523676409
0.399000000000000188,-15.017239768462138372
0.400000000000000189,-14.903609035868864652
0.401000000000000190,-14.789382350841282943
0.402000000000000191,-14.674609250487449685
0.403000000000000191,-14.559338715757821348
0.404000000000000192,-14.443619143290428397
0.405000000000000193,-14.327498318312256842
0.406000000000000194,-14.211023388634277609
0.407000000000000195,-14.094240839772215423
0.408000000000000196,-13.977196471219880181
0.409000000000000197,-13.859935373897281252
0.410000000000000198,-13.742501908791041387
0.411000000000000199,-13.624939686800246363
0.412000000000000199,-13.507291549796823560
0.413000000000000200,-13.389599552905712798
0.414000000000000201,-13.271904948006428171
0.415000000000000202,-13.154248168454083512
0.416000000000000203,-13.036668815015101330
0.417000000000000204,-12.919205643009444628
0.418000000000000205,-12.801896550648814710
0.419000000000000206,-12.684778568557588230
0.420000000000000207,-12.567887850460738974
0.421000000000000207,-12.451259665021265022
0.422000000000000208,-12.334928388807075095
0.423000000000000209,-12.218927500366131511
0.424000000000000210,-12.103289575386536825
0.425000000000000211,-11.988046282916931418
0.426000000000000212,-11.873228382621457300
0.427000000000000213,-11.758865723041983742
0.428000000000000214,-11.644987240839734355
0.429000000000000214,-11.531620960987183366
0.430000000000000215,-11.418793997880523960
0.431000000000000216,-11.306532557342448442
0.432000000000000217,-11.194861939484194835
0.433000000000000218,-11.083806542395700845
0.434000000000000219,-10.973389866632185630
0.435000000000000220,-10.863634520465442534
0.436000000000000221,-10.754562225867804415
0.437000000000000222,-10.646193825196826666
0.438000000000000222,-10.538549288548868077
0.439000000000000223,-10.431647721749634172
0.440000000000000224,-10.325507374950094075
0.441000000000000225,-10.220145651796336494
0.442000000000000226,-10.115579119142477538
0.443000000000000227,-10.011823517275534101
0.444000000000000228,-9.908893770622359654
0.445000000000000229,-9.806803998908486975
0.446000000000000230,-9.705567528739546646
0.447000000000000230,-9.605196905576578459
0.448000000000000231,-9.505703906076789167
0.449000000000000232,-9.407099550772105800
0.450000000000000233,-9.309394117058532814
0.451000000000000234,-9.212597152469777839
0.452000000000000235,-9.116717488209497233
0.453000000000000236,-9.021763252916942477
0.454000000000000237,-8.927741886641788582
0.455000000000000238,-8.834660155004270266
0.456000000000000238,-8.742524163517813918
0.457000000000000239,-8.651339372051840115
0.458000000000000240,-8.561110609413276507
0.459000000000000241,-8.471842088025860917
0.460000000000000242,-8.383537418687408760
0.461000000000000243,-8.296199625385478171
0.462000000000000244,-8.209831160153104435
0.463000000000000245,-8.124433917946412009
0.464000000000000246,-8.040009251527312273
0.465000000000000246,-7.956557986334631849
0.466000000000000247,-7.874080435328049354
0.467000000000000248,-7.792576413789757517
0.468000000000000249,-7.712045254069657574
0.469000000000000250,-7.632485820260282772
0.470000000000000251,-7.553896522788640766
0.471000000000000252,-7.476275332912474703
0.472000000000000253,-7.399619797109517449
0.473000000000000254,-7.323927051348457340
0.474000000000000254,-7.249193835231407590
0.475000000000000255,-7.175416505997934458
0.476000000000000256,-7.102591052381487025
0.477000000000000257,-7.030713108309636361
0.478000000000000258,-6.959777966439932406
0.479000000000000259,-6.889780591523967601
0.480000000000000260,-6.820715633592612903
0.481000000000000261,-6.752577440955887411
0.482000000000000262,-6.685360073011601401
0.483000000000000262,-6.619057312857213660
0.484000000000000263,-6.553662679699844951
0.485000000000000264,-6.489169441060006704
0.486000000000000265,-6.425570624764804784
0.487000000000000266,-6.362859030726962573
0.488000000000000267,-6.301027242506369141
0.489000000000000268,-6.240067638651309423
0.490000000000000269,-6.179972403816721638
0.491000000000000270,-6.120733539657523536
0.492000000000000270,-6.062342875494998395
0.493000000000000271,-6.004792078754948470
0.494000000000000272,-5.948072665176390217
0.495000000000000273,-5.892176008789896891
0.496000000000000274,-5.837093351665217256
0.497000000000000275,-5.782815813427694351
0.498000000000000276,-5.729334400543677042
0.499000000000000277,-5.676640015375061132
0.500000000000000222,-5.624723465003492962
0.501000000000000334,-5.573575469825017947
0.502000000000000224,-5.523186671916070267
0.503000000000000336,-5.473547643171917443
0.504000000000000226,-5.424648893219088386
0.505000000000000338,-5.376480877103047007
0.506000000000000227,-5.329034002753139987
0.507000000000000339,-5.282298638226369469
0.508000000000000229,-5.236265118732303492
0.509000000000000341,-5.190923753441028410
0.510000000000000231,-5.146264832076757223
0.511000000000000343,-5.102278631299137501
0.512000000000000233,-5.058955420875199671
0.513000000000000345,-5.016285469644213180
0.514000000000000234,-4.974259051278612453
0.515000000000000346,-4.932866449843376522
0.516000000000000236,-4.892097965157215178
0.517000000000000348,-4.851943917958212893
0.518000000000000238,-4.812394654877294009
0.519000000000000350,-4.773440553222350502
0.520000000000000240,-4.735072025576480215
0.521000000000000352,-4.697279524213375801
0.522000000000000242,-4.660053545333279423
0.523000000000000353,-4.623384633122691767
0.524000000000000243,-4.587263383641309922
0.525000000000000355,-4.551680448539430657
0.526000000000000245,-4.516626538609391339
0.527000000000000357,-4.482092427174208638
0.528000000000000247,-4.448068953317141805
0.529000000000000359,-4.414547024955312260
0.530000000000000249,-4.381517621761046755
0.531000000000000361,-4.348971797934214401
0.532000000000000250,-4.316900684829124479
0.533000000000000362,-4.285295493439259751
0.534000000000000252,-4.254147516743378432
0.535000000000000364,-4.223448131916311965
0.536000000000000254,-4.193188802407888716
0.537000000000000366,-4.163361079893222794
0.538000000000000256,-4.133956606097918929
0.539000000000000368,-4.104967114501230085
0.540000000000000258,-4.076384431920731188
0.541000000000000369,-4.048200479981486133
0.542000000000000259,-4.020407276473187963
0.543000000000000371,-3.992996936598237845
0.544000000000000261,-3.965961674114077962
0.545000000000000373,-3.939293802372767495
0.546000000000000263,-3.912985735261014675
0.547000000000000375,-3.887029988043491535
0.548000000000000265,-3.861419178112723838
0.549000000000000377,-3.836146025648170532
0.550000000000000266,-3.811203354187687076
0.551000000000000378,-3.786584091114048700
0.552000000000000268,-3.762281268059468609
0.553000000000000380,-3.738288021230780966
0.554000000000000270,-3.714597591658141962
0.555000000000000382,-3.691203325369765587
0.556000000000000272,-3.668098673495518991
0.557000000000000384,-3.645277192301732416
0.558000000000000274,-3.622732543160024132
0.559000000000000385,-3.600458492452335069
0.560000000000000275,-3.578448911414890521
0.561000000000000387,-3.556697775923258753
0.562000000000000277,-3.535199166220961864
0.563000000000000389,-3.513947266593887342
0.564000000000000279,-3.492936364992782927
0.565000000000000391,-3.472160852605944648
0.566000000000000281,-3.451615223384335795
0.567000000000000393,-3.431294073521137022
0.568000000000000282,-3.411192100887894263
0.569000000000000394,-3.391304104429097688
0.570000000000000284,-3.371624983517308660
0.571000000000000396,-3.352149737270605723
0.572000000000000286,-3.332873463834321370
0.573000000000000398,-3.313791359628730504
0.574000000000000288,-3.294898718564596152
0.575000000000000400,-3.276190931228223580
0.576000000000000290,-3.257663484037671253
0.577000000000000401,-3.239311958371778211
0.578000000000000291,-3.221132029673614561
0.579000000000000403,-3.203119466529781967
0.580000000000000293,-3.185270129727232558
0.581000000000000405,-3.167579971288861262
0.582000000000000295,-3.150045033489458746
0.583000000000000407,-3.132661447853267500
0.584000000000000297,-3.115425434134517779
0.585000000000000409,-3.098333299282236997
0.586000000000000298,-3.081381436390574713
0.587000000000000410,-3.064566323635813827
0.588000000000000300,-3.047884523201322970
0.589000000000000412,-3.031332680191465290
0.590000000000000302,-3.014907521535667989
0.591000000000000414,-2.998605854883666044
0.592000000000000304,-2.982424567492937939
0.593000000000000416,-2.966360625109303761
0.594000000000000306,-2.950411070841730155
0.595000000000000417,-2.934573024032144595
0.596000000000000307,-2.918843679121232881
0.597000000000000419,-2.903220304511031191
0.598000000000000309,-2.887700241425194214
0.599000000000000421,-2.872280902767627264
0.600000000000000311,-2.856959771980390084
0.601000000000000423,-2.841734401901470086
0.602000000000000313,-2.826602413623244381
0.603000000000000425,-2.811561495352189688
0.604000000000000314,-2.796609401270659045
0.605000000000000426,-2.781743950401129872
0.606000000000000316,-2.766963025473754723
0.607000000000000428,-2.752264571797565118
0.608000000000000318,-2.737646596136086075
0.609000000000000430,-2.723107165587688616
0.610000000000000320,-2.708644406471354849
0.611000000000000432,-2.694256503218174448
0.612000000000000322,-2.679941697269167644
0.613000000000000433,-2.665698285979751780
0.614000000000000323,-2.651524621531349268
0.615000000000000435,-2.637419109850461574
0.616000000000000325,-2.623380209535635110
0.617000000000000437,-2.609406430792613918
0.618000000000000327,-2.595496334378080139
0.619000000000000439,-2.581648530552201226
0.620000000000000329,-2.567861678040391560
0.621000000000000441,-2.554134483004463441
0.622000000000000330,-2.540465698023515184
0.623000000000000442,-2.526854121084714855
0.624000000000000332,-2.513298594584293166
0.625000000000000444,-2.499798004338907198
0.626000000000000334,-2.486351278607583204
0.627000000000000446,-2.472957387124424589
0.628000000000000336,-2.459615340142278672
0.629000000000000448,-2.446324187487465274
0.630000000000000338,-2.433083017625787825
0.631000000000000449,-2.419890956739866539
0.632000000000000339,-2.406747167818007238
0.633000000000000451,-2.393650849754632937
0.634000000000000341,-2.380601236462428716
0.635000000000000453,-2.367597595996266513
0.636000000000000343,-2.354639229688961333
0.637000000000000455,-2.341725471298975236
0.638000000000000345,-2.328855686170082429
0.639000000000000457,-2.316029270403021201
0.640000000000000346,-2.303245650039267733
0.641000000000000458,-2.290504280256813185
0.642000000000000348,-2.277804644578103055
0.643000000000000460,-2.265146254090038447
0.644000000000000350,-2.252528646676138280
0.645000000000000462,-2.239951386260757182
0.646000000000000352,-2.227414062065457667
0.647000000000000464,-2.214916287877392254
0.648000000000000353,-2.202457701329826101
0.649000000000000465,-2.190037963194582993
0.650000000000000355,-2.177656756686572326
0.651000000000000467,-2.165313786780172389
0.652000000000000357,-2.153008779537581852
0.653000000000000469,-2.140741481448938277
0.654000000000000359,-2.128511658784290272
0.655000000000000471,-2.116319096957216317
0.656000000000000361,-2.104163599900153336
0.657000000000000473,-2.092044989451248060
0.658000000000000362,-2.079963104752756031
0.659000000000000474,-2.067917801660821731
