# Ag322_ETA-JS
# h[nm],U(h)[kJ/mol]
0.200000000000000011,35.865717146258511150
0.201000000000000012,33.904538965478515422
0.202000000000000013,32.824038244626173366
0.203000000000000014,32.126551197832455387
0.204000000000000015,31.539717278552057422
0.205000000000000016,30.931246696634218551
0.206000000000000016,30.251721444695203189
0.207000000000000017,29.497162966266351702
0.208000000000000018,28.685338470235638653
0.209000000000000019,27.841449300875563466
0.210000000000000020,26.990085342185750505
0.211000000000000021,26.151244178114541938
0.212000000000000022,25.338883134389838858
0.213000000000000023,24.560957903000701918
0.214000000000000024,23.820250048492816575
0.215000000000000024,23.115532871877462640
0.216000000000000025,22.442797735541113013
0.217000000000000026,21.796381247081090038
0.218000000000000027,21.169912790353428989
0.219000000000000028,20.557053032590935970
0.220000000000000029,19.952025541926154517
0.221000000000000030,19.349961613888194023
0.222000000000000031,18.747087252641858157
0.223000000000000032,18.140784158799625914
0.224000000000000032,17.529555789089293683
0.225000000000000033,16.912926638663510204
0.226000000000000034,16.291298919111955712
0.227000000000000035,15.665786467302348584
0.228000000000000036,15.038041466623747411
0.229000000000000037,14.410085655866888388
0.230000000000000038,13.784154279365225193
0.231000000000000039,13.162558148522354173
0.232000000000000040,12.547566838431432501
0.233000000000000040,11.941314199638950910
0.234000000000000041,11.345725971414172051
0.235000000000000042,10.762468277967901287
0.236000000000000043,10.192915110042063631
0.237000000000000044,9.638132480849817441
0.238000000000000045,9.098876742229103698
0.239000000000000046,8.575604505190067783
0.240000000000000047,8.068491686720951961
0.241000000000000048,7.577459366470563396
0.242000000000000048,7.102204353805964487
0.243000000000000049,6.642232614577475935
0.244000000000000050,6.196893969621384279
0.245000000000000051,5.765416739871005447
0.246000000000000052,5.346941265903887519
0.247000000000000053,4.940551465836735545
0.248000000000000054,4.545303810175529868
0.249000000000000055,4.160253282976894340
0.250000000000000056,3.784476064437636289
0.251000000000000056,3.417088810910169805
0.252000000000000057,3.057264525283596601
0.253000000000000058,2.704245105199789556
0.254000000000000059,2.357350730589326648
0.255000000000000060,2.015986307632009922
0.256000000000000061,1.679645225673812803
0.257000000000000062,1.347910709067032142
0.258000000000000063,1.020455059467195280
0.259000000000000064,0.697037087820016499
0.260000000000000064,0.377498030949859231
0.261000000000000065,0.061756236990102950
0.262000000000000066,-0.250199111637449068
0.263000000000000067,-0.558314988074151364
0.264000000000000068,-0.862481995603171958
0.265000000000000069,-1.162542121837156550
0.266000000000000070,-1.458296591051214453
0.267000000000000071,-1.749513656865389066
0.268000000000000071,-2.035936200633105653
0.269000000000000072,-2.317289023118907387
0.270000000000000073,-2.593285738038060728
0.271000000000000074,-2.863635195559113278
0.272000000000000075,-3.128047381789861525
0.273000000000000076,-3.386238756489793111
0.274000000000000077,-3.637937005745107033
0.275000000000000078,-3.882885199112370511
0.276000000000000079,-4.120845351825922265
0.277000000000000079,-4.351601402140468977
0.278000000000000080,-4.574961621829390701
0.279000000000000081,-4.790760484384881224
0.280000000000000082,-4.998860020676206162
0.281000000000000083,-5.199150695834647173
0.282000000000000084,-5.391551844064860433
0.283000000000000085,-5.576011700049731346
0.284000000000000086,-5.752507066734304786
0.285000000000000087,-5.921042659652766105
0.286000000000000087,-6.081650167706298404
0.287000000000000088,-6.234387069506135859
0.288000000000000089,-6.379335243155834334
0.289000000000000090,-6.516599405744021745
0.290000000000000091,-6.646305416927825505
0.291000000000000092,-6.768598478878175229
0.292000000000000093,-6.883641262590080245
0.293000000000000094,-6.991611988189137428
0.294000000000000095,-7.092702484436169463
0.295000000000000095,-7.187116250186141642
0.296000000000000096,-7.275066538129666860
0.297000000000000097,-7.356774478765260028
0.298000000000000098,-7.432467260241695683
0.299000000000000099,-7.502376377492462112
0.300000000000000100,-7.566735961973520830
0.301000000000000101,-7.625781201323586167
0.302000000000000102,-7.679746856400853972
0.303000000000000103,-7.728865881418236938
0.304000000000000103,-7.773368151302527451
0.305000000000000104,-7.813479298943907914
0.306000000000000105,-7.849419663679097603
0.307000000000000106,-7.881403351162070692
0.308000000000000107,-7.909637403717434623
0.309000000000000108,-7.934321079337971483
0.310000000000000109,-7.955645236674466325
0.311000000000000110,-7.973791822666443707
0.312000000000000111,-7.988933458870398852
0.313000000000000111,-8.001233122050420477
0.314000000000000112,-8.010843914197810278
0.315000000000000113,-8.017908916834407762
0.316000000000000114,-8.022561124221338602
0.317000000000000115,-8.024923449934066255
0.318000000000000116,-8.025108801168931549
0.319000000000000117,-8.023220215109336806
0.320000000000000118,-8.019351051694552979
0.321000000000000119,-8.013585237195297140
0.322000000000000119,-8.005997553101462216
0.323000000000000120,-7.996653964963324590
0.324000000000000121,-7.985611985993483763
0.325000000000000122,-7.972921070427361201
0.326000000000000123,-7.958623031851322693
0.327000000000000124,-7.942752481935205999
0.328000000000000125,-7.925337285246692787
0.329000000000000126,-7.906399026074637959
0.330000000000000127,-7.885953483444977152
0.331000000000000127,-7.864011110772686663
0.332000000000000128,-7.840577516854390083
0.333000000000000129,-7.815653945166269878
0.334000000000000130,-7.789237748689312291
0.335000000000000131,-7.761322857736482561
0.336000000000000132,-7.731900238503222056
0.337000000000000133,-7.700958340302190841
0.338000000000000134,-7.668483529674503529
0.339000000000000135,-7.634460509792037719
0.340000000000000135,-7.598872723778036686
0.341000000000000136,-7.561702740775490206
0.342000000000000137,-7.522932623784757133
0.343000000000000138,-7.482544278472632371
0.344000000000000139,-7.440519782325064391
0.345000000000000140,-7.396841693674639728
0.346000000000000141,-7.351493340281621158
0.347000000000000142,-7.304459087284397079
0.348000000000000143,-7.255724584461283655
0.349000000000000143,-7.205276992861351815
0.350000000000000144,-7.153105190967323779
0.351000000000000145,-7.099199960649263730
0.352000000000000146,-7.043554153253616334
0.353000000000000147,-6.986162836249173225
0.354000000000000148,-6.927023420919527830
0.355000000000000149,-6.866135771651252995
0.356000000000000150,-6.803502297419056433
0.357000000000000151,-6.739128026113315073
0.358000000000000151,-6.673020662392812774
0.359000000000000152,-6.605190629776099165
0.360000000000000153,-6.535651097709579638
0.361000000000000154,-6.464417994369040521
0.362000000000000155,-6.391510005964895491
0.363000000000000156,-6.316948563329956912
0.364000000000000157,-6.240757816572493510
0.365000000000000158,-6.162964598577341135
0.366000000000000159,-6.083598378133883600
0.367000000000000159,-6.002691203462350522
0.368000000000000160,-5.920277636899801799
0.369000000000000161,-5.836394681493705328
0.370000000000000162,-5.751081700235706862
0.371000000000000163,-5.664380328650536534
0.372000000000000164,-5.576334381435176901
0.373000000000000165,-5.486989753822562044
0.374000000000000166,-5.396394318321254602
0.375000000000000167,-5.304597817459063336
0.376000000000000167,-5.211651753133759613
0.377000000000000168,-5.117609273148831406
0.378000000000000169,-5.022525055486116052
0.379000000000000170,-4.926455190841084075
0.380000000000000171,-4.829457063919621262
0.381000000000000172,-4.731589233968950481
0.382000000000000173,-4.632911314988230167
0.383000000000000174,-4.533483856038341919
0.384000000000000175,-4.433368222043773343
0.385000000000000175,-4.332626475453893455
0.386000000000000176,-4.231321259105261134
0.387000000000000177,-4.129515680601778982
0.388000000000000178,-4.027273198505091578
0.389000000000000179,-3.924657510603785759
0.390000000000000180,-3.821732444506995563
0.391000000000000181,-3.718561850785405021
0.392000000000000182,-3.615209498861394533
0.393000000000000183,-3.511738975828695430
0.394000000000000183,-3.408213588362332125
0.395000000000000184,-3.304696267860132597
0.396000000000000185,-3.201249478938633874
0.397000000000000186,-3.097935131388831032
0.398000000000000187,-2.994814495680232280
0.399000000000000188,-2.891948122085825190
0.400000000000000189,-2.789395763485662094
0.401000000000000190,-2.687216301892042303
0.402000000000000191,-2.585467678726434126
0.403000000000000191,-2.484206828865012540
0.404000000000000192,-2.383489618458226822
0.405000000000000193,-2.283370786518532647
0.406000000000000194,-2.183903890260058045
0.407000000000000195,-2.085141254164487812
0.408000000000000196,-1.987133922738313574
0.409000000000000197,-1.889931616918553603
0.410000000000000198,-1.793582694076447881
0.411000000000000199,-1.698134111561599324
0.412000000000000199,-1.603631393722848575
0.413000000000000200,-1.510118602336447013
0.414000000000000201,-1.417638310366890142
0.415000000000000202,-1.326231578981159398
0.416000000000000203,-1.235937937733234460
0.417000000000000204,-1.146795367831814128
0.418000000000000205,-1.058840288401436514
0.419000000000000206,-0.972107545644308457
0.420000000000000207,-0.886630404807874362
0.421000000000000207,-0.802440544861605098
0.422000000000000208,-0.719568055784605254
0.423000000000000209,-0.638041438364934654
0.424000000000000210,-0.557887606410504722
0.425000000000000211,-0.479131891271053156
0.426000000000000212,-0.401798048570543631
0.427000000000000213,-0.325908267049384193
0.428000000000000214,-0.251483179416326696
0.429000000000000214,-0.178541875110366483
0.430000000000000215,-0.107101914873850346
0.431000000000000216,-0.037179347039115476
0.432000000000000217,0.031211274568106039
0.433000000000000218,0.098056871203579615
0.434000000000000219,0.163345818351565031
0.435000000000000220,0.227067923535926974
0.436000000000000221,0.289214402885650035
0.437000000000000222,0.349777856543173282
0.438000000000000222,0.408752243001895554
0.439000000000000223,0.466132852457214752
0.440000000000000224,0.521916279253286985
0.441000000000000225,0.576100393505493691
0.442000000000000226,0.628684311976223320
0.443000000000000227,0.679668368279497281
0.444000000000000228,0.729054082487363031
0.445000000000000229,0.776844130208797279
0.446000000000000230,0.823042311209318811
0.447000000000000230,0.867653517637229976
0.448000000000000231,0.910683701919895228
0.449000000000000232,0.952139844391067469
0.450000000000000233,0.992029920707934165
0.451000000000000234,1.030362869114022750
0.452000000000000235,1.067148557601869552
0.453000000000000236,1.102397751026910955
0.454000000000000237,1.136122078221690535
0.455000000000000238,1.168333999157305625
0.456000000000000238,1.199046772196554755
0.457000000000000239,1.228274421481220013
0.458000000000000240,1.256031704493494106
0.459000000000000241,1.282334079829637430
0.460000000000000242,1.307197675221619448
0.461000000000000243,1.330639255840620150
0.462000000000000244,1.352676192914070707
0.463000000000000245,1.373326432686130971
0.464000000000000246,1.392608465749389568
0.465000000000000246,1.410541296773821118
0.466000000000000247,1.427144414657211646
0.467000000000000248,1.442437763119436722
0.468000000000000249,1.456441711761311097
0.469000000000000250,1.469177027607060371
0.470000000000000251,1.480664847147853846
0.471000000000000252,1.490926648902307416
0.472000000000000253,1.499984226508313423
0.473000000000000254,1.507859662359184671
0.474000000000000254,1.514575301795667794
0.475000000000000255,1.520153727864017368
0.476000000000000256,1.524617736649123589
0.477000000000000257,1.527990313190339400
0.478000000000000258,1.530294607986568689
0.479000000000000259,1.531553914095999280
0.480000000000000260,1.531791644834775923
0.481000000000000261,1.531031312077916651
0.482000000000000262,1.529296505164717157
0.483000000000000262,1.526610870410054499
0.484000000000000263,1.522998091221994255
0.485000000000000264,1.518481868825375614
0.486000000000000265,1.513085903590108972
0.487000000000000266,1.506833876962301311
0.488000000000000267,1.499749433995524850
0.489000000000000268,1.491856166478838563
0.490000000000000269,1.483177596657658359
0.491000000000000270,1.473737161542801433
0.492000000000000270,1.463558197802637739
0.493000000000000271,1.452663927232603847
0.494000000000000272,1.441077442795991370
0.495000000000000273,1.428821695229293809
0.496000000000000274,1.415919480205148462
0.497000000000000275,1.402393426045402292
0.498000000000000276,1.388265981976452679
0.499000000000000277,1.373559406918832604
0.500000000000000222,1.358295758802470443
0.501000000000000334,1.342496884399013934
0.502000000000000224,1.326184409662191088
0.503000000000000336,1.309379730567010514
0.504000000000000226,1.292104004438448639
0.505000000000000338,1.274378141759974437
0.506000000000000227,1.256222798452250045
0.507000000000000339,1.237658368612074566
0.508000000000000229,1.218704977701657866
0.509000000000000341,1.199382476178033174
0.510000000000000231,1.179710433552584758
0.511000000000000343,1.159708132870328701
0.512000000000000233,1.139394565598832898
0.513000000000000345,1.118788426916320633
0.514000000000000234,1.097908111388806507
0.515000000000000346,1.076771709025830637
0.516000000000000236,1.055397001704628135
0.517000000000000348,1.033801459952321089
0.518000000000000238,1.012002240076093296
0.519000000000000350,0.990016181630968162
0.520000000000000240,0.967859805215285696
0.521000000000000352,0.945549310583647773
0.522000000000000242,0.923100575067557494
0.523000000000000353,0.900529152293671808
0.524000000000000243,0.877850271190114051
0.525000000000000355,0.855078835270979831
0.526000000000000245,0.832229422189640133
0.527000000000000357,0.809316283551246407
0.528000000000000247,0.786353344975272983
0.529000000000000359,0.763354206398777935
0.530000000000000249,0.740332142611424660
0.531000000000000361,0.717300104013270379
0.532000000000000250,0.694270717586638608
0.533000000000000362,0.671256288073323271
0.534000000000000252,0.648268799348834301
0.535000000000000364,0.625319915985108277
0.536000000000000254,0.602420984993807584
0.537000000000000366,0.579583037741919771
0.538000000000000256,0.556816792032031715
0.539000000000000368,0.534132654339414814
0.540000000000000258,0.511540722198547848
0.541000000000000369,0.489050786731535569
0.542000000000000259,0.466672335311441866
0.543000000000000371,0.444414554353275038
0.544000000000000261,0.422286332225930039
0.545000000000000373,0.400296262278273196
0.546000000000000263,0.378452645972924828
0.547000000000000375,0.356763496121212276
0.548000000000000265,0.335236540213300738
0.549000000000000377,0.313879223837199017
0.550000000000000266,0.292698714181001018
0.551000000000000378,0.271701903612417250
0.552000000000000268,0.250895413330209149
0.553000000000000380,0.230285597081978877
0.554000000000000270,0.209878544943185918
0.555000000000000382,0.189680087152172272
0.556000000000000272,0.169695797996380848
0.557000000000000384,0.149930999744876697
0.558000000000000274,0.130390766622592469
0.559000000000000385,0.111079928821781193
0.560000000000000275,0.092003076546356782
0.561000000000000387,0.073164564084872152
0.562000000000000277,0.054568513908179503
0.563000000000000389,0.036218820787705663
0.564000000000000279,0.018119155930728336
0.565000000000000391,0.000272971128849342
0.566000000000000281,-0.017316497083692328
0.567000000000000393,-0.034646223265399109
0.568000000000000282,-0.051713388899704962
0.569000000000000394,-0.068515378227231222
0.570000000000000284,-0.085049774080960344
0.571000000000000396,-0.101314353727404688
0.572000000000000286,-0.117307084716342061
0.573000000000000398,-0.133026120741920911
0.574000000000000288,-0.148469797517563229
0.575000000000000400,-0.163636628667196360
0.576000000000000290,-0.178525301635007183
0.577000000000000401,-0.193134673616076974
0.578000000000000291,-0.207463767509877522
0.579000000000000403,-0.221511767898731782
0.580000000000000293,-0.235278017053079658
0.581000000000000405,-0.248762010965460162
0.582000000000000295,-0.261963395414798850
0.583000000000000407,-0.274881962062795304
0.584000000000000297,-0.287517644583791310
0.585000000000000409,-0.299870514829738088
0.586000000000000298,-0.311940779031489035
0.587000000000000410,-0.323728774037852662
0.588000000000000300,-0.335234963593489477
0.589000000000000412,-0.346459934656922042
0.590000000000000302,-0.357404393759597483
0.591000000000000414,-0.368069163407118150
0.592000000000000304,-0.378455178523454061
0.593000000000000416,-0.388563482939076998
0.594000000000000306,-0.398395225923747653
0.595000000000000417,-0.407951658764742930
0.596000000000000307,-0.417234131391109486
0.597000000000000419,-0.426244089044629793
0.598000000000000309,-0.434983068998010758
0.599000000000000421,-0.443452697320768696
0.600000000000000311,-0.451654685693296976
0.601000000000000423,-0.459590828269486107
0.602000000000000313,-0.467262998588191869
0.603000000000000425,-0.474673146533935497
0.604000000000000314,-0.481823295346969882
0.605000000000000426,-0.488715538683010098
0.606000000000000316,-0.495352037722710137
0.607000000000000428,-0.501735018331041616
0.608000000000000318,-0.507866768266646895
0.609000000000000430,-0.513749634441193814
0.610000000000000320,-0.519386020228723599
0.611000000000000432,-0.524778382824999001
0.612000000000000322,-0.529929230656731365
0.613000000000000433,-0.534841120840627515
0.614000000000000323,-0.539516656692118235
0.615000000000000435,-0.543958485283599802
0.616000000000000325,-0.548169295051990302
0.617000000000000437,-0.552151813455436957
0.618000000000000327,-0.555908804678866719
0.619000000000000439,-0.559443067388168069
0.620000000000000329,-0.562757432532701496
0.621000000000000441,-0.565854761195815792
0.622000000000000330,-0.568737942493067750
0.623000000000000442,-0.571409891517780211
0.624000000000000332,-0.573873547333557887
0.625000000000000444,-0.576131871013417118
0.626000000000000334,-0.578187843725080475
0.627000000000000446,-0.580044464862053188
0.628000000000000336,-0.581704750220032762
0.629000000000000448,-0.583171730218216555
0.630000000000000338,-0.584448448165028500
0.631000000000000449,-0.585537958567832306
0.632000000000000339,-0.586443325486109557
0.633000000000000451,-0.587167620927630640
0.634000000000000341,-0.587713923287114914
0.635000000000000453,-0.588085315826880173
0.636000000000000343,-0.588284885198928409
0.637000000000000455,-0.588315720007994813
0.638000000000000345,-0.588180909414967146
0.639000000000000457,-0.587883541780190755
0.640000000000000346,-0.587426703346077050
0.641000000000000458,-0.586813476958490843
0.642000000000000348,-0.586046940826342455
0.643000000000000460,-0.585130167318843597
0.644000000000000350,-0.584066221799863561
0.645000000000000462,-0.582858161498806204
0.646000000000000352,-0.581509034417468151
0.647000000000000464,-0.580021878272295233
0.648000000000000353,-0.578399719471468066
0.649000000000000465,-0.576645572126250894
0.650000000000000355,-0.574762437096044687
0.651000000000000467,-0.572753301066544096
0.652000000000000357,-0.570621135660482004
0.653000000000000469,-0.568368896580317307
0.654000000000000359,-0.565999522782385966
0.655000000000000471,-0.563515935681875968
0.656000000000000361,-0.560921038388104920
0.657000000000000473,-0.558217714969519441
0.658000000000000362,-0.555408829747864763
0.659000000000000474,-0.552497226620965898
0.660000000000000364,-0.549485728413561469
0.661000000000000476,-0.546377136255649765
0.662000000000000366,-0.543174228987789776
0.663000000000000478,-0.539879762592808121
0.664000000000000368,-0.536496469653395591
0.665000000000000480,-0.533027058835033762
0.666000000000000369,-0.529474214393726883
