# Ag322_PRO-JS
# h[nm],U(h)[kJ/mol]
0.149999999999999994,119.686440960349926854
0.150999999999999995,114.645426730070497001
0.151999999999999996,110.957088553422110522
0.152999999999999997,107.560858314671889957
0.153999999999999998,104.084629014888520260
0.154999999999999999,100.474151025339480725
0.156000000000000000,96.794861801926373346
0.157000000000000001,93.134571693403927384
0.158000000000000002,89.562589728365168185
0.159000000000000002,86.118431512100997338
0.160000000000000003,82.814417778620168065
0.161000000000000004,79.643430131486695700
0.162000000000000005,76.587313570575176414
0.163000000000000006,73.623889272970927777
0.164000000000000007,70.731918396883401101
0.165000000000000008,67.894065134849981291
0.166000000000000009,65.098219653441049104
0.167000000000000010,62.337632524862556238
0.168000000000000010,59.610288769690690458
0.169000000000000011,56.917875447787196208
0.170000000000000012,54.264608057895678428
0.171000000000000013,51.656096872187575286
0.172000000000000014,49.098363411460162808
0.173000000000000015,46.597062242603136895
0.174000000000000016,44.156923605399619248
0.175000000000000017,41.781405964987172297
0.176000000000000018,39.472531811526224033
0.177000000000000018,37.230872273534224348
0.178000000000000019,35.055644049060873613
0.179000000000000020,32.944883863710053618
0.180000000000000021,30.895669628743878121
0.181000000000000022,28.904362572867928094
0.182000000000000023,26.966850062882731009
0.183000000000000024,25.078774082050099281
0.184000000000000025,23.235735077423200323
0.185000000000000026,21.433464948031215158
0.186000000000000026,19.667966262816499068
0.187000000000000027,17.935617381942083881
0.188000000000000028,16.233245064786750333
0.189000000000000029,14.558167465510560845
0.190000000000000030,12.908211236441593073
0.191000000000000031,11.281706875742610663
0.192000000000000032,9.677466558557442866
0.193000000000000033,8.094748560681258809
0.194000000000000034,6.533212090325183574
0.195000000000000034,4.992865944782698406
0.196000000000000035,3.474013951598694749
0.197000000000000036,1.977199674722504907
0.198000000000000037,0.503152392507433821
0.199000000000000038,-0.947264094090928266
0.200000000000000039,-2.373098675050336670
0.201000000000000040,-3.773355382673710068
0.202000000000000041,-5.147030611294850289
0.203000000000000042,-6.493144899603383813
0.204000000000000042,-7.810769284904907295
0.205000000000000043,-9.099046408025689203
0.206000000000000044,-10.357206675589821998
0.207000000000000045,-11.584579877828144134
0.208000000000000046,-12.780602719937556699
0.209000000000000047,-13.944822758260567497
0.210000000000000048,-15.076899243940612649
0.211000000000000049,-16.176601370618048037
0.212000000000000050,-17.243804403137183101
0.213000000000000050,-18.278484134631291624
0.214000000000000051,-19.280710082780302628
0.215000000000000052,-20.250637795054238666
0.216000000000000053,-21.188500589496804594
0.217000000000000054,-22.094601013791525190
0.218000000000000055,-22.969302262347536470
0.219000000000000056,-23.813019749977748063
0.220000000000000057,-24.626213002185231460
0.221000000000000058,-25.409377986629600343
0.222000000000000058,-26.163039978351214643
0.223000000000000059,-26.887747022928124352
0.224000000000000060,-27.584064036964669242
0.225000000000000061,-28.252567564080607099
0.226000000000000062,-28.893841186729940063
0.227000000000000063,-29.508471579520364259
0.228000000000000064,-30.097045177975267904
0.229000000000000065,-30.660145427612015112
0.230000000000000066,-31.198350571512651896
0.231000000000000066,-31.712231929957624743
0.232000000000000067,-32.202352622895219270
0.233000000000000068,-32.669266684764735942
0.234000000000000069,-33.113518521227675251
0.235000000000000070,-33.535642658455806497
0.236000000000000071,-33.936163737565458121
0.237000000000000072,-34.315596709385189911
0.238000000000000073,-34.674447187826586969
0.239000000000000073,-35.013211923549008020
0.240000000000000074,-35.332379363242317538
0.241000000000000075,-35.632430263583579233
0.242000000000000076,-35.913838332667467057
0.243000000000000077,-36.177070875388679383
0.244000000000000078,-36.422589422808059112
0.245000000000000079,-36.650850328915169030
0.246000000000000080,-36.862305321373746381
0.247000000000000081,-37.057401995777489390
0.248000000000000081,-37.236584245635057755
0.249000000000000082,-37.400292622735925363
0.250000000000000111,-37.548964624722060535
0.251000000000000112,-37.683034908602756730
0.252000000000000113,-37.802935430614176937
0.253000000000000114,-37.909095514243560388
0.254000000000000115,-38.001941849431403853
0.255000000000000115,-38.081898426941009461
0.256000000000000116,-38.149386412663808699
0.257000000000000117,-38.204823967224960768
0.258000000000000118,-38.248626016685044249
0.259000000000000119,-38.281203980416357524
0.260000000000000120,-38.302965462384712225
0.261000000000000121,-38.314313912102512916
0.262000000000000122,-38.315648261456857426
0.263000000000000123,-38.307362543466112470
0.264000000000000123,-38.289845498799571999
0.265000000000000124,-38.263480175614908774
0.266000000000000125,-38.228643527943560798
0.267000000000000126,-38.185706017491284570
0.268000000000000127,-38.135031223333292871
0.269000000000000128,-38.076975463577014125
0.270000000000000129,-38.011887432648535423
0.271000000000000130,-37.940107857439045347
0.272000000000000131,-37.861969175129765119
0.273000000000000131,-37.777795235103027949
0.274000000000000132,-37.687901026948154026
0.275000000000000133,-37.592592436186933469
0.276000000000000134,-37.492166028976996017
0.277000000000000135,-37.386908866704935406
0.278000000000000136,-37.277098351056721981
0.279000000000000137,-37.163002099851212279
0.280000000000000138,-37.044877853644464949
0.281000000000000139,-36.922973412858851816
0.282000000000000139,-36.797526604961014129
0.283000000000000140,-36.668765281007260626
0.284000000000000141,-36.536907340692337698
0.285000000000000142,-36.402160784878425659
0.286000000000000143,-36.264723794443526117
0.287000000000000144,-36.124784834172039893
0.288000000000000145,-35.982522780314504018
0.289000000000000146,-35.838107070365111895
0.290000000000000147,-35.691697873546679887
0.291000000000000147,-35.543446280448634411
0.292000000000000148,-35.393494510236330086
0.293000000000000149,-35.241976133834860718
0.294000000000000150,-35.089016311489515942
0.295000000000000151,-34.934732043115317879
0.296000000000000152,-34.779232429867576570
0.297000000000000153,-34.622618945395871037
0.298000000000000154,-34.464985715280441525
0.299000000000000155,-34.306419803195510099
0.300000000000000155,-34.147001502393720784
0.301000000000000156,-33.986804631162499390
0.302000000000000157,-33.825896830962150830
0.303000000000000158,-33.664339866019531655
0.304000000000000159,-33.502189923216896261
0.305000000000000160,-33.339497911183002543
0.306000000000000161,-33.176309757563316793
0.307000000000000162,-33.012666703515833433
0.308000000000000163,-32.848605594548921260
0.309000000000000163,-32.684159166887717163
0.310000000000000164,-32.519356328624652974
0.311000000000000165,-32.354222434977245371
0.312000000000000166,-32.188779557043815771
0.313000000000000167,-32.023046743511500267
0.314000000000000168,-31.857040274834979243
0.315000000000000169,-31.690773909464166280
0.316000000000000170,-31.524259121758444024
0.317000000000000171,-31.357505331280226102
0.318000000000000171,-31.190520123214533044
0.319000000000000172,-31.023309459711850167
0.320000000000000173,-30.855877881999667522
0.321000000000000174,-30.688228703152923060
0.322000000000000175,-30.520364191456906156
0.323000000000000176,-30.352285744335098627
0.324000000000000177,-30.183994052852000323
0.325000000000000178,-30.015489256834761989
0.326000000000000179,-29.846771090689806272
0.327000000000000179,-29.677839020018904392
0.328000000000000180,-29.508692369166055869
0.329000000000000181,-29.339330439850805021
0.330000000000000182,-29.169752621064606757
0.331000000000000183,-28.999958490427086844
0.332000000000000184,-28.829947907215675684
0.333000000000000185,-28.659721097297342851
0.334000000000000186,-28.489278730204556922
0.335000000000000187,-28.318621988608384754
0.336000000000000187,-28.147752630451559952
0.337000000000000188,-27.976673044011658220
0.338000000000000189,-27.805386296170969018
0.339000000000000190,-27.633896174174498839
0.340000000000000191,-27.462207221159939508
0.341000000000000192,-27.290324765746994728
0.342000000000000193,-27.118254945972346093
0.343000000000000194,-26.946004727858007044
0.344000000000000195,-26.773581918898031518
0.345000000000000195,-26.600995176747421311
0.346000000000000196,-26.428254013392933786
0.347000000000000197,-26.255368795082500100
0.348000000000000198,-26.082350738284766578
0.349000000000000199,-25.909211901945134571
0.350000000000000200,-25.735965176299345103
0.351000000000000201,-25.562624268498701952
0.352000000000000202,-25.389203685294948087
0.353000000000000203,-25.215718713025474074
0.354000000000000203,-25.042185395132161574
0.355000000000000204,-24.868620507439516132
0.356000000000000205,-24.695041531410204527
0.357000000000000206,-24.521466625587784449
0.358000000000000207,-24.347914595428150619
0.359000000000000208,-24.174404861713618686
0.360000000000000209,-24.000957427734700644
0.361000000000000210,-23.827592845416535994
0.362000000000000210,-23.654332180558817811
0.363000000000000211,-23.481196977349650723
0.364000000000000212,-23.308209222305656283
0.365000000000000213,-23.135391307782676051
0.366000000000000214,-22.962765995193297641
0.367000000000000215,-22.790356378059716036
0.368000000000000216,-22.618185845022857450
0.369000000000000217,-22.446278042920816631
0.370000000000000218,-22.274656840042869277
0.371000000000000218,-22.103346289657554991
0.372000000000000219,-21.932370593906870937
0.373000000000000220,-21.761754068151553554
0.374000000000000221,-21.591521105846052109
0.375000000000000222,-21.421696144015253793
0.376000000000000223,-21.252303629399193596
0.377000000000000224,-21.083367985325832450
0.378000000000000225,-20.914913579366540830
0.379000000000000226,-20.746964691823141180
0.380000000000000226,-20.579545485090754653
0.381000000000000227,-20.412679973934928057
0.382000000000000228,-20.246391996717484574
0.383000000000000229,-20.080705187600493389
0.384000000000000230,-19.915642949753689095
0.385000000000000231,-19.751228429586472402
0.386000000000000232,-19.587484492021811633
0.387000000000000233,-19.424433696825552431
0.388000000000000234,-19.262098276001246688
0.389000000000000234,-19.100500112257464025
0.390000000000000235,-18.939660718551106555
0.391000000000000236,-18.779601218707885124
0.392000000000000237,-18.620342329117789859
0.393000000000000238,-18.461904341501501392
0.394000000000000239,-18.304307106740786537
0.395000000000000240,-18.147570019764096116
0.396000000000000241,-17.991712005476490077
0.397000000000000242,-17.836751505720908284
0.398000000000000242,-17.682706467256569027
0.399000000000000243,-17.529594330738195396
0.400000000000000244,-17.377432020678661218
0.401000000000000245,-17.226235936376301794
0.402000000000000246,-17.076021943786948043
0.403000000000000247,-16.926805368319474354
0.404000000000000248,-16.778600988533174387
0.405000000000000249,-16.631423030714085343
0.406000000000000250,-16.485285164306766603
0.407000000000000250,-16.340200498177438249
0.408000000000000251,-16.196181577683887554
0.409000000000000252,-16.053240382527139474
0.410000000000000253,-15.911388325359251183
0.411000000000000254,-15.770636251121933569
0.412000000000000255,-15.630994437089743343
0.413000000000000256,-15.492472593592115260
0.414000000000000257,-15.355079865388058025
0.415000000000000258,-15.218824833667458307
0.416000000000000258,-15.083715518653050935
0.417000000000000259,-14.949759382777102701
0.418000000000000260,-14.816963334407173392
0.419000000000000261,-14.685333732095307013
0.420000000000000262,-14.554876389325499986
0.421000000000000263,-14.425596579734508040
0.422000000000000264,-14.297499042781135259
0.423000000000000265,-14.170587989839930287
0.424000000000000266,-14.044867110695298251
0.425000000000000266,-13.920339580412498748
0.426000000000000267,-13.797008066562565176
0.427000000000000268,-13.674874736778459550
0.428000000000000269,-13.553941266620416428
0.429000000000000270,-13.434208847728873693
0.430000000000000271,-13.315678196243789344
0.431000000000000272,-13.198349561469882474
0.432000000000000273,-13.082222734767679384
0.433000000000000274,-12.967297058650903097
0.434000000000000274,-12.853571436071201006
0.435000000000000275,-12.741044339871875124
0.436000000000000276,-12.629713822392854894
0.437000000000000277,-12.519577525209360402
0.438000000000000278,-12.410632688987902839
0.439000000000000279,-12.302876163443315249
0.440000000000000280,-12.196304417381146123
0.441000000000000281,-12.090913548810600986
0.442000000000000282,-11.986699295113462327
0.443000000000000282,-11.883657043255034580
0.444000000000000283,-11.781781840023912267
0.445000000000000284,-11.681068402287660746
0.446000000000000285,-11.581511127252031912
0.447000000000000286,-11.483104102712312411
0.448000000000000287,-11.385841117285099955
0.449000000000000288,-11.289715670610295462
0.450000000000000289,-11.194720983512677748
0.451000000000000290,-11.100850008113635425
0.452000000000000290,-11.008095437883742562
0.453000000000000291,-10.916449717627349614
0.454000000000000292,-10.825905053391073452
0.455000000000000293,-10.736453422288162685
0.456000000000000294,-10.648086582231563568
0.457000000000000295,-10.560796081568534888
0.458000000000000296,-10.474573268610422261
0.459000000000000297,-10.389409301051447443
0.460000000000000298,-10.305295155270702168
0.461000000000000298,-10.222221635512193316
0.462000000000000299,-10.140179382937793306
0.463000000000000300,-10.059158884548660140
0.464000000000000301,-9.979150481970776809
0.465000000000000302,-9.900144380100869057
0.466000000000000303,-9.822130655608972916
0.467000000000000304,-9.745099265294511426
0.468000000000000305,-9.669040054292981523
0.469000000000000306,-9.593942764130519052
0.470000000000000306,-9.519797040624137452
0.471000000000000307,-9.446592441625385916
0.472000000000000308,-9.374318444605892253
0.473000000000000309,-9.302964454082964352
0.474000000000000310,-9.232519808884164902
0.475000000000000311,-9.162973789249686973
0.476000000000000312,-9.094315623771796808
0.477000000000000313,-9.026534496170571131
0.478000000000000314,-8.959619551905655399
0.479000000000000314,-8.893559904623819179
0.480000000000000315,-8.828344642442143453
0.481000000000000316,-8.763962834067205776
0.482000000000000317,-8.700403534750382306
0.483000000000000318,-8.637655792079891981
0.484000000000000319,-8.575708651610147726
0.485000000000000320,-8.514551162329242473
0.486000000000000321,-8.454172381965468830
0.487000000000000322,-8.394561382133932881
0.488000000000000322,-8.335707253324379451
0.489000000000000323,-8.277599109731671234
0.490000000000000324,-8.220226093930140365
0.491000000000000325,-8.163577381393469778
0.492000000000000326,-8.107642184861552082
0.493000000000000327,-8.052409758556146713
0.494000000000000328,-7.997869402247021142
0.495000000000000329,-7.944010465170467050
0.496000000000000330,-7.890822349802071756
0.497000000000000330,-7.838294515485747738
0.498000000000000331,-7.786416481921063060
0.499000000000000332,-7.735177832510982121
0.500000000000000333,-7.684568217572127935
0.501000000000000334,-7.634577357409810361
0.502000000000000335,-7.585195045259988333
0.503000000000000336,-7.536411150100545520
0.504000000000000337,-7.488215619334066098
0.505000000000000338,-7.440598481344508741
0.506000000000000338,-7.393549847930129815
0.507000000000000339,-7.347059916615043207
0.508000000000000340,-7.301118972841739385
0.509000000000000341,-7.255717392047118963
0.510000000000000342,-7.210845641624308300
0.511000000000000343,-7.166494282772769786
0.512000000000000344,-7.122653972239123554
0.513000000000000345,-7.079315463951102672
0.514000000000000346,-7.036469610547110953
0.515000000000000346,-6.994107364803761939
0.516000000000000347,-6.952219780963834417
0.517000000000000348,-6.910798015967162478
0.518000000000000349,-6.869833330586665454
0.519000000000000350,-6.829317090472120988
0.520000000000000351,-6.789240767103924767
0.521000000000000352,-6.749595938659278538
0.522000000000000353,-6.710374290793109431
0.523000000000000353,-6.671567617336042311
0.524000000000000354,-6.633167820911820556
0.525000000000000355,-6.595166913476337989
0.526000000000000356,-6.557557016780610759
0.527000000000000357,-6.520330362759978016
0.528000000000000358,-6.483479293851623027
0.529000000000000359,-6.446996263242697367
0.530000000000000360,-6.410873835051179803
0.531000000000000361,-6.375104684441613045
0.532000000000000361,-6.339681597677762959
0.533000000000000362,-6.304597472114362944
0.534000000000000363,-6.269845316129931234
0.535000000000000364,-6.235418249002644409
0.536000000000000365,-6.201309500731309932
0.537000000000000366,-6.167512411803380168
0.538000000000000367,-6.134020432911804654
0.539000000000000368,-6.100827124622821174
0.540000000000000369,-6.067926156996285236
0.541000000000000369,-6.035311309160546145
0.542000000000000370,-6.002976468843561619
0.543000000000000371,-5.970915631861986483
0.544000000000000372,-5.939122901570005553
0.545000000000000373,-5.907592488269542308
0.546000000000000374,-5.876318708583509576
0.547000000000000375,-5.845295984793664523
0.548000000000000376,-5.814518844144771492
0.549000000000000377,-5.783981918116456455
0.550000000000000377,-5.753679941664343822
0.551000000000000378,-5.723607752431955298
0.552000000000000379,-5.693760289934795438
0.553000000000000380,-5.664132594718022773
0.554000000000000381,-5.634719807489069865
0.555000000000000382,-5.605517168226628932
0.556000000000000383,-5.576520015267173669
0.557000000000000384,-5.547723784370441003
0.558000000000000385,-5.519124007765005224
0.559000000000000385,-5.490716313175219909
0.560000000000000386,-5.462496422830667164
0.561000000000000387,-5.434460152459293703
0.562000000000000388,-5.406603410265338638
0.563000000000000389,-5.378922195893119707
0.564000000000000390,-5.351412599377762369
0.565000000000000391,-5.324070800083907429
0.566000000000000392,-5.296893065633342168
0.567000000000000393,-5.269875750822588856
0.568000000000000393,-5.243015296531339686
0.569000000000000394,-5.216308228622656529
0.570000000000000395,-5.189751156835884061
0.571000000000000396,-5.163340773673001038
0.572000000000000397,-5.137073853279399138
0.573000000000000398,-5.110947250319748392
0.574000000000000399,-5.084957898849833846
0.575000000000000400,-5.059102811185043791
0.576000000000000401,-5.033379076766271609
0.577000000000000401,-5.007783861023943572
0.578000000000000402,-4.982314404240807626
0.579000000000000403,-4.956968020414170617
0.580000000000000404,-4.931742096118219010
0.581000000000000405,-4.906634089367019058
0.582000000000000406,-4.881641528478763092
0.583000000000000407,-4.856762010941868546
0.584000000000000408,-4.831993202283452860
0.585000000000000409,-4.807332834940679867
0.586000000000000409,-4.782778707135534546
0.587000000000000410,-4.758328681753456912
0.588000000000000411,-4.733980685226327090
0.589000000000000412,-4.709732706420242110
0.590000000000000413,-4.685582795528469902
0.591000000000000414,-4.661529062970052983
0.592000000000000415,-4.637569678294411801
0.593000000000000416,-4.613702869092288772
0.594000000000000417,-4.589926919913449588
0.595000000000000417,-4.566240171191468633
0.596000000000000418,-4.542641018175816114
0.597000000000000419,-4.519127909871754945
0.598000000000000420,-4.495699347988112216
0.599000000000000421,-4.472353885893370240
0.600000000000000422,-4.449090127580246801
0.601000000000000423,-4.425906726639053268
0.602000000000000424,-4.402802385240025096
0.603000000000000425,-4.379775853124904472
0.604000000000000425,-4.356825926607900357
0.605000000000000426,-4.333951447586289696
0.606000000000000427,-4.311151302560837451
0.607000000000000428,-4.288424421666094943
