# Ag322_CS-62242-AC
# h[nm],U(h)[kJ/mol]
0.200000000000000011,53.618665210607289850
0.201000000000000012,49.022773452288973317
0.202000000000000013,46.554459747004500514
0.203000000000000014,45.072012917156328626
0.204000000000000015,43.927004492161628946
0.205000000000000016,42.785563551857237030
0.206000000000000016,41.506155983031035817
0.207000000000000017,40.057794692095150424
0.208000000000000018,38.466820444646955934
0.209000000000000019,36.783569439119823130
0.210000000000000020,35.062626462407521899
0.211000000000000021,33.352139628228123058
0.212000000000000022,31.688989542231873031
0.213000000000000023,30.097574182414291499
0.214000000000000024,28.590676790935269480
0.215000000000000024,27.171393464419725916
0.216000000000000025,25.835460125003812948
0.217000000000000026,24.573573321005632408
0.218000000000000027,23.373474722094005784
0.219000000000000028,22.221686979109254167
0.220000000000000029,21.104865085806345348
0.221000000000000030,20.010774608784821282
0.222000000000000031,18.928935071353567565
0.223000000000000032,17.850979916218985721
0.224000000000000032,16.770788553927026499
0.225000000000000033,15.684444401123366575
0.226000000000000034,14.590067893342459016
0.227000000000000035,13.487566849930175295
0.228000000000000036,12.378339362737987628
0.229000000000000037,11.264957274891679972
0.230000000000000038,10.150851733865728477
0.231000000000000039,9.040016473637418670
0.232000000000000040,7.936739501482387382
0.233000000000000040,6.845369746776698960
0.234000000000000041,5.770121928206300765
0.235000000000000042,4.714920336614861540
0.236000000000000043,3.683280322159456777
0.237000000000000044,2.678224920330499081
0.238000000000000045,1.702233157601801050
0.239000000000000046,0.757216056251637126
0.240000000000000047,-0.155483869758936244
0.241000000000000048,-1.035073839168509480
0.242000000000000048,-1.881276797199642914
0.243000000000000049,-2.694285949709052996
0.244000000000000050,-3.474711254906234448
0.245000000000000051,-4.223520892887247413
0.246000000000000052,-4.941980318396901772
0.247000000000000053,-5.631591088807217815
0.248000000000000054,-6.294031261450762749
0.249000000000000055,-6.931098782124903934
0.250000000000000056,-7.544658946303570701
0.251000000000000056,-8.136596710127697918
0.252000000000000057,-8.708774361229016492
0.253000000000000058,-9.262994829870741853
0.254000000000000059,-9.800970727560398998
0.255000000000000060,-10.324299041140081457
0.256000000000000061,-10.834441282759650349
0.257000000000000062,-11.332708797114165122
0.258000000000000063,-11.820252853742237775
0.259000000000000064,-12.298059100871594040
0.260000000000000064,-12.766945925172766607
0.261000000000000065,-13.227566245896895225
0.262000000000000066,-13.680412269487106869
0.263000000000000067,-14.125822739344917167
0.264000000000000068,-14.563992232736358901
0.265000000000000069,-14.994982080817038650
0.266000000000000070,-15.418732516669711785
0.267000000000000071,-15.835075688553635231
0.268000000000000071,-16.243749209953314505
0.269000000000000072,-16.644409953392504065
0.270000000000000073,-17.036647830440465157
0.271000000000000074,-17.419999335149572772
0.272000000000000075,-17.793960661749316898
0.273000000000000076,-18.158000239333965453
0.274000000000000077,-18.511570556197391113
0.275000000000000078,-18.854119174158888939
0.276000000000000079,-19.185098858550524881
0.277000000000000079,-19.503976772429908237
0.278000000000000080,-19.810242704030418537
0.279000000000000081,-20.103416314505118123
0.280000000000000082,-20.383053408731257150
0.281000000000000083,-20.648751245428279333
0.282000000000000084,-20.900152914225426315
0.283000000000000085,-21.136950816739055625
0.284000000000000086,-21.358889296333920527
0.285000000000000087,-21.565766467202529100
0.286000000000000087,-21.757435297860418189
0.287000000000000088,-21.933804007277291959
0.288000000000000089,-22.094835833796569347
0.289000000000000090,-22.240548237884919303
0.290000000000000091,-22.371011599735759035
0.291000000000000092,-22.486347471959032163
0.292000000000000093,-22.586726446141984326
0.293000000000000094,-22.672365690076283329
0.294000000000000095,-22.743526210016380418
0.295000000000000095,-22.800509889555826248
0.296000000000000096,-22.843656353665558356
0.297000000000000097,-22.873339703205271434
0.298000000000000098,-22.889965161861486109
0.299000000000000099,-22.893965674041844238
0.300000000000000100,-22.885798488814071305
0.301000000000000101,-22.865941761562492474
0.302000000000000102,-22.834891201681870143
0.303000000000000103,-22.793156791367465530
0.304000000000000103,-22.741259597415911742
0.305000000000000104,-22.679728694944252254
0.306000000000000105,-22.609098219079537984
0.307000000000000106,-22.529904557979016033
0.308000000000000107,-22.442683698020868377
0.309000000000000108,-22.347968729660983911
0.310000000000000109,-22.246287520285186190
0.311000000000000110,-22.138160558398716660
0.312000000000000111,-22.024098971683194748
0.313000000000000111,-21.904602719812366729
0.314000000000000112,-21.780158961446705490
0.315000000000000113,-21.651240593516870803
0.316000000000000114,-21.518304959750899741
0.317000000000000115,-21.381792724391509353
0.318000000000000116,-21.242126906180320844
0.319000000000000117,-21.099712066946711531
0.320000000000000118,-20.954933648521642198
0.321000000000000119,-20.808157451192556664
0.322000000000000119,-20.659729246515816214
0.323000000000000120,-20.509974516999392335
0.324000000000000121,-20.359198314952223541
0.325000000000000122,-20.207685232660249852
0.326000000000000123,-20.055699475984276603
0.327000000000000124,-19.903485033473522492
0.328000000000000125,-19.751265933146193277
0.329000000000000126,-19.599246579194208095
0.330000000000000127,-19.447612161020380483
0.331000000000000127,-19.296529127205406695
0.332000000000000128,-19.146145717222754712
0.333000000000000129,-18.996592543968702671
0.334000000000000130,-18.847983220445478025
0.335000000000000131,-18.700415024225058858
0.336000000000000132,-18.553969593624554335
0.337000000000000133,-18.408713649837885384
0.338000000000000134,-18.264699739589779881
0.339000000000000135,-18.121966993203315610
0.340000000000000135,-17.980541893299069045
0.341000000000000136,-17.840439049669885918
0.342000000000000137,-17.701661976198330706
0.343000000000000138,-17.564203866002195298
0.344000000000000139,-17.428048361305023661
0.345000000000000140,-17.293170314833183454
0.346000000000000141,-17.159536539835709590
0.347000000000000142,-17.027106546108779384
0.348000000000000143,-16.895833259681246830
0.349000000000000143,-16.765663724080827279
0.350000000000000144,-16.636539781352329470
0.351000000000000145,-16.508398731238393964
0.352000000000000146,-16.381173967160417959
0.353000000000000147,-16.254795587851578631
0.354000000000000148,-16.129190983696091166
0.355000000000000149,-16.004285397017746106
0.356000000000000150,-15.880002455738273071
0.357000000000000151,-15.756264679990568567
0.358000000000000151,-15.632993961424840990
0.359000000000000152,-15.510112015086752635
0.360000000000000153,-15.387540803876722961
0.361000000000000154,-15.265202935718312105
0.362000000000000155,-15.143022033671911686
0.363000000000000156,-15.020923079328326821
0.364000000000000157,-14.898832729904807337
0.365000000000000158,-14.776679609545988470
0.366000000000000159,-14.654394575401658685
0.367000000000000159,-14.531910959115768023
0.368000000000000160,-14.409164784414993932
0.369000000000000161,-14.286094961531469849
0.370000000000000162,-14.162643459233866139
0.371000000000000163,-14.038755455274273487
0.372000000000000164,-13.914379466084323411
0.373000000000000165,-13.789467456575923876
0.374000000000000166,-13.663974930916822359
0.375000000000000167,-13.537861005162664441
0.376000000000000167,-13.411088462633093954
0.377000000000000168,-13.283623792921616769
0.378000000000000169,-13.155437215427216557
0.379000000000000170,-13.026502688290714005
0.380000000000000171,-12.896797903610082159
0.381000000000000172,-12.766304269798400384
0.382000000000000173,-12.635006881933700029
0.383000000000000174,-12.502894480934800825
0.384000000000000175,-12.369959402378471580
0.385000000000000175,-12.236197515754229315
0.386000000000000176,-12.101608154931410510
0.387000000000000177,-11.966194040590821146
0.388000000000000178,-11.829961195349643077
0.389000000000000179,-11.692918852283646913
0.390000000000000180,-11.555079357525663397
0.391000000000000181,-11.416458067593165282
0.392000000000000182,-11.277073242071955050
0.393000000000000183,-11.136945932255962077
0.394000000000000183,-10.996099866316871640
0.395000000000000184,-10.854561331550367953
0.396000000000000185,-10.712359054219097843
0.397000000000000186,-10.569524077486232017
0.398000000000000187,-10.426089637906931884
0.399000000000000188,-10.282091040919343783
0.400000000000000189,-10.137565535751329904
0.401000000000000190,-9.992552190133645595
0.402000000000000191,-9.847091765186522849
0.403000000000000191,-9.701226590821876883
0.404000000000000192,-9.555000441980478598
0.405000000000000193,-9.408458416000661018
0.406000000000000194,-9.261646811392880707
0.407000000000000195,-9.114613008273490635
0.408000000000000196,-8.967405350689986676
0.409000000000000197,-8.820073031050466028
0.410000000000000198,-8.672665976850803204
0.411000000000000199,-8.525234739874445467
0.412000000000000199,-8.377830388022257324
0.413000000000000200,-8.230504399912993208
0.414000000000000201,-8.083308562378627826
0.415000000000000202,-7.936294870963424231
0.416000000000000203,-7.789515433521223997
0.417000000000000204,-7.643022376990930233
0.418000000000000205,-7.496867757417620126
0.419000000000000206,-7.351103473273721711
0.420000000000000207,-7.205781182122942496
0.421000000000000207,-7.060952220658871070
0.422000000000000208,-6.916667528139046617
0.423000000000000209,-6.772977573226162562
0.424000000000000210,-6.629932284238298834
0.425000000000000211,-6.487580982801789631
0.426000000000000212,-6.345972320892274254
0.427000000000000213,-6.205154221241892643
0.428000000000000214,-6.065173821083961414
0.429000000000000214,-5.926077419199820007
0.430000000000000215,-5.787910426226833494
0.431000000000000216,-5.650717318181302851
0.432000000000000217,-5.514541593144754117
0.433000000000000218,-5.379425731058077531
0.434000000000000219,-5.245411156563649868
0.435000000000000220,-5.112538204832167921
0.436000000000000221,-4.980846090307549545
0.437000000000000222,-4.850372878300500901
0.438000000000000222,-4.721155459358906015
0.439000000000000223,-4.593229526340900648
0.440000000000000224,-4.466629554114766698
0.441000000000000225,-4.341388781808137587
0.442000000000000226,-4.217539197527949923
0.443000000000000227,-4.095111525471275549
0.444000000000000228,-3.974135215346708438
0.445000000000000229,-3.854638434025305482
0.446000000000000230,-3.736648059339857664
0.447000000000000230,-3.620189675951162478
0.448000000000000231,-3.505287573200100759
0.449000000000000232,-3.391964744864524928
0.450000000000000233,-3.280242890740570516
0.451000000000000234,-3.170142419968415393
0.452000000000000235,-3.061682456023431698
0.453000000000000236,-2.954880843294358517
0.454000000000000237,-2.849754155171367209
0.455000000000000238,-2.746317703567654256
0.456000000000000238,-2.644585549799785884
0.457000000000000239,-2.544570516752848732
0.458000000000000240,-2.446284202258373064
0.459000000000000241,-2.349736993613786407
0.460000000000000242,-2.254938083174317320
0.461000000000000243,-2.161895484949243773
0.462000000000000244,-2.070616052136453611
0.463000000000000245,-1.981105495530501859
0.464000000000000246,-1.893368402741397505
0.465000000000000246,-1.807408258162874315
0.466000000000000247,-1.723227463630588874
0.467000000000000248,-1.640827359712524025
0.468000000000000249,-1.560208247575712637
0.469000000000000250,-1.481369411374909406
0.470000000000000251,-1.404309141110934300
0.471000000000000252,-1.329024755907850075
0.472000000000000253,-1.255512627660232639
0.473000000000000254,-1.183768205003287388
0.474000000000000254,-1.113786037560454911
0.475000000000000255,-1.045559800424856522
0.476000000000000256,-0.979082318832598553
0.477000000000000257,-0.914345592987793387
0.478000000000000258,-0.851340823000603208
0.479000000000000259,-0.790058433901511536
0.480000000000000260,-0.730488100696508380
0.481000000000000261,-0.672618773429453976
0.482000000000000262,-0.616438702219663015
0.483000000000000262,-0.561935462243986938
0.484000000000000263,-0.509095978634485080
0.485000000000000264,-0.457906551264005646
0.486000000000000265,-0.408352879393662271
0.487000000000000266,-0.360420086157445863
0.488000000000000267,-0.314092742860594742
0.489000000000000268,-0.269354893069900903
0.490000000000000269,-0.226190076475059676
0.491000000000000270,-0.184581352501874851
0.492000000000000270,-0.144511323658961383
0.493000000000000271,-0.105962158601155293
0.494000000000000272,-0.068915614893668861
0.495000000000000273,-0.033353061462420230
0.496000000000000274,0.000744499283051914
0.497000000000000275,0.033396409666708565
0.498000000000000276,0.064622335314535831
0.499000000000000277,0.094442244085122834
0.500000000000000222,0.122876385371778876
0.501000000000000334,0.149945269784921370
0.502000000000000224,0.175669649222396890
0.503000000000000336,0.200070497334851660
0.504000000000000226,0.223168990392039746
0.505000000000000338,0.244986488555641813
0.506000000000000227,0.265544517562923577
0.507000000000000339,0.284864750825378266
0.508000000000000229,0.302968991945299027
0.509000000000000341,0.319879157652961932
0.510000000000000231,0.335617261166198388
0.511000000000000343,0.350205395973791189
0.512000000000000233,0.363665720043304608
0.513000000000000345,0.376020440453629867
0.514000000000000234,0.387291798451812386
0.515000000000000346,0.397502054933498550
0.516000000000000236,0.406673476345579654
0.517000000000000348,0.414828321009387602
0.518000000000000238,0.421988825862336103
0.519000000000000350,0.428177193615413010
0.520000000000000240,0.433415580323700422
0.521000000000000352,0.437726083366652585
0.522000000000000242,0.441130729834602886
0.523000000000000353,0.443651465317580151
0.524000000000000243,0.445310143092353339
0.525000000000000355,0.446128513703261731
0.526000000000000245,0.446128214932148826
0.527000000000000357,0.445330762152561288
0.528000000000000247,0.443757539063057926
0.529000000000000359,0.441429788794404310
0.530000000000000249,0.438368605385109356
0.531000000000000361,0.434594925619732286
0.532000000000000250,0.430129521224128619
0.533000000000000362,0.424992991411749454
0.534000000000000252,0.419205755774988031
0.535000000000000364,0.412788047515309287
0.536000000000000254,0.405759907006111864
0.537000000000000366,0.398141175681823667
0.538000000000000256,0.389951490246963850
0.539000000000000368,0.381210277198659186
0.540000000000000258,0.371936747656142486
0.541000000000000369,0.362149892490663039
0.542000000000000259,0.351868477749301245
0.543000000000000371,0.341111040366027685
0.544000000000000261,0.329895884153432351
0.545000000000000373,0.318241076068542073
0.546000000000000263,0.306164442746110488
0.547000000000000375,0.293683567292716385
0.548000000000000265,0.280815786335262274
0.549000000000000377,0.267578187317107585
0.550000000000000266,0.253987606035553093
0.551000000000000378,0.240060624413962309
0.552000000000000268,0.225813568502262946
0.553000000000000380,0.211262506699329833
0.554000000000000270,0.196423248190961519
0.555000000000000382,0.181311341597108711
0.556000000000000272,0.165942073822202385
0.557000000000000384,0.150330469102366915
0.558000000000000274,0.134491288243435203
0.559000000000000385,0.118439028043761385
0.560000000000000275,0.102187920895880441
0.561000000000000387,0.085751934561104040
0.562000000000000277,0.069144772111370684
0.563000000000000389,0.052379872032490747
0.564000000000000279,0.035470408483318283
0.565000000000000391,0.018429291705165208
0.566000000000000281,0.001269168576183177
0.567000000000000393,-0.015997576694833749
0.568000000000000282,-0.033358821740332133
0.569000000000000394,-0.050802705076865594
0.570000000000000284,-0.068317625023878392
0.571000000000000396,-0.085892238503595703
0.572000000000000286,-0.103515459726703479
0.573000000000000398,-0.121176458768759973
0.574000000000000288,-0.138864660041930543
0.575000000000000400,-0.156569740666789831
0.576000000000000290,-0.174281628748491041
0.577000000000000401,-0.191990501561939031
0.578000000000000291,-0.209686783650107872
0.579000000000000403,-0.227361144839794443
0.580000000000000293,-0.245004498178892971
0.581000000000000405,-0.262607997799312098
0.582000000000000295,-0.280163036709255853
0.583000000000000407,-0.297661244518968693
0.584000000000000297,-0.315094485103420863
0.585000000000000409,-0.332454854205813721
0.586000000000000298,-0.349734676985230086
0.587000000000000410,-0.366926505512122358
0.588000000000000300,-0.384023116214767202
0.589000000000000412,-0.401017507280189811
0.590000000000000302,-0.417902896012540548
0.591000000000000414,-0.434672716152212868
0.592000000000000304,-0.451320615158526173
0.593000000000000416,-0.467840451459069773
0.594000000000000306,-0.484226291668403142
0.595000000000000417,-0.500472407779003037
0.596000000000000307,-0.516573274326962761
0.597000000000000419,-0.532523565535208965
0.598000000000000309,-0.548318152436641837
0.599000000000000421,-0.563952099979607935
0.600000000000000311,-0.579420664118142303
0.601000000000000423,-0.594719288889212772
0.602000000000000313,-0.609843603479104379
0.603000000000000425,-0.624789419281206460
0.604000000000000314,-0.639552726947091865
0.605000000000000426,-0.654129693433023074
0.606000000000000316,-0.668516659043667083
0.607000000000000428,-0.682710134474933561
0.608000000000000318,-0.696706797857691185
0.609000000000000430,-0.710503491804092113
0.610000000000000320,-0.724097220458055357
0.611000000000000432,-0.737485146551652981
0.612000000000000322,-0.750664588468724969
0.613000000000000433,-0.763633017317336460
0.614000000000000323,-0.776388054012389306
0.615000000000000435,-0.788927466369763186
0.616000000000000325,-0.801249166213209740
0.617000000000000437,-0.813351206495343204
0.618000000000000327,-0.825231778433753504
0.619000000000000439,-0.836889208663489037
0.620000000000000329,-0.848321956406896782
0.621000000000000441,-0.859528610661864256
0.622000000000000330,-0.870507887409446957
0.623000000000000442,-0.881258626841787462
0.624000000000000332,-0.891779790611161305
0.625000000000000444,-0.902070459101092403
0.626000000000000334,-0.912129828720165237
0.627000000000000446,-0.921957209219432583
0.628000000000000336,-0.931552021033999034
0.629000000000000448,-0.940913792649518910
0.630000000000000338,-0.950042157994157144
0.631000000000000449,-0.958936853856695692
0.632000000000000339,-0.967597717331221574
0.633000000000000451,-0.976024683288977402
0.634000000000000341,-0.984217781877803288
0.635000000000000453,-0.992177136049691599
0.636000000000000343,-0.999902959116700907
0.637000000000000455,-1.007395552335832001
0.638000000000000345,-1.014655302522957658
0.639000000000000457,-1.021682679696345852
0.640000000000000346,-1.028478234749889308
0.641000000000000458,-1.035042597156432542
0.642000000000000348,-1.041376472701301514
0.643000000000000460,-1.047480641246356425
0.644000000000000350,-1.053355954524655136
0.645000000000000462,-1.059003333965943261
0.646000000000000352,-1.064423768553039551
0.647000000000000464,-1.069618312709310626
0.648000000000000353,-1.074588084217212858
0.649000000000000465,-1.079334262168071046
0.650000000000000355,-1.083858084943052580
0.651000000000000467,-1.088160848225415034
0.652000000000000357,-1.092243903044018527
0.653000000000000469,-1.096108653848061554
0.654000000000000359,-1.099756556613071368
0.655000000000000471,-1.103189116978033457
0.656000000000000361,-1.106407888413639018
0.657000000000000473,-1.109414470421572041
0.658000000000000362,-1.112210506764714335
0.659000000000000474,-1.114797683728191879
0.660000000000000364,-1.117177728411116622
0.661000000000000476,-1.119352407048923359
