# Ag322_CS-16629-AC
# h[nm],U(h)[kJ/mol]
0.149999999999999994,100.871932792527033484
0.150999999999999995,96.015251955344780299
0.151999999999999996,91.614281426065858227
0.152999999999999997,87.395305397515471668
0.153999999999999998,83.272214617481395749
0.154999999999999999,79.235208593758784446
0.156000000000000000,75.296676235307529623
0.157000000000000001,71.468279168486503750
0.158000000000000002,67.753928800291589596
0.159000000000000002,64.149977956343008145
0.160000000000000003,60.647971866165867993
0.161000000000000004,57.237670966198017197
0.162000000000000005,53.909392880754765542
0.163000000000000006,50.655427267990681628
0.164000000000000007,47.470613150671837843
0.165000000000000008,44.352295682584006897
0.166000000000000009,41.299896996251327153
0.167000000000000010,38.314302441587557269
0.168000000000000010,35.397212305102058849
0.169000000000000011,32.550557456567993597
0.170000000000000012,29.776033400587579081
0.171000000000000013,27.074773662613843328
0.172000000000000014,24.447160211378768935
0.173000000000000015,21.892754268989005340
0.174000000000000016,19.410323473739644839
0.175000000000000017,16.997939031532840914
0.176000000000000018,14.653117547570065682
0.177000000000000018,12.372985320806233034
0.178000000000000019,10.154446988769704419
0.179000000000000020,7.994344804805753490
0.180000000000000021,5.889599034356246321
0.181000000000000022,3.837323684692229619
0.182000000000000023,1.834914889761077417
0.183000000000000024,-0.119888284516177099
0.184000000000000025,-2.028969045377742475
0.185000000000000026,-3.893821291718767785
0.186000000000000026,-5.715557711794089002
0.187000000000000027,-7.494933687505704434
0.188000000000000028,-9.232383102538978648
0.189000000000000029,-10.928062347121459297
0.190000000000000030,-12.581899161253867092
0.191000000000000031,-14.193643400740182159
0.192000000000000032,-15.762917297970608033
0.193000000000000033,-17.289263285073353416
0.194000000000000034,-18.772187923536627352
0.195000000000000034,-20.211200922997086593
0.196000000000000035,-21.605848620864733789
0.197000000000000036,-22.955741627685274153
0.198000000000000037,-24.260576618802108584
0.199000000000000038,-25.520152472327954030
0.200000000000000039,-26.734381120251718755
0.201000000000000040,-27.903293598716267354
0.202000000000000041,-29.027041860949225338
0.203000000000000042,-30.105896958187400969
0.204000000000000042,-31.140244206359191992
0.205000000000000043,-32.130575945138751592
0.206000000000000044,-33.077482466673828299
0.207000000000000045,-33.981641648654559162
0.208000000000000046,-34.843807774666714749
0.209000000000000047,-35.664799967558558080
0.210000000000000048,-36.445490601836937117
0.211000000000000049,-37.186794001308243196
0.212000000000000050,-37.889655670189100078
0.213000000000000050,-38.555042251143284204
0.214000000000000051,-39.183932353180281893
0.215000000000000052,-39.777308346733647682
0.216000000000000053,-40.336149182905138844
0.217000000000000054,-40.861424258949135435
0.218000000000000055,-41.354088322531751487
0.219000000000000056,-41.815077382932756223
0.220000000000000057,-42.245305577868450086
0.221000000000000058,-42.645662929612875303
0.222000000000000058,-43.017013913168781869
0.223000000000000059,-43.360196751926856962
0.224000000000000060,-43.676023352099392127
0.225000000000000061,-43.965279785770022158
0.226000000000000062,-44.228727233226550197
0.227000000000000063,-44.467103297935203443
0.228000000000000064,-44.681123611689045561
0.229000000000000065,-44.871483652781172680
0.230000000000000066,-45.038860706203735162
0.231000000000000066,-45.183915901587930364
0.232000000000000067,-45.307296271642016450
0.233000000000000068,-45.409636781013546170
0.234000000000000069,-45.491562282630241043
0.235000000000000070,-45.553689365524263621
0.236000000000000071,-45.596628064805159397
0.237000000000000072,-45.620983410734829988
0.238000000000000073,-45.627356799707470714
0.239000000000000073,-45.616347175306152906
0.240000000000000074,-45.588552012468468888
0.241000000000000075,-45.544568102134093124
0.242000000000000076,-45.484992137563509118
0.243000000000000077,-45.410421106823179116
0.244000000000000078,-45.321452498741770398
0.245000000000000079,-45.218684331977478053
0.246000000000000080,-45.102715018729270469
0.247000000000000081,-44.974143076103210603
0.248000000000000081,-44.833566699242865639
0.249000000000000082,-44.681583211086646656
0.250000000000000111,-44.518788404058589947
0.251000000000000112,-44.345775789166069103
0.252000000000000113,-44.163135767907398588
0.253000000000000114,-43.971454742109230551
0.254000000000000115,-43.771314176357527970
0.255000000000000115,-43.563289627079825550
0.256000000000000116,-43.347949751610897806
0.257000000000000117,-43.125855309754044242
0.258000000000000118,-42.897558169456246446
0.259000000000000119,-42.663600327272426682
0.260000000000000120,-42.424512953317012887
0.261000000000000121,-42.180815469407420437
0.262000000000000122,-41.933014668109734657
0.263000000000000123,-41.681603879412470803
0.264000000000000123,-41.427062190790778118
0.265000000000000124,-41.169853725491307728
0.266000000000000125,-40.910426982972673215
0.267000000000000126,-40.649214244584371158
0.268000000000000127,-40.386631046764335906
0.269000000000000128,-40.123075723283143645
0.270000000000000129,-39.858929017365120728
0.271000000000000130,-39.594553763874579033
0.272000000000000131,-39.330294641169309955
0.273000000000000131,-39.066477991693041361
0.274000000000000132,-38.803411709904047200
0.275000000000000133,-38.541385195716500789
0.276000000000000134,-38.280669371262625589
0.277000000000000135,-38.021516758466418651
0.278000000000000136,-37.764161614649623289
0.279000000000000137,-37.508820123166970006
0.280000000000000138,-37.255690635886992368
0.281000000000000139,-37.004953964193234128
0.282000000000000139,-36.756773715077862619
0.283000000000000140,-36.511296668830723888
0.284000000000000141,-36.268653194788804228
0.285000000000000142,-36.028957701603573582
0.286000000000000143,-35.792309118499922249
0.287000000000000144,-35.558791404041627970
0.288000000000000145,-35.328474078979787976
0.289000000000000146,-35.101412779839648692
0.290000000000000147,-34.877649829996933306
0.291000000000000147,-34.657214825103636713
0.292000000000000148,-34.440125229843765453
0.293000000000000149,-34.226386983129238217
0.294000000000000150,-34.015995108983815953
0.295000000000000151,-33.808934330506687616
0.296000000000000152,-33.605179684454853373
0.297000000000000153,-33.404697134135027170
0.298000000000000154,-33.207444178447907746
0.299000000000000155,-33.013370455080938370
0.300000000000000155,-32.822418335998655436
0.301000000000000156,-32.634523513530226069
0.302000000000000157,-32.449615575503074183
0.303000000000000158,-32.267618568017084613
0.304000000000000159,-32.088451544596068743
0.305000000000000160,-31.912029100590721953
0.306000000000000161,-31.738261891841158757
0.307000000000000162,-31.567057136734497647
0.308000000000000163,-31.398319100916456392
0.309000000000000163,-31.231949564032770894
0.310000000000000164,-31.067848267987734800
0.311000000000000165,-30.905913346312853918
0.312000000000000166,-30.746041734338142248
0.313000000000000167,-30.588129559952058401
0.314000000000000168,-30.432072514823989451
0.315000000000000169,-30.277766206044482544
0.316000000000000170,-30.125106488214605349
0.317000000000000171,-29.973989776085780079
0.318000000000000171,-29.824313337915555167
0.319000000000000172,-29.675975569764517559
0.320000000000000173,-29.528876251012366794
0.321000000000000174,-29.382916781420213681
0.322000000000000175,-29.238000400109946497
0.323000000000000176,-29.094032386869777440
0.324000000000000177,-28.950920246230264610
0.325000000000000178,-28.808573874784389801
0.326000000000000179,-28.666905712251985250
0.327000000000000179,-28.525830876810505998
0.328000000000000180,-28.385267285232522738
0.329000000000000181,-28.245135758386112457
0.330000000000000182,-28.105360112664850902
0.331000000000000183,-27.965867237924566524
0.332000000000000184,-27.826587162508456430
0.333000000000000185,-27.687453105946836729
0.334000000000000186,-27.548401519918161995
0.335000000000000187,-27.409372118056914758
0.336000000000000187,-27.270307895191042036
0.337000000000000188,-27.131155136586038168
0.338000000000000189,-26.991863417766712274
0.339000000000000190,-26.852385595478885705
0.340000000000000191,-26.712677790343782647
0.341000000000000192,-26.572699361747584845
0.342000000000000193,-26.432412875495707283
0.343000000000000194,-26.291784064749684546
0.344000000000000195,-26.150781784749803194
0.345000000000000195,-26.009377961813207492
0.346000000000000196,-25.867547537081584608
0.347000000000000197,-25.725268405477418554
0.348000000000000198,-25.582521350311857589
0.349000000000000199,-25.439289973971181524
0.350000000000000200,-25.295560625092448959
0.351000000000000201,-25.151322322622341687
0.352000000000000202,-25.006566677136753185
0.353000000000000203,-24.861287809782119496
0.354000000000000203,-24.715482269182718511
0.355000000000000204,-24.569148946641917064
0.356000000000000205,-24.422288989949187510
0.357000000000000206,-24.274905716088301944
0.358000000000000207,-24.127004523126394986
0.359000000000000208,-23.978592801548309410
0.360000000000000209,-23.829679845284822193
0.361000000000000210,-23.680276762668921009
0.362000000000000210,-23.530396387539280312
0.363000000000000211,-23.380053190696273191
0.364000000000000212,-23.229263191901743824
0.365000000000000213,-23.078043872600467523
0.366000000000000214,-22.926414089528321938
0.367000000000000215,-22.774393989359325019
0.368000000000000216,-22.622004924532120640
0.369000000000000217,-22.469269370384125750
0.370000000000000218,-22.316210843711001388
0.371000000000000218,-22.162853822857705666
0.372000000000000219,-22.009223669437503190
0.373000000000000220,-21.855346551765180152
0.374000000000000221,-21.701249370081338697
0.375000000000000222,-21.546959683635510174
0.376000000000000223,-21.392505639687296792
0.377000000000000224,-21.237915904476807327
0.378000000000000225,-21.083219596207378288
0.379000000000000226,-20.928446220076711626
0.380000000000000226,-20.773625605385522164
0.381000000000000227,-20.618787844745860127
0.382000000000000228,-20.463963235405760344
0.383000000000000229,-20.309182222700414400
0.384000000000000230,-20.154475345634988770
0.385000000000000231,-19.999873184599117337
0.386000000000000232,-19.845406311208133587
0.387000000000000233,-19.691105240261826737
0.388000000000000234,-19.537000383807310300
0.389000000000000234,-19.383122007288996258
0.390000000000000235,-19.229500187764642760
0.391000000000000236,-19.076164774163906657
0.392000000000000237,-18.923145349562037865
0.393000000000000238,-18.770471195439554890
0.394000000000000239,-18.618171257895252069
0.395000000000000240,-18.466274115778649190
0.396000000000000241,-18.314807950705230155
0.397000000000000242,-18.163800518916289661
0.398000000000000242,-18.013279124943878173
0.399000000000000243,-17.863270597039321075
0.400000000000000244,-17.713801264323109308
0.401000000000000245,-17.564896935612750895
0.402000000000000246,-17.416582879884195734
0.403000000000000247,-17.268883808321596973
0.404000000000000248,-17.121823857910083433
0.405000000000000249,-16.975426576525229905
0.406000000000000250,-16.829714909472812678
0.407000000000000250,-16.684711187432338164
0.408000000000000251,-16.540437115757480768
0.409000000000000252,-16.396913765086932102
0.410000000000000253,-16.254161563218854525
0.411000000000000254,-16.112200288202746634
0.412000000000000255,-15.971049062602592272
0.413000000000000256,-15.830726348885505672
0.414000000000000257,-15.691249945890636042
0.415000000000000258,-15.552636986333586933
0.416000000000000258,-15.414903935302092464
0.417000000000000259,-15.278066589699339062
0.418000000000000260,-15.142140078592097652
0.419000000000000261,-15.007138864421301960
0.420000000000000262,-14.873076745033742441
0.421000000000000263,-14.739966856494202574
0.422000000000000264,-14.607821676638049979
0.423000000000000265,-14.476653029325401434
0.424000000000000266,-14.346472089358766056
0.425000000000000266,-14.217289388026795649
0.426000000000000267,-14.089114819237931187
0.427000000000000268,-13.961957646208485784
0.428000000000000269,-13.835826508670752588
0.429000000000000270,-13.710729430567605291
0.430000000000000271,-13.586673828200996894
0.431000000000000272,-13.463666518802821059
0.432000000000000273,-13.341713729497389096
0.433000000000000274,-13.220821106625985308
0.434000000000000274,-13.100993725404597612
0.435000000000000275,-12.982236099887131786
0.436000000000000276,-12.864552193207353881
0.437000000000000277,-12.747945428073419905
0.438000000000000278,-12.632418697490269466
0.439000000000000279,-12.517974375685781752
0.440000000000000280,-12.404614329217384494
0.441000000000000281,-12.292339928237119295
0.442000000000000282,-12.181152057893603669
0.443000000000000282,-12.071051129850550510
0.444000000000000283,-11.962037093902067042
0.445000000000000284,-11.854109449666086817
0.446000000000000285,-11.747267258337753759
0.447000000000000286,-11.641509154485932598
0.448000000000000287,-11.536833357875986295
0.449000000000000288,-11.433237685303746289
0.450000000000000289,-11.330719562425370484
0.451000000000000290,-11.229276035569267123
0.452000000000000290,-11.128903783516562953
0.453000000000000291,-11.029599129237425359
0.454000000000000292,-10.931358051571288925
0.455000000000000293,-10.834176196839511164
0.456000000000000294,-10.738048890379907618
0.457000000000000295,-10.642971147992916769
0.458000000000000296,-10.548937687290015575
0.459000000000000297,-10.455942938935518072
0.460000000000000298,-10.363981057773317573
0.461000000000000298,-10.273045933830905696
0.462000000000000299,-10.183131203193408254
0.463000000000000300,-10.094230258740870099
0.464000000000000301,-10.006336260742605404
0.465000000000000302,-9.919442147302884649
0.466000000000000303,-9.833540644652613238
0.467000000000000304,-9.748624277282159412
0.468000000000000305,-9.664685377911050423
0.469000000000000306,-9.581716097290323475
0.470000000000000306,-9.499708413834172305
0.471000000000000307,-9.418654143077372254
0.472000000000000308,-9.338544946955998682
0.473000000000000309,-9.259372342908545050
0.474000000000000310,-9.181127712795523976
0.475000000000000311,-9.103802311635565303
0.476000000000000312,-9.027387276156627394
0.477000000000000313,-8.951873633160762012
0.478000000000000314,-8.877252307701786194
0.479000000000000314,-8.803514131074935634
0.480000000000000315,-8.730649848618082132
0.481000000000000316,-8.658650127324360568
0.482000000000000317,-8.587505563266107700
0.483000000000000318,-8.517206688830418315
0.484000000000000319,-8.447743979766659805
0.485000000000000320,-8.379107862046698330
0.486000000000000321,-8.311288718538492049
0.487000000000000322,-8.244276895494117241
0.488000000000000322,-8.178062708853307328
0.489000000000000323,-8.112636450363869045
0.490000000000000324,-8.047988393520345340
0.491000000000000325,-7.984108799322534367
0.492000000000000326,-7.920987921855480174
0.493000000000000327,-7.858616013692890867
0.494000000000000328,-7.796983331125723282
0.495000000000000329,-7.736080139218145746
0.496000000000000330,-7.675896716692807153
0.497000000000000330,-7.616423360647758045
0.498000000000000331,-7.557650391107228138
0.499000000000000332,-7.499568155408636194
0.500000000000000333,-7.442167032428246287
0.501000000000000334,-7.385437436647956488
0.502000000000000335,-7.329369822065717521
0.503000000000000336,-7.273954685952264576
0.504000000000000337,-7.219182572456629643
0.505000000000000338,-7.165044076063241008
0.506000000000000338,-7.111529844903239805
0.507000000000000339,-7.058630583922706592
0.508000000000000340,-7.006337057910644539
0.509000000000000341,-6.954640094389397120
0.510000000000000342,-6.903530586370291822
0.511000000000000343,-6.852999494977360939
0.512000000000000344,-6.803037851941899916
0.513000000000000345,-6.753636761970628122
0.514000000000000346,-6.704787404990375066
0.515000000000000346,-6.656481038271981454
0.516000000000000347,-6.608708998436239490
0.517000000000000348,-6.561462703344787428
0.518000000000000349,-6.514733653878479913
0.519000000000000350,-6.468513435606287665
0.520000000000000351,-6.422793720347296009
0.521000000000000352,-6.377566267628593799
0.522000000000000353,-6.332822926041774991
0.523000000000000353,-6.288555634500694325
0.524000000000000354,-6.244756423403268641
0.525000000000000355,-6.201417415699788549
0.526000000000000356,-6.158530827870526636
0.527000000000000357,-6.116088970815143355
0.528000000000000358,-6.074084250656441419
0.529000000000000359,-6.032509169461048870
0.530000000000000360,-5.991356325879499956
0.531000000000000361,-5.950618415708175846
0.532000000000000361,-5.910288232375533468
0.533000000000000362,-5.870358667355013438
0.534000000000000363,-5.830822710507048257
0.535000000000000364,-5.791673450352360142
0.536000000000000365,-5.752904074278968771
0.537000000000000366,-5.714507868685111625
0.538000000000000367,-5.676478219060218322
0.539000000000000368,-5.638808610006255329
0.540000000000000369,-5.601492625201418107
0.541000000000000369,-5.564523947308368967
0.542000000000000370,-5.527896357829063412
0.543000000000000371,-5.491603736908105660
0.544000000000000372,-5.455640063086731217
0.545000000000000373,-5.419999413009231048
0.546000000000000374,-5.384675961083805085
0.547000000000000375,-5.349663979099614330
0.548000000000000376,-5.314957835801977559
0.549000000000000377,-5.280551996427358397
0.550000000000000377,-5.246441022199920035
0.551000000000000378,-5.212619569791408836
0.552000000000000379,-5.179082390745951336
0.553000000000000380,-5.145824330871413110
0.554000000000000381,-5.112840329598899558
0.555000000000000382,-5.080125419311980473
0.556000000000000383,-5.047674724647033706
0.557000000000000384,-5.015483461766346629
0.558000000000000385,-4.983546937605232152
0.559000000000000385,-4.951860549094686093
0.560000000000000386,-4.920419782360863081
0.561000000000000387,-4.889220211902731705
0.562000000000000388,-4.858257499749212727
0.563000000000000389,-4.827527394596961230
0.564000000000000390,-4.797025730930133847
0.565000000000000391,-4.766748428123233516
0.566000000000000392,-4.736691489528213062
0.567000000000000393,-4.706851001546957569
0.568000000000000393,-4.677223132690203400
0.569000000000000394,-4.647804132623963191
0.570000000000000395,-4.618590331204496913
0.571000000000000396,-4.589578137502746458
0.572000000000000397,-4.560764038819278277
0.573000000000000398,-4.532144599690580478
0.574000000000000399,-4.503716460887686068
0.575000000000000400,-4.475476338407909260
0.576000000000000401,-4.447421022460601669
0.577000000000000401,-4.419547376447718001
0.578000000000000402,-4.391852335939951502
0.579000000000000403,-4.364332907649214555
0.580000000000000404,-4.336986168398214048
0.581000000000000405,-4.309809264087797409
0.582000000000000406,-4.282799408662737228
0.583000000000000407,-4.255953883076651678
0.584000000000000408,-4.229270034256662925
0.585000000000000409,-4.202745274068393044
0.586000000000000409,-4.176377078281889865
0.587000000000000410,-4.150162985539060934
0.588000000000000411,-4.124100596323121870
0.589000000000000412,-4.098187571930592021
0.590000000000000413,-4.072421633446319689
0.591000000000000414,-4.046800560722052964
0.592000000000000415,-4.021322191358948750
0.593000000000000416,-3.995984419694491585
0.594000000000000417,-3.970785195794236166
0.595000000000000417,-3.945722524448794566
0.596000000000000418,-3.920794464176334593
0.597000000000000419,-3.895999126231151966
0.598000000000000420,-3.871334673618426425
0.599000000000000421,-3.846799320115690701
0.600000000000000422,-3.822391329301183305
0.601000000000000423,-3.798109013589470173
0.602000000000000424,-3.773950733274534119
0.603000000000000425,-3.749914895580683805
0.604000000000000425,-3.725999953721457647
0.605000000000000426,-3.702204405966790457
0.606000000000000427,-3.678526794718687931
