# Ag322_CS-72545-AC
# h[nm],U(h)[kJ/mol]
0.200000000000000011,87.364764843381038872
0.201000000000000012,82.555100771437196272
0.202000000000000013,79.780900974241689028
0.203000000000000014,77.966565350785202781
0.204000000000000015,76.492586971919394045
0.205000000000000016,75.033855296687534064
0.206000000000000016,73.447893783875912277
0.207000000000000017,71.699166258295150556
0.208000000000000018,69.809134361766695065
0.209000000000000019,67.824443676729217145
0.210000000000000020,65.797654036279226375
0.211000000000000021,63.776462326883688547
0.212000000000000022,61.798512057023287980
0.213000000000000023,59.889734854940989806
0.214000000000000024,58.064795838188715038
0.215000000000000024,56.328672201501376549
0.216000000000000025,54.678724478418416766
0.217000000000000026,53.106854983099005096
0.218000000000000027,51.601512529464706347
0.219000000000000028,50.149415339211060427
0.220000000000000029,48.736939208186377925
0.221000000000000030,47.351166110536311749
0.222000000000000031,45.980617398479374458
0.223000000000000032,44.615711464171724288
0.224000000000000032,43.248992468638633113
0.225000000000000033,41.875177630322873767
0.226000000000000034,40.491067834342892695
0.227000000000000035,39.095361542935549437
0.228000000000000036,37.688406237649971331
0.229000000000000037,36.271915625408006179
0.230000000000000038,34.848675054183608779
0.231000000000000039,33.422252284745368911
0.232000000000000040,31.996726097557040447
0.233000000000000040,30.576441234525770341
0.234000000000000041,29.165794881078575429
0.235000000000000042,27.769057245382803956
0.236000000000000043,26.390226727437173793
0.237000000000000044,25.032918619845890618
0.238000000000000045,23.700285169934456775
0.239000000000000046,22.394964086917958923
0.240000000000000047,21.119052130407077073
0.241000000000000048,19.874100206545044500
0.242000000000000048,18.661126371775942800
0.243000000000000049,17.480643255443560236
0.244000000000000050,16.332696622177998336
0.245000000000000051,15.216912071147143948
0.246000000000000052,14.132547185673832502
0.247000000000000053,13.078546782751345745
0.248000000000000054,12.053599251627474587
0.249000000000000055,11.056192301835725544
0.250000000000000056,10.084666755121778792
0.251000000000000056,9.137267306680719514
0.252000000000000057,8.212189445233207152
0.253000000000000058,7.307621956744864811
0.254000000000000059,6.421784642412148969
0.255000000000000060,5.552961058330417643
0.256000000000000061,4.699526233210749027
0.257000000000000062,3.859969443349119622
0.258000000000000063,3.032912222849651673
0.259000000000000064,2.217121864145177312
0.260000000000000064,1.411520721511687615
0.261000000000000065,0.615191670909979393
0.262000000000000066,-0.172619894592155904
0.263000000000000067,-0.952507141165956916
0.264000000000000068,-1.724905546769568643
0.265000000000000069,-2.490098940021347573
0.266000000000000070,-3.248227448116485672
0.267000000000000071,-3.999296994490106449
0.268000000000000071,-4.743190008963052762
0.269000000000000072,-5.479677038026044222
0.270000000000000073,-6.208428969718630341
0.271000000000000074,-6.929029615392710006
0.272000000000000075,-7.640988418806742288
0.273000000000000076,-8.343753090890816182
0.274000000000000077,-9.036721995687582165
0.275000000000000078,-9.719256139037749875
0.276000000000000079,-10.390690636262672086
0.277000000000000079,-11.050345558197184559
0.278000000000000080,-11.697536076301121355
0.279000000000000081,-12.331581847151630527
0.280000000000000082,-12.951815594348328631
0.281000000000000083,-13.557590861757196521
0.282000000000000084,-14.148288926107312591
0.283000000000000085,-14.723324869297195860
0.284000000000000086,-15.282152821443011348
0.285000000000000087,-15.824270394798485739
0.286000000000000087,-16.349222336300485381
0.287000000000000088,-16.856603432752741867
0.288000000000000089,-17.346060707662683598
0.289000000000000090,-17.817294952610065906
0.290000000000000091,-18.270061638856887498
0.291000000000000092,-18.704171256822288427
0.292000000000000093,-19.119489132142220456
0.293000000000000094,-19.515934767416869278
0.294000000000000095,-19.893480758511579154
0.295000000000000095,-20.252151333509814890
0.296000000000000096,-20.592020561199767315
0.297000000000000097,-20.913210274388180920
0.298000000000000098,-21.215887751442902953
0.299000000000000099,-21.500263197334291476
0.300000000000000100,-21.766587063130348412
0.301000000000000101,-22.015147240453320165
0.302000000000000102,-22.246266164869521020
0.303000000000000103,-22.460297859601642045
0.304000000000000103,-22.657624948354598615
0.305000000000000104,-22.838655663465182499
0.306000000000000105,-23.003820873045338402
0.307000000000000106,-23.153571148310579275
0.308000000000000107,-23.288373889887587609
0.309000000000000108,-23.408710529590521787
0.310000000000000109,-23.515073821957571454
0.311000000000000110,-23.607965237753987253
0.312000000000000111,-23.687892469684349805
0.313000000000000111,-23.755367058715663120
0.314000000000000112,-23.810902147699778197
0.315000000000000113,-23.855010367396811688
0.316000000000000114,-23.888201858541226130
0.317000000000000115,-23.910982432256613350
0.318000000000000116,-23.923851869911519685
0.319000000000000117,-23.927302362412905978
0.320000000000000118,-23.921817087951957603
0.321000000000000119,-23.907868926344054472
0.322000000000000119,-23.885919307335459649
0.323000000000000120,-23.856417189578497329
0.324000000000000121,-23.819798166398431505
0.325000000000000122,-23.776483693983905710
0.326000000000000123,-23.726880437221872455
0.327000000000000124,-23.671379728062163394
0.328000000000000125,-23.610357131031054934
0.329000000000000126,-23.544172110309993684
0.330000000000000127,-23.473167792651313590
0.331000000000000127,-23.397670820311507356
0.332000000000000128,-23.317991288138625094
0.333000000000000129,-23.234422758949719423
0.334000000000000130,-23.147242351371595248
0.335000000000000131,-23.056710894390086253
0.336000000000000132,-22.963073142953788874
0.337000000000000133,-22.866558049105712769
0.338000000000000134,-22.767379083266149564
0.339000000000000135,-22.665734600457785319
0.340000000000000135,-22.561808246449441384
0.341000000000000136,-22.455769398991261454
0.342000000000000137,-22.347773639522550582
0.343000000000000138,-22.237963250948400429
0.344000000000000139,-22.126467737303073591
0.345000000000000140,-22.013404361342949755
0.346000000000000141,-21.898878696338666572
0.347000000000000142,-21.782985188563561252
0.348000000000000143,-21.665807727201961796
0.349000000000000143,-21.547420218624111499
0.350000000000000144,-21.427887162195780490
0.351000000000000145,-21.307264225005823732
0.352000000000000146,-21.185598813106246041
0.353000000000000147,-21.062930637063679740
0.354000000000000148,-20.939292269819873127
0.355000000000000149,-20.814709695049380400
0.356000000000000150,-20.689202844386965552
0.357000000000000151,-20.562786122072758133
0.358000000000000151,-20.435468915731625827
0.359000000000000152,-20.307256092162738526
0.360000000000000153,-20.178148477167436425
0.361000000000000154,-20.048143318586703288
0.362000000000000155,-19.917234731854868812
0.363000000000000156,-19.785414127503365478
0.364000000000000157,-19.652670620167192794
0.365000000000000158,-19.518991418758300682
0.366000000000000159,-19.384362197573139497
0.367000000000000159,-19.248767448197490637
0.368000000000000160,-19.112190812160839926
0.369000000000000161,-18.974615394373120836
0.370000000000000162,-18.836024057452071645
0.371000000000000163,-18.696399697117136895
0.372000000000000164,-18.555725498887515101
0.373000000000000165,-18.413985176378094621
0.374000000000000166,-18.271163191536473391
0.375000000000000167,-18.127244957209192933
0.376000000000000167,-17.982217022464379141
0.377000000000000168,-17.836067241132560923
0.378000000000000169,-17.688784924056989212
0.379000000000000170,-17.540360975570731483
0.380000000000000171,-17.390788014738411960
0.381000000000000172,-17.240060481918856539
0.382000000000000173,-17.088174731217947055
0.383000000000000174,-16.935129109412734749
0.384000000000000175,-16.780924021934332302
0.385000000000000175,-16.625561986502628287
0.386000000000000176,-16.469047675007729481
0.387000000000000177,-16.311387944232546232
0.388000000000000178,-16.152591856008918114
0.389000000000000179,-15.992670687394673124
0.390000000000000180,-15.831637931453077073
0.391000000000000181,-15.669509289208008340
0.392000000000000182,-15.506302653338945419
0.393000000000000183,-15.342038084168800438
0.394000000000000183,-15.176737778486156571
0.395000000000000184,-15.010426031730361274
0.396000000000000185,-14.843129194054000664
0.397000000000000186,-14.674875620763128126
0.398000000000000187,-14.505695617620057547
0.399000000000000188,-14.335621381477926306
0.400000000000000189,-14.164686936700372044
0.401000000000000190,-13.992928067802484549
0.402000000000000191,-13.820382248733441344
0.403000000000000191,-13.647088569203351227
0.404000000000000192,-13.473087658440539016
0.405000000000000193,-13.298421606748055623
0.406000000000000194,-13.123133885211426986
0.407000000000000195,-12.947269263892803082
0.408000000000000196,-12.770873728829545968
0.409000000000000197,-12.593994398139169988
0.410000000000000198,-12.416679437516062734
0.411000000000000199,-12.238977975389149222
0.412000000000000199,-12.060940017994090212
0.413000000000000200,-11.882616364598300507
0.414000000000000201,-11.704058523101693368
0.415000000000000202,-11.525318626221364937
0.416000000000000203,-11.346449348454678230
0.417000000000000204,-11.167503824000361234
0.418000000000000205,-10.988535565804703253
0.419000000000000206,-10.809598385886436844
0.420000000000000207,-10.630746317081076313
0.421000000000000207,-10.452033536334187858
0.422000000000000208,-10.273514289660241161
0.423000000000000209,-10.095242818873582991
0.424000000000000210,-9.917273290186500390
0.425000000000000211,-9.739659724759382797
0.426000000000000212,-9.562455931278167398
0.427000000000000213,-9.385715440624538886
0.428000000000000214,-9.209491442695874497
0.429000000000000214,-9.033836725422833780
0.430000000000000215,-8.858803616024735206
0.431000000000000216,-8.684443924535321102
0.432000000000000217,-8.510808889623669771
0.433000000000000218,-8.337949126728776861
0.434000000000000219,-8.165914578519506861
0.435000000000000220,-7.994754467685642574
0.436000000000000221,-7.824517252060012140
0.437000000000000222,-7.655250582066292608
0.438000000000000222,-7.487001260482284870
0.439000000000000223,-7.319815204503522743
0.440000000000000224,-7.153737410088008453
0.441000000000000225,-6.988811918558515579
0.442000000000000226,-6.825081785435855863
0.443000000000000227,-6.662589051472181723
0.444000000000000228,-6.501374715851113706
0.445000000000000229,-6.341478711518138134
0.446000000000000230,-6.182939882602241255
0.447000000000000230,-6.025795963887553341
0.448000000000000231,-5.870083562291436685
0.449000000000000232,-5.715838140303690196
0.450000000000000233,-5.563094001339973893
0.451000000000000234,-5.411884276960863716
0.452000000000000235,-5.262240915906965633
0.453000000000000236,-5.114194674899104065
0.454000000000000237,-4.967775111152151979
0.455000000000000238,-4.823010576549779493
0.456000000000000238,-4.679928213427395178
0.457000000000000239,-4.538553951909529260
0.458000000000000240,-4.398912508748330730
0.459000000000000241,-4.261027387608760542
0.460000000000000242,-4.124920880747075635
0.461000000000000243,-3.990614072028291215
0.462000000000000244,-3.858126841229299941
0.463000000000000245,-3.727477869573874614
0.464000000000000246,-3.598684646446840496
0.465000000000000246,-3.471763477234669715
0.466000000000000247,-3.346729492240451354
0.467000000000000248,-3.223596656621793066
0.468000000000000249,-3.102377781300993398
0.469000000000000250,-2.983084534797286302
0.470000000000000251,-2.865727455932073120
0.471000000000000252,-2.750315967358551994
0.472000000000000253,-2.636858389868446118
0.473000000000000254,-2.525361957429040238
0.474000000000000254,-2.415832832905011607
0.475000000000000255,-2.308276124420360453
0.476000000000000256,-2.202695902316803789
0.477000000000000257,-2.099095216666178931
0.478000000000000258,-1.997476115295132360
0.479000000000000259,-1.897839662281881390
0.480000000000000260,-1.800185956885603789
0.481000000000000261,-1.704514152870163501
0.482000000000000262,-1.610822478185254925
0.483000000000000262,-1.519108254968771110
0.484000000000000263,-1.429367919835638379
0.485000000000000264,-1.341597044419298834
0.486000000000000265,-1.255790356133263286
0.487000000000000266,-1.171941759121190252
0.488000000000000267,-1.090044355365016759
0.489000000000000268,-1.010090465922015790
0.490000000000000269,-0.932071652262304040
0.491000000000000270,-0.855978737679959245
0.492000000000000270,-0.781801828751400363
0.493000000000000271,-0.709530336816279528
0.494000000000000272,-0.639152999456745974
0.495000000000000273,-0.570657901952190239
0.496000000000000274,-0.504032498687656427
0.497000000000000275,-0.439263634494779509
0.498000000000000276,-0.376337565905497662
0.499000000000000277,-0.315239982299416965
0.500000000000000222,-0.255956026926781377
0.501000000000000334,-0.198470317789942396
0.502000000000000224,-0.142766968367099650
0.503000000000000336,-0.088829608162774826
0.504000000000000226,-0.036641403070806745
0.505000000000000338,0.013814924464218503
0.506000000000000227,0.062557075499474424
0.507000000000000339,0.109603154872968969
0.508000000000000229,0.154971651719990944
0.509000000000000341,0.198681420237878104
0.510000000000000231,0.240751660708603626
0.511000000000000343,0.281201900788647652
0.512000000000000233,0.320051977074298111
0.513000000000000345,0.357322016950417154
0.514000000000000234,0.393032420729511056
0.515000000000000346,0.427203844088038687
0.516000000000000236,0.459857180805458399
0.517000000000000348,0.491013545811659013
0.518000000000000238,0.520694258547424016
0.519000000000000350,0.548920826642244064
0.520000000000000240,0.575714929913153095
0.521000000000000352,0.601098404687887444
0.522000000000000242,0.625093228455091965
0.523000000000000353,0.647721504843887463
0.524000000000000243,0.669005448934641755
0.525000000000000355,0.688967372902441366
0.526000000000000245,0.707629671994182030
0.527000000000000357,0.725014810840088342
0.528000000000000247,0.741145310099746935
0.529000000000000359,0.756043733442793298
0.530000000000000249,0.769732674863633171
0.531000000000000361,0.782234746329638519
0.532000000000000250,0.793572565761641924
0.533000000000000362,0.803768745345533220
0.534000000000000252,0.812845880173275637
0.535000000000000364,0.820826537211468255
0.536000000000000254,0.827733244595438622
0.537000000000000366,0.833588481246442692
0.538000000000000256,0.838414666809440989
0.539000000000000368,0.842234151908715645
0.540000000000000258,0.845069208718318921
0.541000000000000369,0.846942021844256487
0.542000000000000259,0.847874679515083662
0.543000000000000371,0.847889165077448381
0.544000000000000261,0.847007348792934600
0.545000000000000373,0.845250979932509416
0.546000000000000263,0.842641679164675139
0.547000000000000375,0.839200931233263225
0.548000000000000265,0.834950077920894151
0.549000000000000377,0.829910311293754810
0.550000000000000266,0.824102667223563401
0.551000000000000378,0.817548019182160801
0.552000000000000268,0.810267072304456049
0.553000000000000380,0.802280357715109971
0.554000000000000270,0.793608227114420806
0.555000000000000382,0.784270847618788403
0.556000000000000272,0.774288196851102617
0.557000000000000384,0.763680058276362206
0.558000000000000274,0.752466016777754265
0.559000000000000385,0.740665454468505513
0.560000000000000275,0.728297546734682610
0.561000000000000387,0.715381258504152018
0.562000000000000277,0.701935340737003699
0.563000000000000389,0.687978327132481526
0.564000000000000279,0.673528531047788648
0.565000000000000391,0.658604042623843866
0.566000000000000281,0.643222726113376053
0.567000000000000393,0.627402217406416884
0.568000000000000282,0.611159921748593571
0.569000000000000394,0.594513011647412659
0.570000000000000284,0.577478424961969439
0.571000000000000396,0.560072863171222401
0.572000000000000286,0.542312789816413954
0.573000000000000398,0.524214429112909830
0.574000000000000288,0.505793764727001105
0.575000000000000400,0.487066538712996322
0.576000000000000290,0.468048250606400817
0.577000000000000401,0.448754156668455362
0.578000000000000291,0.429199269277887652
0.579000000000000403,0.409398356465460078
0.580000000000000293,0.389365941587063169
0.581000000000000405,0.369116303131037049
0.582000000000000295,0.348663474655787897
0.583000000000000407,0.328021244853281768
0.584000000000000297,0.307203157734662669
0.585000000000000409,0.286222512933720641
0.586000000000000298,0.265092366124570877
0.587000000000000410,0.243825529549343584
0.588000000000000300,0.222434572652398799
0.589000000000000412,0.200931822817020656
0.590000000000000302,0.179329366201169821
0.591000000000000414,0.157639048668391846
0.592000000000000304,0.135872476810615511
0.593000000000000416,0.114041019059075904
0.594000000000000306,0.092155806880123925
0.595000000000000417,0.070227736052397322
0.596000000000000307,0.048267468022245928
0.597000000000000419,0.026285431333936460
0.598000000000000309,0.004291823131615869
0.599000000000000421,-0.017703389270058278
0.600000000000000311,-0.039690466749790196
0.601000000000000423,-0.061659896680928729
0.602000000000000313,-0.083602391173017460
0.603000000000000425,-0.105508885256614546
0.604000000000000314,-0.127370535014011271
0.605000000000000426,-0.149178715658722261
0.606000000000000316,-0.170925019566274428
0.607000000000000428,-0.192601254258997268
0.608000000000000318,-0.214199440347298570
0.609000000000000430,-0.235711809429969110
0.610000000000000320,-0.257130801955779531
0.611000000000000432,-0.278449065048983313
0.612000000000000322,-0.299659450300705732
0.613000000000000433,-0.320755011528754741
0.614000000000000323,-0.341729002507821733
0.615000000000000435,-0.362574874672328629
0.616000000000000325,-0.383286274793850745
0.617000000000000437,-0.403857042635302421
0.618000000000000327,-0.424281208583645708
0.619000000000000439,-0.444552991263176822
0.620000000000000329,-0.464666795131127963
0.621000000000000441,-0.484617208057444959
0.622000000000000330,-0.504398998890422834
0.623000000000000442,-0.524007115009963664
0.624000000000000332,-0.543436679869941819
0.625000000000000444,-0.562682990531500504
0.626000000000000334,-0.581741515188529235
0.627000000000000446,-0.600607890687080426
0.628000000000000336,-0.619277920039955854
0.629000000000000448,-0.637747569937999081
0.630000000000000338,-0.656012968259318208
0.631000000000000449,-0.674070401577893441
0.632000000000000339,-0.691916312672654521
0.633000000000000451,-0.709547298038390339
0.634000000000000341,-0.726960105399527157
0.635000000000000453,-0.744151631228102461
0.636000000000000343,-0.761118918266717182
0.637000000000000455,-0.777859153057901098
0.638000000000000345,-0.794369663480504529
0.639000000000000457,-0.810647916294431781
0.640000000000000346,-0.826691514694377183
0.641000000000000458,-0.842498195873689126
0.642000000000000348,-0.858065828598999714
0.643000000000000460,-0.873392410796667518
0.644000000000000350,-0.888476067151618309
0.645000000000000462,-0.903315046719533443
0.646000000000000352,-0.917907720552900264
0.647000000000000464,-0.932252579341862342
0.648000000000000353,-0.946348231070264001
0.649000000000000465,-0.960193398687778865
0.650000000000000355,-0.973786917798491247
0.651000000000000467,-0.987127734366677556
0.652000000000000357,-1.000214902440232478
0.653000000000000469,-1.013047581892283944
0.654000000000000359,-1.025625036181492700
0.655000000000000471,-1.037946630131485026
0.656000000000000361,-1.050011827729838920
0.657000000000000473,-1.061820189947106696
0.658000000000000362,-1.073371372576150229
0.659000000000000474,-1.084665124092255351
0.660000000000000364,-1.095701283534284531
0.661000000000000476,-1.106479778407280179
0.662000000000000366,-1.117000622606686200
