# Ag322_BSAI4
# h[nm],U(h)[kJ/mol]
0.149999999999999994,80.449836354588313725
0.150999999999999995,75.980917192480063704
0.151999999999999996,72.605746805486631956
0.152999999999999997,69.460218785916183037
0.153999999999999998,66.252232547676726426
0.154999999999999999,62.948204345762555079
0.156000000000000000,59.607804908762702212
0.157000000000000001,56.304501901012272924
0.158000000000000002,53.093479433261506983
0.159000000000000002,50.003919656941711480
0.160000000000000003,47.042362046986873736
0.161000000000000004,44.199866957322534233
0.162000000000000005,41.459319700912089957
0.163000000000000006,38.801297034086630333
0.164000000000000007,36.208056897326528656
0.165000000000000008,33.665779561917496210
0.166000000000000009,31.165423518296741179
0.167000000000000010,28.702612423497555483
0.168000000000000010,26.276931487863954828
0.169000000000000011,23.890936373084876720
0.170000000000000012,21.549094717937208543
0.171000000000000013,19.256804866196365111
0.172000000000000014,17.019574590213924381
0.173000000000000015,14.842396009161870296
0.174000000000000016,12.729320358803359881
0.175000000000000017,10.683215511749576621
0.176000000000000018,8.705677593567916261
0.177000000000000018,6.797063240675593754
0.178000000000000019,4.956608888362188381
0.179000000000000020,3.182606257317992515
0.180000000000000021,1.472607622362526403
0.181000000000000022,-0.176360447448685509
0.182000000000000023,-1.767591040340207087
0.183000000000000024,-3.304509930432518949
0.184000000000000025,-4.790514896305758441
0.185000000000000026,-6.228845080276036228
0.186000000000000026,-7.622481404382692283
0.187000000000000027,-8.974077010928073861
0.188000000000000028,-10.285915259393984655
0.189000000000000029,-11.559891896663987865
0.190000000000000030,-12.797517528154312316
0.191000000000000031,-13.999936361507639759
0.192000000000000032,-15.167957287934545008
0.193000000000000033,-16.302093635853292852
0.194000000000000034,-17.402608315652916104
0.195000000000000034,-18.469561523296246008
0.196000000000000035,-19.502858645028265272
0.197000000000000036,-20.502296476291611782
0.198000000000000037,-21.467606314036054016
0.199000000000000038,-22.398492888859749428
0.200000000000000039,-23.294668463388291002
0.201000000000000040,-24.155881731956920788
0.202000000000000041,-24.981941413343399461
0.203000000000000042,-25.772734634778544205
0.204000000000000042,-26.528240365203373585
0.205000000000000043,-27.248538273274323984
0.206000000000000044,-27.933813466063192266
0.207000000000000045,-28.584357613078218208
0.208000000000000046,-29.200566982413555195
0.209000000000000047,-29.782937916516210919
0.210000000000000048,-30.332060258852674650
0.211000000000000049,-30.848609213800084916
0.212000000000000050,-31.333336084013875933
0.213000000000000050,-31.787058285445890959
0.214000000000000051,-32.210648992721672812
0.215000000000000052,-32.605026718871833680
0.216000000000000053,-32.971145085158312327
0.217000000000000054,-33.309982990263399927
0.218000000000000055,-33.622535344396467849
0.219000000000000056,-33.909804493606856113
0.220000000000000057,-34.172792423213408597
0.221000000000000058,-34.412493797001083351
0.222000000000000058,-34.629889860768841459
0.223000000000000059,-34.825943214872076226
0.224000000000000060,-35.001593440429132897
0.225000000000000061,-35.157753547620025358
0.226000000000000062,-35.295307201706364708
0.227000000000000063,-35.415106672731113235
0.228000000000000064,-35.517971447975789090
0.229000000000000065,-35.604687441826563088
0.230000000000000066,-35.676006735390856761
0.231000000000000066,-35.732647777697309266
0.232000000000000067,-35.775295981297723813
0.233000000000000068,-35.804604647293594155
0.234000000000000069,-35.821196157973744789
0.235000000000000070,-35.825663379146419629
0.236000000000000071,-35.818571218672090595
0.237000000000000072,-35.800458292478666067
0.238000000000000073,-35.771838654309810579
0.239000000000000073,-35.733203550494664569
0.240000000000000074,-35.685023166021494490
0.241000000000000075,-35.627748333062847053
0.242000000000000076,-35.561812177762178067
0.243000000000000077,-35.487631685500744538
0.244000000000000078,-35.405609168976504009
0.245000000000000079,-35.316133627216160562
0.246000000000000080,-35.219581987092297481
0.247000000000000081,-35.116320222019922426
0.248000000000000081,-35.006704345261148603
0.249000000000000082,-34.891081277680378037
0.250000000000000111,-34.769789591874122436
0.251000000000000112,-34.643160136366226709
0.252000000000000113,-34.511516545028833036
0.253000000000000114,-34.375175638079824125
0.254000000000000115,-34.234447721943979559
0.255000000000000115,-34.089636795965823524
0.256000000000000116,-33.941040674453766712
0.257000000000000117,-33.788951032836770594
0.258000000000000118,-33.633653386850383527
0.259000000000000119,-33.475427013659420084
0.260000000000000120,-33.314544823689388409
0.261000000000000121,-33.151273191697413267
0.262000000000000122,-32.985871755284215112
0.263000000000000123,-32.818593188646602243
0.264000000000000123,-32.649682958912187303
0.265000000000000124,-32.479379071895564834
0.266000000000000125,-32.307911813583459093
0.267000000000000126,-32.135503493103250605
0.268000000000000127,-31.962368192366803044
0.269000000000000128,-31.788711527016726421
0.270000000000000129,-31.614730422743679839
0.271000000000000130,-31.440612910495030263
0.272000000000000131,-31.266537943565804625
0.273000000000000131,-31.092675239053004788
0.274000000000000132,-30.919185145669622727
0.275000000000000133,-30.746218539458197938
0.276000000000000134,-30.573916748514996300
0.277000000000000135,-30.402411507439200733
0.278000000000000136,-30.231824941855371947
0.279000000000000137,-30.062269583023937258
0.280000000000000138,-29.893848412252104652
0.281000000000000139,-29.726654934547429576
0.282000000000000139,-29.560773280715828548
0.283000000000000140,-29.396278336896472183
0.284000000000000141,-29.233235900343846225
0.285000000000000142,-29.071702860113656897
0.286000000000000143,-28.911727401180844055
0.287000000000000144,-28.753349230413817850
0.288000000000000145,-28.596599822748487441
0.289000000000000146,-28.441502685845012621
0.290000000000000147,-28.288073641470067088
0.291000000000000147,-28.136321121824664715
0.292000000000000148,-27.986246479031137824
0.293000000000000149,-27.837844306000931738
0.294000000000000150,-27.691102766926455558
0.295000000000000151,-27.546003935673020635
0.296000000000000152,-27.402524140389836305
0.297000000000000153,-27.260634312711722771
0.298000000000000154,-27.120300339981792348
0.299000000000000155,-26.981483418992489476
0.300000000000000155,-26.844140409812684567
0.301000000000000156,-26.708224188344519945
0.302000000000000157,-26.573683996332551516
0.303000000000000158,-26.440465787628376404
0.304000000000000159,-26.308512569597297670
0.305000000000000160,-26.177764738636632558
0.306000000000000161,-26.048160408859217796
0.307000000000000162,-25.919635733079037010
0.308000000000000163,-25.792125215318101539
0.309000000000000163,-25.665562014134742697
0.310000000000000164,-25.539878236152663504
0.311000000000000165,-25.415005219246793899
0.312000000000000166,-25.290873804916877532
0.313000000000000167,-25.167414599450999901
0.314000000000000168,-25.044558223550346554
0.315000000000000169,-24.922235550151981442
0.316000000000000170,-24.800377930249219105
0.317000000000000171,-24.678917406567741466
0.318000000000000171,-24.557786915011842410
0.319000000000000172,-24.436920473847216329
0.320000000000000173,-24.316253360635588621
0.321000000000000174,-24.195722276981989296
0.322000000000000175,-24.075265501197463891
0.323000000000000176,-23.954823029018751157
0.324000000000000177,-23.834336702561849108
0.325000000000000178,-23.713750327718585709
0.326000000000000179,-23.593009780234776684
0.327000000000000179,-23.472063100734075647
0.328000000000000180,-23.350860578975538573
0.329000000000000181,-23.229354827653057924
0.330000000000000182,-23.107500846062542621
0.331000000000000183,-22.985256073978533209
0.332000000000000184,-22.862580436094120273
0.333000000000000185,-22.739436377389431243
0.334000000000000186,-22.615788889801859085
0.335000000000000187,-22.491605530577892580
0.336000000000000187,-22.366856432691246681
0.337000000000000188,-22.241514307714350451
0.338000000000000189,-22.115554441531763530
0.339000000000000190,-21.988954683283886027
0.340000000000000191,-21.861695427927095636
0.341000000000000192,-21.733759592794271498
0.342000000000000193,-21.605132588534548432
0.343000000000000194,-21.475802284806828624
0.344000000000000195,-21.345758971094628720
0.345000000000000195,-21.214995313003417010
0.346000000000000196,-21.083506304393253572
0.347000000000000197,-20.951289215691470957
0.348000000000000198,-20.818343538720746722
0.349000000000000199,-20.684670928368340981
0.350000000000000200,-20.550275141412559066
0.351000000000000201,-20.415161972811468161
0.352000000000000202,-20.279339189748789352
0.353000000000000203,-20.142816463720475184
0.354000000000000203,-20.005605300934771407
0.355000000000000204,-19.867718971286624452
0.356000000000000205,-19.729172436156847681
0.357000000000000206,-19.589982275274326895
0.358000000000000207,-19.450166612868418525
0.359000000000000208,-19.309745043327680492
0.360000000000000209,-19.168738556569348219
0.361000000000000210,-19.027169463313221343
0.362000000000000210,-18.885061320442552812
0.363000000000000211,-18.742438856623639509
0.364000000000000212,-18.599327898345570986
0.365000000000000213,-18.455755296530675480
0.366000000000000214,-18.311748853856659736
0.367000000000000215,-18.167337252921104351
0.368000000000000216,-18.022549985369654024
0.369000000000000217,-17.877417282099745677
0.370000000000000218,-17.731970044642732631
0.371000000000000218,-17.586239777818605035
0.372000000000000219,-17.440258523748713770
0.373000000000000220,-17.294058797304391106
0.374000000000000221,-17.147673523060838363
0.375000000000000222,-17.001135973818577440
0.376000000000000223,-16.854479710747462207
0.377000000000000224,-16.707738525201268232
0.378000000000000225,-16.560946382244388531
0.379000000000000226,-16.414137365925746792
0.380000000000000226,-16.267345626329429820
0.381000000000000227,-16.120605328425192226
0.382000000000000228,-15.973950602737525983
0.383000000000000229,-15.827415497846022419
0.384000000000000230,-15.681033934725480350
0.385000000000000231,-15.534839662929693205
0.386000000000000232,-15.388866218618229453
0.387000000000000233,-15.243146884421964415
0.388000000000000234,-15.097714651139080289
0.389000000000000234,-14.952602181250046698
0.390000000000000235,-14.807841774236582211
0.391000000000000236,-14.663465333686804826
0.392000000000000237,-14.519504336165919511
0.393000000000000238,-14.375989801829371473
0.394000000000000239,-14.232952266752636916
0.395000000000000240,-14.090421756950359367
0.396000000000000241,-13.948427764054974531
0.397000000000000242,-13.806999222623399959
0.398000000000000242,-13.666164489039095642
0.399000000000000243,-13.525951321974826413
0.400000000000000244,-13.386386864380579453
0.401000000000000245,-13.247497626960015538
0.402000000000000246,-13.109309473097676246
0.403000000000000247,-12.971847605198343345
0.404000000000000248,-12.835136552399607268
0.405000000000000249,-12.699200159617699768
0.406000000000000250,-12.564061577886535659
0.407000000000000250,-12.429743255949386338
0.408000000000000251,-12.296266933062497628
0.409000000000000252,-12.163653632969806395
0.410000000000000253,-12.031923659007809135
0.411000000000000254,-11.901096590299845346
0.412000000000000255,-11.771191278999001639
0.413000000000000256,-11.642225848539252908
0.414000000000000257,-11.514217692854467501
0.415000000000000258,-11.387183476525581938
0.416000000000000258,-11.261139135816389256
0.417000000000000259,-11.136099880558891329
0.418000000000000260,-11.012080196849828084
0.419000000000000261,-10.889093850520254136
0.420000000000000262,-10.767153891341001426
0.421000000000000263,-10.646272657927168481
0.422000000000000264,-10.526461783305592235
0.423000000000000265,-10.407732201109924475
0.424000000000000266,-10.290094152368784108
0.425000000000000266,-10.173557192852928921
0.426000000000000267,-10.058130200948388833
0.427000000000000268,-9.943821386023216746
0.428000000000000269,-9.830638297256328428
0.429000000000000270,-9.718587832897650713
0.430000000000000271,-9.607676249929713919
0.431000000000000272,-9.497909174101543783
0.432000000000000273,-9.389291610306695901
0.433000000000000274,-9.281827953277961285
0.434000000000000274,-9.175521998572182980
0.435000000000000275,-9.070376953819465626
0.436000000000000276,-8.966395450211958718
0.437000000000000277,-8.863579554207996480
0.438000000000000278,-8.761930779428521276
0.439000000000000279,-8.661450098723411983
0.440000000000000280,-8.562137956385953430
0.441000000000000281,-8.463994280494866018
0.442000000000000282,-8.367018495363877761
0.443000000000000282,-8.271209534079558168
0.444000000000000283,-8.176565851109135252
0.445000000000000284,-8.083085434960636917
0.446000000000000285,-7.990765820878325876
0.447000000000000286,-7.899604103557552826
0.448000000000000287,-7.809596949863310655
0.449000000000000288,-7.720740611538040810
0.450000000000000289,-7.633030937884498712
0.451000000000000290,-7.546463388410441731
0.452000000000000290,-7.461033045422468035
0.453000000000000291,-7.376734626556951113
0.454000000000000292,-7.293562497236798947
0.455000000000000293,-7.211510683043104386
0.456000000000000294,-7.130572881991753320
0.457000000000000295,-7.050742476705218920
0.458000000000000296,-6.972012546470701011
0.459000000000000297,-6.894375879176068977
0.460000000000000298,-6.817824983115746917
0.461000000000000298,-6.742352098659142534
0.462000000000000299,-6.667949209774771013
0.463000000000000300,-6.594608055403592850
0.464000000000000301,-6.522320140675782696
0.465000000000000302,-6.451076747965364788
0.466000000000000303,-6.380868947777742939
0.467000000000000304,-6.311687609465470139
0.468000000000000305,-6.243523411768196141
0.469000000000000306,-6.176366853172860161
0.470000000000000306,-6.110208262090865539
0.471000000000000307,-6.045037806849019368
0.472000000000000308,-5.980845505491795500
0.473000000000000309,-5.917621235392285683
0.474000000000000310,-5.855354742670030532
0.475000000000000311,-5.794035651413879329
0.476000000000000312,-5.733653472708627241
0.477000000000000313,-5.674197613464006196
0.478000000000000314,-5.615657385045461858
0.479000000000000314,-5.558022011705972432
0.480000000000000315,-5.501280638818487390
0.481000000000000316,-5.445422340909035874
0.482000000000000317,-5.390436129490431050
0.483000000000000318,-5.336310960697003836
0.484000000000000319,-5.283035742720776362
0.485000000000000320,-5.230599343049917138
0.486000000000000321,-5.178990595510217787
0.487000000000000322,-5.128198307110744203
0.488000000000000322,-5.078211264694813210
0.489000000000000323,-5.029018241397758437
0.490000000000000324,-4.980608002912878973
0.491000000000000325,-4.932969313567337366
0.492000000000000326,-4.886090942209652788
0.493000000000000327,-4.839961667910808174
0.494000000000000328,-4.794570285480865834
0.495000000000000329,-4.749905610803264011
0.496000000000000330,-4.705956485988939342
0.497000000000000330,-4.662711784352588928
0.498000000000000331,-4.620160415213428351
0.499000000000000332,-4.578291328522885451
0.500000000000000333,-4.537093519321706125
0.501000000000000334,-4.496556032029104699
0.502000000000000335,-4.456667964566480400
0.503000000000000336,-4.417418472318511036
0.504000000000000337,-4.378796771934179155
0.505000000000000338,-4.340792144970624378
0.506000000000000338,-4.303393941382545940
0.507000000000000339,-4.266591582859965648
0.508000000000000340,-4.230374566017262694
0.509000000000000341,-4.194732465436261215
0.510000000000000342,-4.159654936566356653
0.511000000000000343,-4.125131718484459142
0.512000000000000344,-4.091152636517781715
0.513000000000000345,-4.057707604732287088
0.514000000000000346,-4.024786628289779955
0.515000000000000346,-3.992379805676532722
0.516000000000000347,-3.960477330806308149
0.517000000000000348,-3.929069495000809376
0.518000000000000349,-3.898146688850287145
0.519000000000000350,-3.867699403957319593
0.520000000000000351,-3.837718234566589892
0.521000000000000352,-3.808193879083478173
0.522000000000000353,-3.779117141484364062
0.523000000000000353,-3.750478932621377659
0.524000000000000354,-3.722270271424486854
0.525000000000000355,-3.694482286003578420
0.526000000000000356,-3.667106214653343077
0.527000000000000357,-3.640133406763673918
0.528000000000000358,-3.613555323638207195
0.529000000000000359,-3.587363539223707765
0.530000000000000360,-3.561549740752914861
0.531000000000000361,-3.536105729303409273
0.532000000000000361,-3.511023420275069640
0.533000000000000362,-3.486294843788639408
0.534000000000000363,-3.461912145007905561
0.535000000000000364,-3.437867584387871656
0.536000000000000365,-3.414153537851421394
0.537000000000000366,-3.390762496896779332
0.538000000000000367,-3.367687068638125059
0.539000000000000368,-3.344919975781670551
0.540000000000000369,-3.322454056539421607
0.541000000000000369,-3.300282264482865546
0.542000000000000370,-3.278397668338778548
0.543000000000000371,-3.256793451729214972
0.544000000000000372,-3.235462912857886231
0.545000000000000373,-3.214399464144873431
0.546000000000000374,-3.193596631811774333
0.547000000000000375,-3.173048055419183111
0.548000000000000376,-3.152747487358543044
0.549000000000000377,-3.132688792300146297
0.550000000000000377,-3.112865946599194356
0.551000000000000378,-3.093273037661766978
0.552000000000000379,-3.073904263272386306
0.553000000000000380,-3.054753930884980484
0.554000000000000381,-3.035816456878910774
0.555000000000000382,-3.017086365781730173
0.556000000000000383,-2.998558289460252269
0.557000000000000384,-2.980226966281564582
0.558000000000000385,-2.962087240245469655
0.559000000000000385,-2.944134060089896643
0.560000000000000386,-2.926362478370694298
0.561000000000000387,-2.908767650517282810
0.562000000000000388,-2.891344833865537201
0.563000000000000389,-2.874089386669201218
0.564000000000000390,-2.856996767091227518
0.565000000000000391,-2.840062532176270249
0.566000000000000392,-2.823282336805573944
0.567000000000000393,-2.806651932635503499
0.568000000000000393,-2.790167167020838779
0.569000000000000394,-2.773823981924010251
0.570000000000000395,-2.757618412811393860
0.571000000000000396,-2.741546587537669666
0.572000000000000397,-2.725604725219395341
0.573000000000000398,-2.709789135098686241
0.574000000000000399,-2.694096215398086080
0.575000000000000400,-2.678522452167503509
0.576000000000000401,-2.663064418124159172
0.577000000000000401,-2.647718771486451850
0.578000000000000402,-2.632482254802562149
0.579000000000000403,-2.617351693774653931
0.580000000000000404,-2.602323996079470181
0.581000000000000405,-2.587396150186101362
0.582000000000000406,-2.572565224171653675
0.583000000000000407,-2.557828364535583265
0.584000000000000408,-2.543182795013342545
0.585000000000000409,-2.528625815390048270
0.586000000000000409,-2.514154800314797988
0.587000000000000410,-2.499767198116264133
0.588000000000000411,-2.485460529620166170
0.589000000000000412,-2.471232386969187900
0.590000000000000413,-2.457080432445895912
0.591000000000000414,-2.443002397299209427
0.592000000000000415,-2.428996080574886030
0.593000000000000416,-2.415059347950555768
0.594000000000000417,-2.401190130575756143
0.595000000000000417,-2.387386423917403189
0.596000000000000418,-2.373646286611130307
0.597000000000000419,-2.359967839318935834
0.598000000000000420,-2.346349263593462631
0.599000000000000421,-2.332788800749353797
0.600000000000000422,-2.319284750741990031
0.601000000000000423,-2.305835471053960806
0.602000000000000424,-2.292439375589592654
0.603000000000000425,-2.279094933577831661
0.604000000000000425,-2.265800668483771041
0.605000000000000426,-2.252555156929097357
0.606000000000000427,-2.239357027621712959
0.607000000000000428,-2.226204960294755786
