# Ag322_BSAI11
# h[nm],U(h)[kJ/mol]
0.149999999999999994,91.148129961009601629
0.150999999999999995,86.090894989708985463
0.151999999999999996,82.581213143875970673
0.152999999999999997,79.403780383800125264
0.153999999999999998,76.133514641142440382
0.154999999999999999,72.708578188212612758
0.156000000000000000,69.202882136248419442
0.157000000000000001,65.714940640125647064
0.158000000000000002,62.321602705873964112
0.159000000000000002,59.065619859909340050
0.160000000000000003,55.958974245829018912
0.161000000000000004,52.991951582341165761
0.162000000000000005,50.142820658543953982
0.163000000000000006,47.385827174018160690
0.164000000000000007,44.696785874474514344
0.165000000000000008,42.056357814558239738
0.166000000000000009,39.451448353976253713
0.167000000000000010,36.875257242897099275
0.168000000000000010,34.326478379256357698
0.169000000000000011,31.808056794042169457
0.170000000000000012,29.325805478485801103
0.171000000000000013,26.887086324809803983
0.172000000000000014,24.499677309476972198
0.173000000000000015,22.170884864124204228
0.174000000000000016,19.906915262050691950
0.175000000000000017,17.712489198560966486
0.176000000000000018,15.590666396524508031
0.177000000000000018,13.542838919907008943
0.178000000000000019,11.568850193629065970
0.179000000000000020,9.667199263137302268
0.180000000000000021,7.835294837300989634
0.181000000000000022,6.069729854884309717
0.182000000000000023,4.366553794914953990
0.183000000000000024,2.721526121850905255
0.184000000000000025,1.130339762994482244
0.185000000000000026,-0.411191820773692929
0.186000000000000026,-1.906986644431458711
0.187000000000000027,-3.360585067645818214
0.188000000000000028,-4.775077201521426673
0.189000000000000029,-6.153063119860968655
0.190000000000000030,-7.496641303007367974
0.191000000000000031,-8.807420362525080648
0.192000000000000032,-10.086549066993988788
0.193000000000000033,-11.334759918038390225
0.194000000000000034,-12.552421930163097485
0.195000000000000034,-13.739598780940653455
0.196000000000000035,-14.896109066025539747
0.197000000000000036,-16.021585975127514700
0.198000000000000037,-17.115534270008758710
0.199000000000000038,-18.177382972490526925
0.200000000000000039,-19.206532645617617305
0.201000000000000040,-20.202396566823001223
0.202000000000000041,-21.164435445127686819
0.203000000000000042,-22.092185625572344776
0.204000000000000042,-22.985280956188454127
0.205000000000000043,-23.843468670538207732
0.206000000000000044,-24.666619767883542380
0.207000000000000045,-25.454734459586227047
0.208000000000000046,-26.207943300724071634
0.209000000000000047,-26.926504646294535661
0.210000000000000048,-27.610799067565078957
0.211000000000000049,-28.261321341420892139
0.212000000000000050,-28.878670588693779564
0.213000000000000050,-29.463539090557844702
0.214000000000000051,-30.016700258685624192
0.215000000000000052,-30.538996177920648023
0.216000000000000053,-31.031325082150608807
0.217000000000000054,-31.494629066778429660
0.218000000000000055,-31.929882286162076355
0.219000000000000056,-32.338079832719145656
0.220000000000000057,-32.720227446835089324
0.221000000000000058,-33.077332163747939831
0.222000000000000058,-33.410393965470966293
0.223000000000000059,-33.720398472612870933
0.224000000000000060,-34.008310682589709018
0.225000000000000061,-34.275069736996854886
0.226000000000000062,-34.521584681548468154
0.227000000000000063,-34.748731166662935266
0.228000000000000064,-34.957349025108236162
0.229000000000000065,-35.148240654733321264
0.230000000000000066,-35.322170128808409117
0.231000000000000066,-35.479862953495214128
0.232000000000000067,-35.622006391095460742
0.233000000000000068,-35.749250268633815608
0.234000000000000069,-35.862208193695643388
0.235000000000000070,-35.961459102963445389
0.236000000000000071,-36.047549073311095924
0.237000000000000072,-36.120993330385608999
0.238000000000000073,-36.182278395121763026
0.239000000000000073,-36.231864314415467732
0.240000000000000074,-36.270186928074679145
0.241000000000000075,-36.297660130042068261
0.242000000000000076,-36.314678087633751602
0.243000000000000077,-36.321617388082728439
0.244000000000000078,-36.318839086942062977
0.245000000000000079,-36.306690637844909020
0.246000000000000080,-36.285507687699961821
0.247000000000000081,-36.255615725597529320
0.248000000000000081,-36.217331577503344420
0.249000000000000082,-36.170964742217485366
0.250000000000000111,-36.116818567084003178
0.251000000000000112,-36.055191264556967212
0.252000000000000113,-35.986376772982808347
0.253000000000000114,-35.910665466857999206
0.254000000000000115,-35.828344723395993299
0.255000000000000115,-35.739699353502444978
0.256000000000000116,-35.645011906244874922
0.257000000000000117,-35.544562856633561410
0.258000000000000118,-35.438630687030084232
0.259000000000000119,-35.327491872795995675
0.260000000000000120,-35.211420782907637772
0.261000000000000121,-35.090689506219689520
0.262000000000000122,-34.965567613880644160
0.263000000000000123,-34.836321868108960587
0.264000000000000123,-34.703215887149170271
0.265000000000000124,-34.566509775758888168
0.266000000000000125,-34.426459730049124630
0.267000000000000126,-34.283317624923867584
0.268000000000000127,-34.137330591755997489
0.269000000000000128,-33.988740593305649895
0.270000000000000129,-33.837784002245030024
0.271000000000000130,-33.684691189010088408
0.272000000000000131,-33.529686124061683472
0.273000000000000131,-33.372985999013053515
0.274000000000000132,-33.214800870474206818
0.275000000000000133,-33.055333329879559301
0.276000000000000134,-32.894778202008311041
0.277000000000000135,-32.733322274379290207
0.278000000000000136,-32.571144059207128407
0.279000000000000137,-32.408413589143762579
0.280000000000000138,-32.245292247602790781
0.281000000000000139,-32.081932634070334132
0.282000000000000139,-31.918478464449332677
0.283000000000000140,-31.755064506160330495
0.284000000000000141,-31.591816547432653550
0.285000000000000142,-31.428851399963441793
0.286000000000000143,-31.266276933897312773
0.287000000000000144,-31.104192143884752397
0.288000000000000145,-30.942687244812155711
0.289000000000000146,-30.781843795658073049
0.290000000000000147,-30.621734849817386248
0.291000000000000147,-30.462425130146421282
0.292000000000000148,-30.303971226915535908
0.293000000000000149,-30.146421816808988581
0.294000000000000150,-29.989817901084471430
0.295000000000000151,-29.834193060994191882
0.296000000000000152,-29.679573728573323876
0.297000000000000153,-29.525979470920912462
0.298000000000000154,-29.373423286127739118
0.299000000000000155,-29.221911909047861400
0.300000000000000155,-29.071446125160196772
0.301000000000000156,-28.922021090825701606
0.302000000000000157,-28.773626658310586635
0.303000000000000158,-28.626247704017202977
0.304000000000000159,-28.479864458439607233
0.305000000000000160,-28.334452836440004120
0.306000000000000161,-28.189984766523924264
0.307000000000000162,-28.046428517875739317
0.308000000000000163,-27.903749024000603640
0.309000000000000163,-27.761908201904255122
0.310000000000000164,-27.620865265826743951
0.311000000000000165,-27.480577034630623956
0.312000000000000166,-27.340998232026571202
0.313000000000000167,-27.202081778901266773
0.314000000000000168,-27.063779077091037806
0.315000000000000169,-26.926040284021876658
0.316000000000000170,-26.788814577710962084
0.317000000000000171,-26.652050411695835663
0.318000000000000171,-26.515695759526131781
0.319000000000000172,-26.379698348518047624
0.320000000000000173,-26.244005882533667062
0.321000000000000174,-26.108566253606106500
0.322000000000000175,-25.973327742286681286
0.323000000000000176,-25.838239206642477086
0.324000000000000177,-25.703250259880935147
0.325000000000000178,-25.568311436623538668
0.326000000000000179,-25.433374347892542033
0.327000000000000179,-25.298391824913146309
0.328000000000000180,-25.163318051868966307
0.329000000000000181,-25.028108687781234210
0.330000000000000182,-24.892720977710904862
0.331000000000000183,-24.757113853509885359
0.332000000000000184,-24.621248024370451901
0.333000000000000185,-24.485086057443574248
0.334000000000000186,-24.348592448814379452
0.335000000000000187,-24.211733685139464001
0.336000000000000187,-24.074478296263954746
0.337000000000000188,-23.936796899147697815
0.338000000000000189,-23.798662233438943048
0.339000000000000190,-23.660049189041764350
0.340000000000000191,-23.520934826027904307
0.341000000000000192,-23.381298387248897086
0.342000000000000193,-23.241121304004867199
0.343000000000000194,-23.100387195128618600
0.344000000000000195,-22.959081859841678153
0.345000000000000195,-22.817193264738072855
0.346000000000000196,-22.674711525247658983
0.347000000000000197,-22.531628881927439068
0.348000000000000198,-22.387939671923742679
0.349000000000000199,-22.243640295942380902
0.350000000000000200,-22.098729181057414905
0.351000000000000201,-21.953206739681416337
0.352000000000000202,-21.807075325012487355
0.353000000000000203,-21.660339183264731844
0.354000000000000203,-21.513004402979760243
0.355000000000000204,-21.365078861707882396
0.356000000000000205,-21.216572170337627767
0.357000000000000206,-21.067495615342682669
0.358000000000000207,-20.917862099204903359
0.359000000000000208,-20.767686079262283272
0.360000000000000209,-20.616983505220012773
0.361000000000000210,-20.465771755552548683
0.362000000000000210,-20.314069573014318593
0.363000000000000211,-20.161896999466048186
0.364000000000000212,-20.009275310213695320
0.365000000000000213,-19.856226948046362679
0.366000000000000214,-19.702775457149868998
0.367000000000000215,-19.548945417062224550
0.368000000000000216,-19.394762376827905825
0.369000000000000217,-19.240252789497766628
0.370000000000000218,-19.085443947112402441
0.371000000000000218,-18.930363916297217486
0.372000000000000219,-18.775041474588697099
0.373000000000000220,-18.619506047602683907
0.374000000000000221,-18.463787647146727267
0.375000000000000222,-18.307916810370819860
0.376000000000000223,-18.151924540042337242
0.377000000000000224,-17.995842246023833866
0.378000000000000225,-17.839701688024756976
0.379000000000000226,-17.683534919690842457
0.380000000000000226,-17.527374234088675564
0.381000000000000227,-17.371252110635701627
0.382000000000000228,-17.215201163520323036
0.383000000000000229,-17.059254091650323915
0.384000000000000230,-16.903443630162364286
0.385000000000000231,-16.747802503519885420
0.386000000000000232,-16.592363380221545555
0.387000000000000233,-16.437158829137466398
0.388000000000000234,-16.282221277485867006
0.389000000000000234,-16.127582970458654188
0.390000000000000235,-15.973275932499797491
0.391000000000000236,-15.819331930237177986
0.392000000000000237,-15.665782437064390109
0.393000000000000238,-15.512658599366011103
0.394000000000000239,-15.359991204376385099
0.395000000000000240,-15.207810649659171176
0.396000000000000241,-15.056146914192314767
0.397000000000000242,-14.905029531040096202
0.398000000000000242,-14.754487561592261713
0.399000000000000243,-14.604549571347495984
0.400000000000000244,-14.455243607216763380
0.401000000000000245,-14.306597176320465792
0.402000000000000246,-14.158637226251439500
0.403000000000000247,-14.011390126774362130
0.404000000000000248,-13.864881652931154932
0.405000000000000249,-13.719136969520487668
0.406000000000000250,-13.574180616918610554
0.407000000000000250,-13.430036498207844176
0.408000000000000251,-13.286727867578203899
0.409000000000000252,-13.144277319967283546
0.410000000000000253,-13.002706781902508837
0.411000000000000254,-12.862037503509991865
0.412000000000000255,-12.722290051653457610
0.413000000000000256,-12.583484304166827172
0.414000000000000257,-12.445639445143546808
0.415000000000000258,-12.308773961246112449
0.416000000000000258,-12.172905638998937405
0.417000000000000259,-12.038051563027948987
0.418000000000000260,-11.904228115210489847
0.419000000000000261,-11.771450974699179781
0.420000000000000262,-11.639735118783955059
0.421000000000000263,-11.509094824556557413
0.422000000000000264,-11.379543671342307931
0.423000000000000265,-11.251094543864345709
0.424000000000000266,-11.123759636106210991
0.425000000000000266,-10.997550455838776884
0.426000000000000267,-10.872477829778484093
0.427000000000000268,-10.748551909344218558
0.428000000000000269,-10.625782176980756333
0.429000000000000270,-10.504177453017517152
0.430000000000000271,-10.383745903031831759
0.431000000000000272,-10.264495045686732766
0.432000000000000273,-10.146431761013896988
0.433000000000000274,-10.029562299113274904
0.434000000000000274,-9.913892289241243105
0.435000000000000275,-9.799426749260394587
0.436000000000000276,-9.686170095424428084
0.437000000000000277,-9.574126152472398843
0.438000000000000278,-9.463298164007561297
0.439000000000000279,-9.353688803136559926
0.440000000000000280,-9.245300183345513290
0.441000000000000281,-9.138133869590436831
0.442000000000000282,-9.032190889580002491
0.443000000000000282,-8.927471745229535571
0.444000000000000283,-8.823976424265779883
0.445000000000000284,-8.721704411962814874
0.446000000000000285,-8.620654702990021789
0.447000000000000286,-8.520825813354113265
0.448000000000000287,-8.422215792417393487
0.449000000000000288,-8.324822234975723489
0.450000000000000289,-8.228642293379841988
0.451000000000000290,-8.133672689684692259
0.452000000000000290,-8.039909727811982876
0.453000000000000291,-7.947349305711793654
0.454000000000000292,-7.855986927509862383
0.455000000000000293,-7.765817715627536977
0.456000000000000294,-7.676836422862356457
0.457000000000000295,-7.589037444417480849
0.458000000000000296,-7.502414829869041846
0.459000000000000297,-7.416962295060912425
0.460000000000000298,-7.332673233916994882
0.461000000000000298,-7.249540730161720958
0.462000000000000299,-7.167557568939943557
0.463000000000000300,-7.086716248327894263
0.464000000000000301,-7.007008990727451092
0.465000000000000302,-6.928427754136457395
0.466000000000000303,-6.850964243288214739
0.467000000000000304,-6.774609920653752226
0.468000000000000305,-6.699356017301125732
0.469000000000000306,-6.625193543606073376
0.470000000000000306,-6.552113299809117386
0.471000000000000307,-6.480105886414321503
0.472000000000000308,-6.409161714425612999
0.473000000000000309,-6.339271015416571231
0.474000000000000310,-6.270423851430323658
0.475000000000000311,-6.202610124706263051
0.476000000000000312,-6.135819587230892935
0.477000000000000313,-6.070041850110044379
0.478000000000000314,-6.005266392760473693
0.479000000000000314,-5.941482571918886180
0.480000000000000315,-5.878679630466645101
0.481000000000000316,-5.816846706068988127
0.482000000000000317,-5.755972839627536253
0.483000000000000318,-5.696046983545334008
0.484000000000000319,-5.637058009803768144
0.485000000000000320,-5.578994717851066376
0.486000000000000321,-5.521845842302193219
0.487000000000000322,-5.465600060450159781
0.488000000000000322,-5.410245999589064603
0.489000000000000323,-5.355772244149307859
0.490000000000000324,-5.302167342645562442
0.491000000000000325,-5.249419814438330611
0.492000000000000326,-5.197518156309977932
0.493000000000000327,-5.146450848856433780
0.494000000000000328,-5.096206362695713921
0.495000000000000329,-5.046773164494705810
0.496000000000000330,-4.998139722815674091
0.497000000000000330,-4.950294513784128547
0.498000000000000331,-4.903226026579788233
0.499000000000000332,-4.856922768752461650
0.500000000000000333,-4.811373271364785431
0.501000000000000334,-4.766566093963826134
0.502000000000000335,-4.722489829383652804
0.503000000000000336,-4.679133108381094530
0.504000000000000337,-4.636484604106860807
0.505000000000000338,-4.594533036414399696
0.506000000000000338,-4.553267176008852779
0.507000000000000339,-4.512675848438496118
0.508000000000000340,-4.472747937931215390
0.509000000000000341,-4.433472391078455033
0.510000000000000342,-4.394838220369272186
0.511000000000000343,-4.356834507577010740
0.512000000000000344,-4.319450407001285797
0.513000000000000345,-4.282675148567877343
0.514000000000000346,-4.246498040789252748
0.515000000000000346,-4.210908473588323986
0.516000000000000347,-4.175895920988215160
0.517000000000000348,-4.141449943670757250
0.518000000000000349,-4.107560191406310679
0.519000000000000350,-4.074216405357786286
0.520000000000000351,-4.041408420261520362
0.521000000000000352,-4.009126166487700260
0.522000000000000353,-3.977359671983101919
0.523000000000000353,-3.946099064098814502
0.524000000000000354,-3.915334571305703726
0.525000000000000355,-3.885056524800231337
0.526000000000000356,-3.855255360003356113
0.527000000000000357,-3.825921617955189369
0.528000000000000358,-3.797045946607958911
0.529000000000000359,-3.768619102020014822
0.530000000000000360,-3.740631949453394611
0.531000000000000361,-3.713075464377570967
0.532000000000000361,-3.685940733381892986
0.533000000000000362,-3.659218954999290396
0.534000000000000363,-3.632901440443729424
0.535000000000000364,-3.606979614263841061
0.536000000000000365,-3.581445014915252578
0.537000000000000366,-3.556289295253963534
0.538000000000000367,-3.531504222953156358
0.539000000000000368,-3.507081680845838711
0.540000000000000369,-3.483013667195553609
0.541000000000000369,-3.459292295897506531
0.542000000000000370,-3.435909796612336642
0.543000000000000371,-3.412858514834703705
0.544000000000000372,-3.390130911898945332
0.545000000000000373,-3.367719564923880249
0.546000000000000374,-3.345617166698877210
0.547000000000000375,-3.323816525513274112
0.548000000000000376,-3.302310564931188797
0.549000000000000377,-3.281092323513687070
0.550000000000000377,-3.260154954490245505
0.551000000000000378,-3.239491725381518084
0.552000000000000379,-3.219096017575194146
0.553000000000000380,-3.198961325856848781
0.554000000000000381,-3.179081257897562018
0.555000000000000382,-3.159449533700134261
0.556000000000000383,-3.140059985005530407
0.557000000000000384,-3.120906554661376564
0.558000000000000385,-3.101983295954047648
0.559000000000000385,-3.083284371906080512
0.560000000000000386,-3.064804054540388289
0.561000000000000387,-3.046536724112918648
0.562000000000000388,-3.028476868315240544
0.563000000000000389,-3.010619081448486334
0.564000000000000390,-2.992958063570182681
0.565000000000000391,-2.975488619615302532
0.566000000000000392,-2.958205658492951251
0.567000000000000393,-2.941104192160008068
0.568000000000000393,-2.924179334673027597
0.569000000000000394,-2.907426301219673270
0.570000000000000395,-2.890840407130934597
0.571000000000000396,-2.874417066875288196
0.572000000000000397,-2.858151793036029176
0.573000000000000398,-2.842040195272860892
0.574000000000000399,-2.826077979268892371
0.575000000000000400,-2.810260945664081245
0.576000000000000401,-2.794584988976187567
0.577000000000000401,-2.779046096510256803
0.578000000000000402,-2.763640347257604546
0.579000000000000403,-2.748363910785253772
0.580000000000000404,-2.733213046116758527
0.581000000000000405,-2.718184100605337328
0.582000000000000406,-2.703273508800109859
0.583000000000000407,-2.688477791306373543
0.584000000000000408,-2.673793553640666065
0.585000000000000409,-2.659217485081426080
0.586000000000000409,-2.644746357516019053
0.587000000000000410,-2.630377024284856979
0.588000000000000411,-2.616106419023328744
0.589000000000000412,-2.601931554502219246
0.590000000000000413,-2.587849521467284752
0.591000000000000414,-2.573857487478640849
0.592000000000000415,-2.559952695750546958
0.593000000000000416,-2.546132463992201167
0.594000000000000417,-2.532394183250124886
0.595000000000000417,-2.518735316752669373
0.596000000000000418,-2.505153398757169025
0.597000000000000419,-2.491646033400291671
0.598000000000000420,-2.478210893552005079
0.599000000000000421,-2.464845719673694369
0.600000000000000422,-2.451548318680834004
0.601000000000000423,-2.438316562810677102
0.602000000000000424,-2.425148388495333762
0.603000000000000425,-2.412041795240682518
0.604000000000000425,-2.398994844511443070
0.605000000000000426,-2.386005658622803338
0.606000000000000427,-2.373072419638933006
0.607000000000000428,-2.360193368278686421
