# Ag322_BSAIV11
# h[nm],U(h)[kJ/mol]
0.149999999999999994,81.235950709668969694
0.150999999999999995,75.273619911388564674
0.151999999999999996,71.523482069031274477
0.152999999999999997,68.278330760294863921
0.153999999999999998,64.912743170391607350
0.154999999999999999,61.311953360050367223
0.156000000000000000,57.562103160400056368
0.157000000000000001,53.794952081682744449
0.158000000000000002,50.120159466849372620
0.159000000000000002,46.604306229404379280
0.160000000000000003,43.272519231493376424
0.161000000000000004,40.119055949311913878
0.162000000000000005,37.119643158589660459
0.163000000000000006,34.242182954569557296
0.164000000000000007,31.454603497389211242
0.165000000000000008,28.729773409887549462
0.166000000000000009,26.047928735744932283
0.167000000000000010,23.397241934762309512
0.168000000000000010,20.773156978421788210
0.169000000000000011,18.177022039890420757
0.170000000000000012,15.614428790615468401
0.171000000000000013,13.093545953422070838
0.172000000000000014,10.623629489203274545
0.173000000000000015,8.213808112756083801
0.174000000000000016,5.872180983411723787
0.175000000000000017,3.605221992868713698
0.176000000000000018,1.417458598079866183
0.177000000000000018,-0.688621031336801082
0.178000000000000019,-2.712484018003313846
0.179000000000000020,-4.655342538745530945
0.180000000000000021,-6.519863262317386443
0.181000000000000022,-8.309835602603611093
0.182000000000000023,-10.029830309596345472
0.183000000000000024,-11.684872324935845711
0.184000000000000025,-13.280144804147402837
0.185000000000000026,-14.820735066687822368
0.186000000000000026,-16.311428118567469880
0.187000000000000027,-17.756549322478125674
0.188000000000000028,-19.159854711030334329
0.189000000000000029,-20.524465247416728175
0.190000000000000030,-21.852839908650256717
0.191000000000000031,-23.146781666288426038
0.192000000000000032,-24.407470138642995749
0.193000000000000033,-25.635514767635356748
0.194000000000000034,-26.831022727530694283
0.195000000000000034,-27.993676312316075894
0.196000000000000035,-29.122815199823264720
0.197000000000000036,-30.217519695159960946
0.198000000000000037,-31.276691768471692967
0.199000000000000038,-32.299131389225834710
0.200000000000000039,-33.283606297844883670
0.201000000000000040,-34.228913930657299147
0.202000000000000041,-35.133934717453868757
0.203000000000000042,-35.997676399276151926
0.204000000000000042,-36.819309368149447437
0.205000000000000043,-37.598193313824772588
0.206000000000000044,-38.333895680644943127
0.207000000000000045,-39.026202596989655547
0.208000000000000046,-39.675123047594027526
0.209000000000000047,-40.280887122738107564
0.210000000000000048,-40.843939205086712718
0.211000000000000049,-41.364926951639688468
0.212000000000000050,-41.844686901124511280
0.213000000000000050,-42.284227491873181748
0.214000000000000051,-42.684710216763669166
0.215000000000000052,-43.047429574467670932
0.216000000000000053,-43.373792403672418061
0.217000000000000054,-43.665297112148962810
0.218000000000000055,-43.923513237959411981
0.219000000000000056,-44.150061707652177745
0.220000000000000057,-44.346596087449356105
0.221000000000000058,-44.514785059238917597
0.222000000000000058,-44.656296294376602418
0.223000000000000059,-44.772781845300258396
0.224000000000000060,-44.865865127968469039
0.225000000000000061,-44.937129527159825670
0.226000000000000062,-44.988108621563974054
0.227000000000000063,-45.020277996107843421
0.228000000000000064,-45.035048584745695166
0.229000000000000065,-45.033761467604520590
0.230000000000000066,-45.017684031479433315
0.231000000000000066,-44.988007391769656351
0.232000000000000067,-44.945844966574483692
0.233000000000000068,-44.892232089385984750
0.234000000000000069,-44.828126545188794694
0.235000000000000070,-44.754409915399968156
0.236000000000000071,-44.671889619572482388
0.237000000000000072,-44.581301545796335972
0.238000000000000073,-44.483313166942636485
0.239000000000000073,-44.378527046023080516
0.240000000000000074,-44.267484640729264811
0.241000000000000075,-44.150670324450672410
0.242000000000000076,-44.028515548554295833
0.243000000000000077,-43.901403078283308901
0.244000000000000078,-43.769671242156150015
0.245000000000000079,-43.633618142109227733
0.246000000000000080,-43.493505778734935063
0.247000000000000081,-43.349564052749819609
0.248000000000000081,-43.201994610229306204
0.249000000000000082,-43.050974505127989289
0.250000000000000111,-42.896659658141167881
0.251000000000000112,-42.739188096036549780
0.252000000000000113,-42.578682960195273211
0.253000000000000114,-42.415255277243417709
0.254000000000000115,-42.249006488346431354
0.255000000000000115,-42.080030736987332318
0.256000000000000116,-41.908416917877985952
0.257000000000000117,-41.734250492082594519
0.258000000000000118,-41.557615075485543343
0.259000000000000119,-41.378593809442428153
0.260000000000000120,-41.197270523835513245
0.261000000000000121,-41.013730703843613412
0.262000000000000122,-40.828062272556969958
0.263000000000000123,-40.640356202146463716
0.264000000000000123,-40.450706966661400088
0.265000000000000124,-40.259212849701910386
0.266000000000000125,-40.065976120219772838
0.267000000000000126,-39.871103089561998445
0.268000000000000127,-39.674704062609393418
0.269000000000000128,-39.476893195495691202
0.270000000000000129,-39.277788271939037656
0.271000000000000130,-39.077510409693800852
0.272000000000000131,-38.876183708051648580
0.273000000000000131,-38.673934846699282275
0.274000000000000132,-38.470892645588698144
0.275000000000000133,-38.267187594806117090
0.276000000000000134,-38.062951362744101402
0.277000000000000135,-37.858316290200249910
0.278000000000000136,-37.653414877348815537
0.279000000000000137,-37.448379269866521213
0.280000000000000138,-37.243340749846147730
0.281000000000000139,-37.038429236503546349
0.282000000000000139,-36.833772801081963166
0.283000000000000140,-36.629497199781383188
0.284000000000000141,-36.425725427995203631
0.285000000000000142,-36.222577298621772002
0.286000000000000143,-36.020169046734835661
0.287000000000000144,-35.818612962447211601
0.288000000000000145,-35.618017053384505743
0.289000000000000146,-35.418484737800589812
0.290000000000000147,-35.220114569014469907
0.291000000000000147,-35.022999991526745589
0.292000000000000148,-34.827229128884098941
0.293000000000000149,-34.632884603099043375
0.294000000000000150,-34.440043385200290516
0.295000000000000151,-34.248776676283860354
0.296000000000000152,-34.059149818255505693
0.297000000000000153,-33.871222233300457560
0.298000000000000154,-33.685047390983406501
0.299000000000000155,-33.500672801772054754
0.300000000000000155,-33.318140035685267719
0.301000000000000156,-33.137484764695400941
0.302000000000000157,-32.958736827458004370
0.303000000000000158,-32.781920314902478708
0.304000000000000159,-32.607053675191536968
0.305000000000000160,-32.434149836543468837
0.306000000000000161,-32.263216346410949598
0.307000000000000162,-32.094255525518065042
0.308000000000000163,-31.927264635275797389
0.309000000000000163,-31.762236057122560595
0.310000000000000164,-31.599157482369442107
0.311000000000000165,-31.438012111169548746
0.312000000000000166,-31.278778859275501389
0.313000000000000167,-31.121432571298356606
0.314000000000000168,-30.965944239233756718
0.315000000000000169,-30.812281225077242652
0.316000000000000170,-30.660407486408132627
0.317000000000000171,-30.510283803881566911
0.318000000000000171,-30.361868009628249609
0.319000000000000172,-30.215115215623939093
0.320000000000000173,-30.069978041151159687
0.321000000000000174,-29.926406838537673138
0.322000000000000175,-29.784349916416903881
0.323000000000000176,-29.643753759815353988
0.324000000000000177,-29.504563246430869583
0.325000000000000178,-29.366721858523010980
0.326000000000000179,-29.230171889892726966
0.327000000000000179,-29.094854647482343069
0.328000000000000180,-28.960710647179343624
0.329000000000000181,-28.827679803457471053
0.330000000000000182,-28.695701612536492320
0.331000000000000183,-28.564715328788430782
0.332000000000000184,-28.434660134160942846
0.333000000000000185,-28.305475300430771313
0.334000000000000186,-28.177100344138569454
0.335000000000000187,-28.049475174093828400
0.336000000000000187,-27.922540231372796171
0.337000000000000188,-27.796236621765000763
0.338000000000000189,-27.670506240653914176
0.339000000000000190,-27.545291890345332320
0.340000000000000191,-27.420537389882916557
0.341000000000000192,-27.296187677414440742
0.342000000000000193,-27.172188905193536357
0.343000000000000194,-27.048488527322302133
0.344000000000000195,-26.925035380357734027
0.345000000000000195,-26.801779756921511932
0.346000000000000196,-26.678673472466890360
0.347000000000000197,-26.555669925369898010
0.348000000000000198,-26.432724150522908246
0.349000000000000199,-26.309792866618842311
0.350000000000000200,-26.186834517322846949
0.351000000000000201,-26.063809306535254962
0.352000000000000202,-25.940679227955648400
0.353000000000000203,-25.817408089162984908
0.354000000000000203,-25.693961530429799467
0.355000000000000204,-25.570307038491765894
0.356000000000000205,-25.446413955495316372
0.357000000000000206,-25.322253483347026304
0.358000000000000207,-25.197798683688212407
0.359000000000000208,-25.073024473717975269
0.360000000000000209,-24.947907618086013315
0.361000000000000210,-24.822426717074801417
0.362000000000000210,-24.696562191288041532
0.363000000000000211,-24.570296263059020703
0.364000000000000212,-24.443612934789314295
0.365000000000000213,-24.316497964423700040
0.366000000000000214,-24.188938838263290165
0.367000000000000215,-24.060924741313748143
0.368000000000000216,-23.932446525360930423
0.369000000000000217,-23.803496674960449297
0.370000000000000218,-23.674069271522821367
0.371000000000000218,-23.544159955669741180
0.372000000000000219,-23.413765888031512930
0.373000000000000220,-23.282885708649807555
0.374000000000000221,-23.151519495143670468
0.375000000000000222,-23.019668719791049227
0.376000000000000223,-22.887336205671690692
0.377000000000000224,-22.754526082011505395
0.378000000000000225,-22.621243738862112593
0.379000000000000226,-22.487495781243431736
0.380000000000000226,-22.353289982871267227
0.381000000000000227,-22.218635239585537988
0.382000000000000228,-22.083541522589282380
0.383000000000000229,-21.948019831602827878
0.384000000000000230,-21.812082148031173290
0.385000000000000231,-21.675741388238179752
0.386000000000000232,-21.539011357014555159
0.387000000000000233,-21.401906701322047866
0.388000000000000234,-21.264442864390613153
0.389000000000000234,-21.126636040240750702
0.390000000000000235,-20.988503128697445277
0.391000000000000236,-20.850061690958419547
0.392000000000000237,-20.711329905773727234
0.393000000000000238,-20.572326526290076742
0.394000000000000239,-20.433070837608351411
0.395000000000000240,-20.293582615098934241
0.396000000000000241,-20.153882083515316737
0.397000000000000242,-20.013989876942552826
0.398000000000000242,-19.873926999613555466
0.399000000000000243,-19.733714787622471221
0.400000000000000244,-19.593374871561085371
0.401000000000000245,-19.452929140100977179
0.402000000000000246,-19.312399704540954559
0.403000000000000247,-19.171808864336242095
0.404000000000000248,-19.031179073623398779
0.405000000000000249,-18.890532908751943353
0.406000000000000250,-18.749893036831174697
0.407000000000000250,-18.609282185298514634
0.408000000000000251,-18.468723112513107054
0.409000000000000252,-18.328238579376471051
0.410000000000000253,-18.187851321979884744
0.411000000000000254,-18.047584025276400155
0.412000000000000255,-17.907459297773471008
0.413000000000000256,-17.767499647240661886
0.414000000000000257,-17.627727457425116597
0.415000000000000258,-17.488164965766376469
0.416000000000000258,-17.348834242100529934
0.417000000000000259,-17.209757168342385114
0.418000000000000260,-17.070955419133603925
0.419000000000000261,-16.932450443443123334
0.420000000000000262,-16.794263447105720388
0.421000000000000263,-16.656415376283483454
0.422000000000000264,-16.518926901834081633
0.423000000000000265,-16.381818404569088443
0.424000000000000266,-16.245109961385203690
0.425000000000000266,-16.108821332250109037
0.426000000000000267,-15.972971948024731859
0.427000000000000268,-15.837580899102860599
0.428000000000000269,-15.702666924848973196
0.429000000000000270,-15.568248403814575198
0.430000000000000271,-15.434343344713216339
0.431000000000000272,-15.300969378134087862
0.432000000000000273,-15.168143748973923479
0.433000000000000274,-15.035883309566965949
0.434000000000000274,-14.904204513492292250
0.435000000000000275,-14.773123410038280667
0.436000000000000276,-14.642655639303672643
0.437000000000000277,-14.512816427914549067
0.438000000000000278,-14.383620585337236975
0.439000000000000279,-14.255082500766656395
0.440000000000000280,-14.127216140569895941
0.441000000000000281,-14.000035046265320915
0.442000000000000282,-13.873552333017201477
0.443000000000000282,-13.747780688626317414
0.444000000000000283,-13.622732372997342409
0.445000000000000284,-13.498419218063759217
0.446000000000000285,-13.374852628151419509
0.447000000000000286,-13.252043580762611796
0.448000000000000287,-13.130002627761721001
0.449000000000000288,-13.008739896945280989
0.450000000000000289,-12.888265093978253262
0.451000000000000290,-12.768587504679530298
0.452000000000000290,-12.649715997639741971
0.453000000000000291,-12.531659027154642416
0.454000000000000292,-12.414424636458056384
0.455000000000000293,-12.298020461238346357
0.456000000000000294,-12.182453733423090014
0.457000000000000295,-12.067731285216755310
0.458000000000000296,-11.953859553376689817
0.459000000000000297,-11.840844583713106886
0.460000000000000298,-11.728692035799028304
0.461000000000000298,-11.617407187876676034
0.462000000000000299,-11.506994941947105815
0.463000000000000300,-11.397459829030196943
0.464000000000000301,-11.288806014582613457
0.465000000000000302,-11.181037304061760551
0.466000000000000303,-11.074157148623841707
0.467000000000000304,-10.968168650944878806
0.468000000000000305,-10.863074571153726211
0.469000000000000306,-10.758877332866440213
0.470000000000000306,-10.655579029311866179
0.471000000000000307,-10.553181429538502911
0.472000000000000308,-10.451685984693266818
0.473000000000000309,-10.351093834362838919
0.474000000000000310,-10.251405812968954478
0.475000000000000311,-10.152622456208925783
0.476000000000000312,-10.054744007533654937
0.477000000000000313,-9.957770424654791341
0.478000000000000314,-9.861701386073949749
0.479000000000000314,-9.766536297626666752
0.480000000000000315,-9.672274299034112843
0.481000000000000316,-9.578914270456163393
0.482000000000000317,-9.486454839039399900
0.483000000000000318,-9.394894385454090724
0.484000000000000319,-9.304231050414413673
0.485000000000000320,-9.214462741176543403
0.486000000000000321,-9.125587138009308319
0.487000000000000322,-9.037601700632585278
0.488000000000000322,-8.950503674618673244
0.489000000000000323,-8.864290097752370201
0.490000000000000324,-8.778957806345417225
0.491000000000000325,-8.694503441501467478
0.492000000000000326,-8.610923455327734288
0.493000000000000327,-8.528214117090005431
0.494000000000000328,-8.446371519307511733
0.495000000000000329,-8.365391583784745677
0.496000000000000330,-8.285270067577229725
0.497000000000000330,-8.206002568888605353
0.498000000000000331,-8.127584532896481306
0.499000000000000332,-8.050011257504815276
0.500000000000000333,-7.973277899020533077
0.501000000000000334,-7.897379477752584087
0.502000000000000335,-7.822310883531400805
0.503000000000000336,-7.748066881147376073
0.504000000000000337,-7.674642115706552303
0.505000000000000338,-7.602031117902396495
0.506000000000000338,-7.530228309202330550
0.507000000000000339,-7.459228006947911993
0.508000000000000340,-7.389024429367788471
0.509000000000000341,-7.319611700502531626
0.510000000000000342,-7.250983855040667336
0.511000000000000343,-7.183134843065279718
0.512000000000000344,-7.116058534710693273
0.513000000000000345,-7.049748724728930327
0.514000000000000346,-6.984199136965534294
0.515000000000000346,-6.919403428744698381
0.516000000000000347,-6.855355195163466142
0.517000000000000348,-6.792047973295200158
0.518000000000000349,-6.729475246302115465
0.519000000000000350,-6.667630447457301379
0.520000000000000351,-6.606506964076319655
0.521000000000000352,-6.546098141358685396
0.522000000000000353,-6.486397286139654383
0.523000000000000353,-6.427397670552679187
0.524000000000000354,-6.369092535603160243
0.525000000000000355,-6.311475094653836493
0.526000000000000356,-6.254538536822645156
0.527000000000000357,-6.198276030293583538
0.528000000000000358,-6.142680725541255882
0.529000000000000359,-6.087745758469977453
0.530000000000000360,-6.033464253468116212
0.531000000000000361,-5.979829326378570897
0.532000000000000361,-5.926834087386209760
0.533000000000000362,-5.874471643823236278
0.534000000000000363,-5.822735102893382475
0.535000000000000364,-5.771617574315858867
0.536000000000000365,-5.721112172890147285
0.537000000000000366,-5.671212020982589586
0.538000000000000367,-5.621910250935814091
0.539000000000000368,-5.573200007402125955
0.540000000000000369,-5.525074449601833138
0.541000000000000369,-5.477526753507740764
0.542000000000000370,-5.430550113956837954
0.543000000000000371,-5.384137746690304205
0.544000000000000372,-5.338282890323052143
0.545000000000000373,-5.292978808243873345
0.546000000000000374,-5.248218790447394255
0.547000000000000375,-5.203996155298968418
0.548000000000000376,-5.160304251233762685
0.549000000000000377,-5.117136458391128073
0.550000000000000377,-5.074486190185425016
0.551000000000000378,-5.032346894814604177
0.552000000000000379,-4.990712056707594435
0.553000000000000380,-4.949575197911759261
0.554000000000000381,-4.908929879421568998
0.555000000000000382,-4.868769702449700532
0.556000000000000383,-4.829088309641701215
0.557000000000000384,-4.789879386235427638
0.558000000000000385,-4.751136661166404984
0.559000000000000385,-4.712853908120291813
0.560000000000000386,-4.675024946533547165
0.561000000000000387,-4.637643642543559430
0.562000000000000388,-4.600703909889273469
0.563000000000000389,-4.564199710763467088
0.564000000000000390,-4.528125056617875011
0.565000000000000391,-4.492474008922178186
0.566000000000000392,-4.457240679878028189
0.567000000000000393,-4.422419233089174284
0.568000000000000393,-4.388003884188767856
0.569000000000000394,-4.353988901424930447
0.570000000000000395,-4.320368606205670758
0.571000000000000396,-4.287137373604112511
0.572000000000000397,-4.254289632825182466
0.573000000000000398,-4.221819867634673429
0.574000000000000399,-4.189722616751772044
0.575000000000000400,-4.157992474206000821
0.576000000000000401,-4.126624089659555850
0.577000000000000401,-4.095612168696054489
0.578000000000000402,-4.064951473076584776
0.579000000000000403,-4.034636820964029091
0.580000000000000404,-4.004663087116592024
0.581000000000000405,-3.975025203051453015
0.582000000000000406,-3.945718157179373353
0.583000000000000407,-3.916736994911238945
0.584000000000000408,-3.888076818737332019
0.585000000000000409,-3.859732788280211935
0.586000000000000409,-3.831700120322044434
0.587000000000000410,-3.803974088807196008
0.588000000000000411,-3.776550024820911400
0.589000000000000412,-3.749423316544843399
0.590000000000000413,-3.722589409190249832
0.591000000000000414,-3.696043804909594943
0.592000000000000415,-3.669782062687322988
0.593000000000000416,-3.643799798210502594
0.594000000000000417,-3.618092683720120384
0.595000000000000417,-3.592656447843703749
0.596000000000000418,-3.567486875409897173
0.597000000000000419,-3.542579807245832768
0.598000000000000420,-3.517931139957751974
0.599000000000000421,-3.493536825695712000
0.600000000000000422,-3.469392871902885922
0.601000000000000423,-3.445495341050144766
0.602000000000000424,-3.421840350356499361
0.603000000000000425,-3.398424071496007226
0.604000000000000425,-3.375242730291717841
0.605000000000000426,-3.352292606397226926
0.606000000000000427,-3.329570032966413073
