# Ag322_ASN-AC
# h[nm],U(h)[kJ/mol]
0.149999999999999994,124.301148684598587124
0.150999999999999995,117.755211259107682054
0.151999999999999996,113.600988514683848507
0.152999999999999997,109.989925527204107425
0.153999999999999998,106.264976467333369214
0.154999999999999999,102.317327583615480080
0.156000000000000000,98.244411164490699662
0.157000000000000001,94.183172796298805451
0.158000000000000002,90.240751741713125966
0.159000000000000002,86.475768746764430261
0.160000000000000003,82.903063080597391377
0.161000000000000004,79.506898126613734235
0.162000000000000005,76.254998073129925729
0.163000000000000006,73.110044605142462615
0.164000000000000007,70.037611151322181513
0.165000000000000008,67.010697870171355817
0.166000000000000009,64.011536688321513111
0.167000000000000010,61.031465930403570042
0.168000000000000010,58.069614074268073978
0.169000000000000011,55.130991462534822745
0.170000000000000012,52.224428707141669292
0.171000000000000013,49.360652536468570872
0.172000000000000014,46.550667639590244562
0.173000000000000015,43.804520202314236599
0.174000000000000016,41.130453504586576230
0.175000000000000017,38.534423926383581716
0.176000000000000018,36.019922016985375990
0.177000000000000018,33.588033127369357089
0.178000000000000019,31.237671316318063930
0.179000000000000020,28.965925428822185239
0.180000000000000021,26.768464804994465567
0.181000000000000022,24.639962106986946111
0.182000000000000023,22.574500938063774669
0.183000000000000024,20.565945429179020465
0.184000000000000025,18.608257298615303199
0.185000000000000026,16.695752824205907672
0.186000000000000026,14.823297660698091960
0.187000000000000027,12.986441559958361580
0.188000000000000028,11.181497952052371403
0.189000000000000029,9.405575199036141143
0.190000000000000030,7.656567329627163687
0.191000000000000031,5.933112385389108567
0.192000000000000032,4.234526325800009872
0.193000000000000033,2.560719897811301049
0.194000000000000034,0.912105099389344587
0.195000000000000034,-0.710503042896068360
0.196000000000000035,-2.305984625522138121
0.197000000000000036,-3.873009149524727857
0.198000000000000037,-5.410123040686582563
0.199000000000000038,-6.915828347223408556
0.200000000000000039,-8.388651288018124319
0.201000000000000040,-9.827199954349202571
0.202000000000000041,-11.230210991947206622
0.203000000000000042,-12.596585511463100460
0.204000000000000042,-13.925414800917494063
0.205000000000000043,-15.215996652532075117
0.206000000000000044,-16.467843278897198900
0.207000000000000045,-17.680681890543912260
0.208000000000000046,-18.854449049428513518
0.209000000000000047,-19.989279910859959699
0.210000000000000048,-21.085493429491435791
0.211000000000000049,-22.143574541697674363
0.212000000000000050,-23.164154254489030649
0.213000000000000050,-24.147988476528034596
0.214000000000000051,-25.095936325261416044
0.215000000000000052,-26.008938540122262140
0.216000000000000053,-26.887996528770827354
0.217000000000000054,-27.734152474203028760
0.218000000000000055,-28.548470837326739513
0.219000000000000056,-29.332021503742815582
0.220000000000000057,-30.085864745912811458
0.221000000000000058,-30.811038103145016009
0.222000000000000058,-31.508545222057598778
0.223000000000000059,-32.179346649247662526
0.224000000000000060,-32.824352525484741250
0.225000000000000061,-33.444417096362442976
0.226000000000000062,-34.040334927379120700
0.227000000000000063,-34.612838691208587250
0.228000000000000064,-35.162598380750495153
0.229000000000000065,-35.690221792699595937
0.230000000000000066,-36.196256122124580656
0.231000000000000066,-36.681190508219842172
0.232000000000000067,-37.145459374331366575
0.233000000000000068,-37.589446410959403977
0.234000000000000069,-38.013489058151115785
0.235000000000000070,-38.417883353015653825
0.236000000000000071,-38.802889018576095737
0.237000000000000072,-39.168734681429690170
0.238000000000000073,-39.515623117378034124
0.239000000000000073,-39.843736436023831970
0.240000000000000074,-40.153241127074821293
0.241000000000000075,-40.444292902540880164
0.242000000000000076,-40.717041280004472981
0.243000000000000077,-40.971633862562498507
0.244000000000000078,-41.208220280783152134
0.245000000000000079,-41.426955771033185272
0.246000000000000080,-41.628004372765047947
0.247000000000000081,-41.811541734790452551
0.248000000000000081,-41.977757527201063681
0.249000000000000082,-42.126857461440565089
0.250000000000000111,-42.259064926106553628
0.251000000000000112,-42.374622250394949674
0.252000000000000113,-42.473791610737798408
0.253000000000000114,-42.556855599160819281
0.254000000000000115,-42.624117474259833216
0.255000000000000115,-42.675901117502704096
0.256000000000000116,-42.712550718863916188
0.257000000000000117,-42.734430216639943012
0.258000000000000118,-42.741922516723342085
0.259000000000000119,-42.735428516684436318
0.260000000000000120,-42.715365959764106663
0.261000000000000121,-42.682168143364378921
0.262000000000000122,-42.636282505879485427
0.263000000000000123,-42.578169114772741466
0.264000000000000123,-42.508299077713964209
0.265000000000000124,-42.427152897378071827
0.266000000000000125,-42.335218789199629441
0.267000000000000126,-42.232990980004998960
0.268000000000000127,-42.120968004030217458
0.269000000000000128,-41.999651011396885281
0.270000000000000129,-41.869542102680789242
0.271000000000000130,-41.731142701784456506
0.272000000000000131,-41.584951977927929079
0.273000000000000131,-41.431465326214784284
0.274000000000000132,-41.271172914921649522
0.275000000000000133,-41.104558306406872248
0.276000000000000134,-40.932097157344905725
0.277000000000000135,-40.754256002869311715
0.278000000000000136,-40.571491128156800698
0.279000000000000137,-40.384247530004373061
0.280000000000000138,-40.192957970047253013
0.281000000000000139,-39.998042120433858315
0.282000000000000139,-39.799905802016091627
0.283000000000000140,-39.598940314428908493
0.284000000000000141,-39.395521856817211415
0.285000000000000142,-39.190011037422301854
0.286000000000000143,-38.982752469758928271
0.287000000000000144,-38.774074452695096227
0.288000000000000145,-38.564288731388820963
0.289000000000000146,-38.353690335732139260
0.290000000000000147,-38.142557492703119237
0.291000000000000147,-37.931151608824997368
0.292000000000000148,-37.719717318776417869
0.293000000000000149,-37.508482596082899363
0.294000000000000150,-37.297658921744485383
0.295000000000000151,-37.087441506615206777
0.296000000000000152,-36.878009563341088040
0.297000000000000153,-36.669526623685214872
0.298000000000000154,-36.462140897113073379
0.299000000000000155,-36.255985666581672433
0.300000000000000155,-36.051179717563492488
0.301000000000000156,-35.847827796443375803
0.302000000000000157,-35.646021094546092911
0.303000000000000158,-35.445837754186797497
0.304000000000000159,-35.247343393279592760
0.305000000000000160,-35.050591645191524037
0.306000000000000161,-34.855624710688246637
0.307000000000000162,-34.662473918981092424
0.308000000000000163,-34.471160295051738842
0.309000000000000163,-34.281695130600176924
0.310000000000000164,-34.094080556130712978
0.311000000000000165,-33.908310111860004099
0.312000000000000166,-33.724369315299242089
0.313000000000000167,-33.542236223527474692
0.314000000000000168,-33.361881988335817084
0.315000000000000169,-33.183271402580679421
0.316000000000000170,-33.006363436238871145
0.317000000000000171,-32.831111760806287236
0.318000000000000171,-32.657465260826441522
0.319000000000000172,-32.485368531474094311
0.320000000000000173,-32.314762361251339939
0.321000000000000174,-32.145584198981076440
0.322000000000000175,-31.977768604402928787
0.323000000000000176,-31.811247681791076758
0.324000000000000177,-31.645951496122044944
0.325000000000000178,-31.481808471421288687
0.326000000000000179,-31.318745771013887236
0.327000000000000179,-31.156689659493071787
0.328000000000000180,-30.995565846303811952
0.329000000000000181,-30.835299810916001917
0.330000000000000182,-30.675817109632237845
0.331000000000000183,-30.517043664141908721
0.332000000000000184,-30.358906031992169972
0.333000000000000185,-30.201331659202043767
0.334000000000000186,-30.044249115294793029
0.335000000000000187,-29.887588311068867597
0.336000000000000187,-29.731280699467333761
0.337000000000000188,-29.575259459941339202
0.338000000000000189,-29.419459666734354641
0.339000000000000190,-29.263818441541218363
0.340000000000000191,-29.108275091018704472
0.341000000000000192,-28.952771229645396289
0.342000000000000193,-28.797250888443318928
0.343000000000000194,-28.641660610088411687
0.344000000000000195,-28.485949530946037100
0.345000000000000195,-28.330069450576161216
0.346000000000000196,-28.173974889256623300
0.347000000000000197,-28.017623134076366398
0.348000000000000198,-27.860974274150368757
0.349000000000000199,-27.703991225506122476
0.350000000000000200,-27.546639746188663622
0.351000000000000201,-27.388888442125125522
0.352000000000000202,-27.230708764283598100
0.353000000000000203,-27.072074997653011508
0.354000000000000203,-26.912964242560963868
0.355000000000000204,-26.753356388836586177
0.356000000000000205,-26.593234083313781468
0.357000000000000206,-26.432582691158255983
0.358000000000000207,-26.271390251488337952
0.359000000000000208,-26.109647427746711656
0.360000000000000209,-25.947347453265553696
0.361000000000000210,-25.784486072453308481
0.362000000000000210,-25.621061478016279978
0.363000000000000211,-25.457074244613341563
0.364000000000000212,-25.292527259326782030
0.365000000000000213,-25.127425649316357692
0.366000000000000214,-24.961776707008912268
0.367000000000000215,-24.795589813159775616
0.368000000000000216,-24.628876358107227418
0.369000000000000217,-24.461649661525491695
0.370000000000000218,-24.293924890967151242
0.371000000000000218,-24.125718979470299530
0.372000000000000219,-23.957050542491241885
0.373000000000000220,-23.787939794409329153
0.374000000000000221,-23.618408464835606964
0.375000000000000222,-23.448479714943744057
0.376000000000000223,-23.278178054027556243
0.377000000000000224,-23.107529256476681212
0.378000000000000225,-22.936560279348658042
0.379000000000000226,-22.765299180703337356
0.380000000000000226,-22.593775038853653570
0.381000000000000227,-22.422017872674491201
0.382000000000000228,-22.250058563100843401
0.383000000000000229,-22.077928775934790195
0.384000000000000230,-21.905660886070727145
0.385000000000000231,-21.733287903238355909
0.386000000000000232,-21.560843399352688010
0.387000000000000233,-21.388361437551630218
0.388000000000000234,-21.215876502992450980
0.389000000000000234,-21.043423435470327121
0.390000000000000235,-20.871037363913622187
0.391000000000000236,-20.698753642803488617
0.392000000000000237,-20.526607790557449107
0.393000000000000238,-20.354635429910281630
0.394000000000000239,-20.182872230318544382
0.395000000000000240,-20.011353852409200726
0.396000000000000241,-19.840115894486892500
0.397000000000000242,-19.669193841108700838
0.398000000000000242,-19.498623013730561837
0.399000000000000243,-19.328438523424257056
0.400000000000000244,-19.158675225659379748
0.401000000000000245,-18.989367677141025581
0.402000000000000246,-18.820550094689302512
0.403000000000000247,-18.652256316143468240
0.404000000000000248,-18.484519763270370163
0.405000000000000249,-18.317373406653356227
0.406000000000000250,-18.150849732535171199
0.407000000000000250,-17.984980711585770052
0.408000000000000251,-17.819797769563532341
0.409000000000000252,-17.655331759836371930
0.410000000000000253,-17.491612937726920052
0.411000000000000254,-17.328670936644734013
0.412000000000000255,-17.166534745966519182
0.413000000000000256,-17.005232690624232816
0.414000000000000257,-16.844792412359488765
0.415000000000000258,-16.685240852602049699
0.416000000000000258,-16.526604236928932323
0.417000000000000259,-16.368908061060089665
0.418000000000000260,-16.212177078346147852
0.419000000000000261,-16.056435288702935793
0.420000000000000262,-15.901705928947601265
0.421000000000000263,-15.748011464490520694
0.422000000000000264,-15.595373582337327178
0.423000000000000265,-15.443813185355196538
0.424000000000000266,-15.293350387757977060
0.425000000000000266,-15.144004511764396881
0.426000000000000267,-14.995794085384215322
0.427000000000000268,-14.848736841287504262
0.428000000000000269,-14.702849716712384165
0.429000000000000270,-14.558148854367392033
0.430000000000000271,-14.414649604284727857
0.431000000000000272,-14.272366526581674151
0.432000000000000273,-14.131313395087730100
0.433000000000000274,-13.991503201795959299
0.434000000000000274,-13.852948162097490581
0.435000000000000275,-13.715659720759173723
0.436000000000000276,-13.579648558604967334
0.437000000000000277,-13.444924599862304149
0.438000000000000278,-13.311497020136034308
0.439000000000000279,-13.179374254972861635
0.440000000000000280,-13.048564008980289231
0.441000000000000281,-12.919073265465025102
0.442000000000000282,-12.790908296556700918
0.443000000000000282,-12.664074673783485281
0.444000000000000283,-12.538577279067400383
0.445000000000000284,-12.414420316107831255
0.446000000000000285,-12.291607322122620971
0.447000000000000286,-12.170141179917553842
0.448000000000000287,-12.050024130255096111
0.449000000000000288,-11.931257784495183927
0.450000000000000289,-11.813843137480924739
0.451000000000000290,-11.697780580643570403
0.452000000000000290,-11.583069915301738462
0.453000000000000291,-11.469710366130854595
0.454000000000000292,-11.357700594779737813
0.455000000000000293,-11.247038713611946292
0.456000000000000294,-11.137722299550670613
0.457000000000000295,-11.029748408006497584
0.458000000000000296,-10.923113586868460345
0.459000000000000297,-10.817813890539554222
0.460000000000000298,-10.713844893998563990
0.461000000000000298,-10.611201706871131734
0.462000000000000299,-10.509878987493571856
0.463000000000000300,-10.409870956953721333
0.464000000000000301,-10.311171413093964233
0.465000000000000302,-10.213773744462310233
0.466000000000000303,-10.117670944197943328
0.467000000000000304,-10.022855623838550443
0.468000000000000305,-9.929320027037451979
0.469000000000000306,-9.837056043178943554
0.470000000000000306,-9.746055220881288506
0.471000000000000307,-9.656308781377070716
0.472000000000000308,-9.567807631761551690
0.473000000000000309,-9.480542378099986678
0.474000000000000310,-9.394503338385627345
0.475000000000000311,-9.309680555340586139
0.476000000000000312,-9.226063809052480025
0.477000000000000313,-9.143642629439829861
0.478000000000000314,-9.062406308540325028
0.479000000000000314,-8.982343912616062909
0.480000000000000315,-8.903444294070519405
0.481000000000000316,-8.825696103172557372
0.482000000000000317,-8.749087799583014302
0.483000000000000318,-8.673607663679987922
0.484000000000000319,-8.599243807679277651
0.485000000000000320,-8.525984186546915922
0.486000000000000321,-8.453816608700947199
0.487000000000000322,-8.382728746500088590
0.488000000000000322,-8.312708146517227448
0.489000000000000323,-8.243742239596071997
0.490000000000000324,-8.175818350689478820
0.491000000000000325,-8.108923708478465997
0.492000000000000326,-8.043045454770927805
0.493000000000000327,-7.978170653679730329
0.494000000000000328,-7.914286300579766120
0.495000000000000329,-7.851379330844021176
0.496000000000000330,-7.789436628358819448
0.497000000000000330,-7.728445033818748477
0.498000000000000331,-7.668391352801890548
0.499000000000000332,-7.609262363626238646
0.500000000000000333,-7.551044824988349724
0.501000000000000334,-7.493725483385476949
0.502000000000000335,-7.437291080322542491
0.503000000000000336,-7.381728359305673948
0.504000000000000337,-7.327024072623824047
0.505000000000000338,-7.273164987920483604
0.506000000000000338,-7.220137894557460356
0.507000000000000339,-7.167929609772815347
0.508000000000000340,-7.116526984635216380
0.509000000000000341,-7.065916909797100409
0.510000000000000342,-7.016086321049037622
0.511000000000000343,-6.967022204677858710
0.512000000000000344,-6.918711602631185897
0.513000000000000345,-6.871141617491081099
0.514000000000000346,-6.824299417259592992
0.515000000000000346,-6.778172239959022072
0.516000000000000347,-6.732747398049800935
0.517000000000000348,-6.688012282669069108
0.518000000000000349,-6.643954367692721519
0.519000000000000350,-6.600561213624213330
0.520000000000000351,-6.557820471313060118
0.521000000000000352,-6.515719885506193521
0.522000000000000353,-6.474247298235324521
0.523000000000000353,-6.433390652043425639
0.524000000000000354,-6.393137993053642276
0.525000000000000355,-6.353477473883648585
0.526000000000000356,-6.314397356408797179
0.527000000000000357,-6.275886014377240585
0.528000000000000358,-6.237931935880195233
0.529000000000000359,-6.200523725680577414
0.530000000000000360,-6.163650107403279677
0.531000000000000361,-6.127299925590206087
0.532000000000000361,-6.091462147623283307
0.533000000000000362,-6.056125865518659168
0.534000000000000363,-6.021280297595217768
0.535000000000000364,-5.986914790020527732
0.536000000000000365,-5.953018818237416632
0.537000000000000366,-5.919581988274218887
0.538000000000000367,-5.886594037941760504
0.539000000000000368,-5.854044837920203470
0.540000000000000369,-5.821924392738654142
0.541000000000000369,-5.790222841650647823
0.542000000000000370,-5.758930459408388103
0.543000000000000371,-5.728037656938648858
0.544000000000000372,-5.697534981923345399
0.545000000000000373,-5.667413119287482814
0.546000000000000374,-5.637662891597392090
0.547000000000000375,-5.608275259371987786
0.548000000000000376,-5.579241321309858392
0.549000000000000377,-5.550552314434813006
0.550000000000000377,-5.522199614162532022
0.551000000000000378,-5.494174734291059181
0.552000000000000379,-5.466469326917591687
0.553000000000000380,-5.439075182284161869
0.554000000000000381,-5.411984228554683973
0.555000000000000382,-5.385188531525857414
0.556000000000000383,-5.358680294274262401
0.557000000000000384,-5.332451856742062901
0.558000000000000385,-5.306495695263647505
0.559000000000000385,-5.280804422035435763
0.560000000000000386,-5.255370784531099737
0.561000000000000387,-5.230187664864429209
0.562000000000000388,-5.205248079101916225
0.563000000000000389,-5.180545176527204809
0.564000000000000390,-5.156072238859438883
0.565000000000000391,-5.131822679427530787
0.566000000000000392,-5.107790042302317701
0.567000000000000393,-5.083968001388517344
0.568000000000000393,-5.060350359478362314
0.569000000000000394,-5.036931047268769390
0.570000000000000395,-5.013704122343833447
0.571000000000000396,-4.990663768124345090
0.572000000000000397,-4.967804292786150100
0.573000000000000398,-4.945120128148892569
0.574000000000000399,-4.922605828536865680
0.575000000000000400,-4.900256069613497800
0.576000000000000401,-4.878065647191033527
0.577000000000000401,-4.856029476016933799
0.578000000000000402,-4.834142588538432150
0.579000000000000403,-4.812400133646661082
0.580000000000000404,-4.790797375401790070
0.581000000000000405,-4.769329691740471056
0.582000000000000406,-4.747992573166895269
0.583000000000000407,-4.726781621428804314
0.584000000000000408,-4.705692548179601253
0.585000000000000409,-4.684721173627825586
0.586000000000000409,-4.663863425175125421
0.587000000000000410,-4.643115336043875274
0.588000000000000411,-4.622473043895529266
0.589000000000000412,-4.601932789440742688
0.590000000000000413,-4.581490915042346401
0.591000000000000414,-4.561143863312106639
0.592000000000000415,-4.540888175702297858
0.593000000000000416,-4.520720491092939497
0.594000000000000417,-4.500637544375690524
0.595000000000000417,-4.480636165035202012
0.596000000000000418,-4.460713275728770633
0.597000000000000419,-4.440865890865178578
0.598000000000000420,-4.421091115183383380
0.599000000000000421,-4.401386142331924489
0.600000000000000422,-4.381748253449699426
0.601000000000000423,-4.362174815748844026
0.602000000000000424,-4.342663281100383799
0.603000000000000425,-4.323211184623287906
0.604000000000000425,-4.303816143277579442
0.605000000000000426,-4.284475854462065136
0.606000000000000427,-4.265188094617311521
0.607000000000000428,-4.245950717834309884
