# Ag322_OXOLANE-AC
# h[nm],U(h)[kJ/mol]
0.149999999999999994,114.834572981381171530
0.150999999999999995,110.933803070539241276
0.151999999999999996,107.577502197101267711
0.152999999999999997,104.337127780939425747
0.153999999999999998,101.091321788122513681
0.154999999999999999,97.844418586847098140
0.156000000000000000,94.636566057094498206
0.157000000000000001,91.504656741618376259
0.158000000000000002,88.469719467412247127
0.159000000000000002,85.536744265347849137
0.160000000000000003,82.699250531879471282
0.161000000000000004,79.944691464278179183
0.162000000000000005,77.258962283464001075
0.163000000000000006,74.629463033544027439
0.164000000000000007,72.046756464611434012
0.165000000000000008,69.505109455595444956
0.166000000000000009,67.002268647692375225
0.167000000000000010,64.538791426772874615
0.168000000000000010,62.117186563834323465
0.169000000000000011,59.741044459257523158
0.170000000000000012,57.414269805449862361
0.171000000000000013,55.140475573930508801
0.172000000000000014,52.922557680153246906
0.173000000000000015,50.762443163577245286
0.174000000000000016,48.660988897278528498
0.175000000000000017,46.618000144265913320
0.176000000000000018,44.632336334754519669
0.177000000000000018,42.702073256532301571
0.178000000000000019,40.824694864104500880
0.179000000000000020,38.997292962773556724
0.180000000000000021,37.216758303311301859
0.181000000000000022,35.479951607420915138
0.182000000000000023,33.783847427957439891
0.183000000000000024,32.125647384698957865
0.184000000000000025,30.502862171059668128
0.185000000000000026,28.913363836439962995
0.186000000000000026,27.355411292636098608
0.187000000000000027,25.827652871938624912
0.188000000000000028,24.329110186661285553
0.189000000000000029,22.859147608821139386
0.190000000000000030,21.417431499039992104
0.191000000000000031,20.003882947356814270
0.192000000000000032,18.618627313656105571
0.193000000000000033,17.261943326332403359
0.194000000000000034,15.934213956511447563
0.195000000000000034,14.635880762326834770
0.196000000000000035,13.367402914590348573
0.197000000000000036,12.129221685025772359
0.198000000000000037,10.921730808149259673
0.199000000000000038,9.745252820162118468
0.200000000000000039,8.600021231615908590
0.201000000000000040,7.486168201373461173
0.202000000000000041,6.403717242168275092
0.203000000000000042,5.352580396584329492
0.204000000000000042,4.332559269873196506
0.205000000000000043,3.343349286051193303
0.206000000000000044,2.384546539817599786
0.207000000000000045,1.455656643147248630
0.208000000000000046,0.556105006673039526
0.209000000000000047,-0.314751952409535463
0.210000000000000048,-1.157615126133851202
0.211000000000000049,-1.973230944242600149
0.212000000000000050,-2.762379842594180790
0.213000000000000050,-3.525865238510195177
0.214000000000000051,-4.264503222965325691
0.215000000000000052,-4.979113126634734598
0.216000000000000053,-5.670509068906499195
0.217000000000000054,-6.339492556471682860
0.218000000000000055,-6.986846161199186334
0.219000000000000056,-7.613328275658124866
0.220000000000000057,-8.219668918687206727
0.221000000000000058,-8.806566542517529683
0.222000000000000058,-9.374685776760934175
0.223000000000000059,-9.924656032630675639
0.224000000000000060,-10.457070882608949347
0.225000000000000061,-10.972488125936774139
0.226000000000000062,-11.471430448307005534
0.227000000000000063,-11.954386584540996452
0.228000000000000064,-12.421812895394994669
0.229000000000000065,-12.874135273583414474
0.230000000000000066,-13.311751299260075498
0.231000000000000066,-13.735032571249092825
0.232000000000000067,-14.144327146978003640
0.233000000000000068,-14.539962031093939032
0.234000000000000069,-14.922245659929071593
0.235000000000000070,-15.291470336148995202
0.236000000000000071,-15.647914574922868525
0.237000000000000072,-15.991845329683702204
0.238000000000000073,-16.323520071909591422
0.239000000000000073,-16.643188705286476647
0.240000000000000074,-16.951095300066288729
0.241000000000000075,-17.247479638378543143
0.242000000000000076,-17.532578565677308546
0.243000000000000077,-17.806627147407400713
0.244000000000000078,-18.069859633361083695
0.245000000000000079,-18.322510235087143826
0.246000000000000080,-18.564813724131010275
0.247000000000000081,-18.797005860856579318
0.248000000000000081,-19.019323665157145342
0.249000000000000082,-19.232005541540122096
0.250000000000000111,-19.435291271902528365
0.251000000000000112,-19.629421889835594328
0.252000000000000113,-19.814639450546039257
0.253000000000000114,-19.991186710486811506
0.254000000000000115,-20.159306730592099655
0.255000000000000115,-20.319242416633827020
0.256000000000000116,-20.471236009694770530
0.257000000000000117,-20.615528539111316775
0.258000000000000118,-20.752359249501434846
0.259000000000000119,-20.881965012686002581
0.260000000000000120,-21.004579734452342166
0.261000000000000121,-21.120433765216606758
0.262000000000000122,-21.229753322733987630
0.263000000000000123,-21.332759934094617904
0.264000000000000123,-21.429669903343032900
0.265000000000000124,-21.520693810177938587
0.266000000000000125,-21.606036044338274849
0.267000000000000126,-21.685894379465246118
0.268000000000000127,-21.760459589456750962
0.269000000000000128,-21.829915109602104906
0.270000000000000129,-21.894436744106140935
0.271000000000000130,-21.954192420984412593
0.272000000000000131,-22.009341994735805770
0.273000000000000131,-22.060037096676630597
0.274000000000000132,-22.106421032350759504
0.275000000000000133,-22.148628725012446949
0.276000000000000134,-22.186786703811399946
0.277000000000000135,-22.221013134990577953
0.278000000000000136,-22.251417894135464337
0.279000000000000137,-22.278102677285943400
0.280000000000000138,-22.301161148535378231
0.281000000000000139,-22.320679121595343730
0.282000000000000139,-22.336734772693080942
0.283000000000000140,-22.349398882092440743
0.284000000000000141,-22.358735101481979513
0.285000000000000142,-22.364800244455967260
0.286000000000000143,-22.367644597320584410
0.287000000000000144,-22.367312247486559329
0.288000000000000145,-22.363841426759154984
0.289000000000000146,-22.357264866902564648
0.290000000000000147,-22.347610164937844246
0.291000000000000147,-22.334900155727790860
0.292000000000000148,-22.319153289508449234
0.293000000000000149,-22.300384012140163748
0.294000000000000150,-22.278603145973640665
0.295000000000000151,-22.253818269352617421
0.296000000000000152,-22.226034092905866402
0.297000000000000153,-22.195252830914281361
0.298000000000000154,-22.161474566173495759
0.299000000000000155,-22.124697606906671865
0.300000000000000155,-22.084918834416214395
0.301000000000000156,-22.042134040294580899
0.302000000000000157,-21.996338252143736725
0.303000000000000158,-21.947526046878870432
0.304000000000000159,-21.895691850813925328
0.305000000000000160,-21.840830225844140244
0.306000000000000161,-21.782936141153985687
0.307000000000000162,-21.722005229986670827
0.308000000000000163,-21.658034031113661655
0.309000000000000163,-21.591020214739934602
0.310000000000000164,-21.520962792671930686
0.311000000000000165,-21.447862312660301853
0.312000000000000166,-21.371721036909818281
0.313000000000000167,-21.292543104822449607
0.314000000000000168,-21.210334680107742145
0.315000000000000169,-21.125104082457426102
0.316000000000000170,-21.036861904038200777
0.317000000000000171,-20.945621111108025048
0.318000000000000171,-20.851397131107958671
0.319000000000000172,-20.754207925622814912
0.320000000000000173,-20.654074049640392730
0.321000000000000174,-20.551018697570789584
0.322000000000000175,-20.445067736514864976
0.323000000000000176,-20.336249727294010370
0.324000000000000177,-20.224595933772484102
0.325000000000000178,-20.110140321018832310
0.326000000000000179,-19.992919542865390525
0.327000000000000179,-19.872972919432442040
0.328000000000000180,-19.750342405189641681
0.329000000000000181,-19.625072548130244598
0.330000000000000182,-19.497210440632354533
0.331000000000000183,-19.366805662580379277
0.332000000000000184,-19.233910217314008406
0.333000000000000185,-19.098578460965885739
0.334000000000000186,-18.960867025740139269
0.335000000000000187,-18.820834737674008608
0.336000000000000187,-18.678542529412769824
0.337000000000000188,-18.534053348515207915
0.338000000000000189,-18.387432061792775784
0.339000000000000190,-18.238745356170234402
0.340000000000000191,-18.088061636539368493
0.341000000000000192,-17.935450921061324436
0.342000000000000193,-17.780984734354497334
0.343000000000000194,-17.624735998988473540
0.344000000000000195,-17.466778925685094492
0.345000000000000195,-17.307188902610267434
0.346000000000000196,-17.146042384120754321
0.347000000000000197,-16.983416779311916400
0.348000000000000198,-16.819390340693711750
0.349000000000000199,-16.654042053303236059
0.350000000000000200,-16.487451524544287196
0.351000000000000201,-16.319698875025515861
0.352000000000000202,-16.150864630651131648
0.353000000000000203,-15.981029616200562060
0.354000000000000203,-15.810274850615559927
0.355000000000000204,-15.638681444197080950
0.356000000000000205,-15.466330497897155638
0.357000000000000206,-15.293303004875303586
0.358000000000000207,-15.119679754473214217
0.359000000000000208,-14.945541238746528734
0.360000000000000209,-14.770967561678077118
0.361000000000000210,-14.596038351182604842
0.362000000000000210,-14.420832673999919749
0.363000000000000211,-14.245428953560258734
0.364000000000000212,-14.069904890893406346
0.365000000000000213,-13.894337388641224251
0.366000000000000214,-13.718802478222116292
0.367000000000000215,-13.543375250185103909
0.368000000000000216,-13.368129787781338536
0.369000000000000217,-13.193139103770821663
0.370000000000000218,-13.018475080473654870
0.371000000000000218,-12.844208413066066754
0.372000000000000219,-12.670408556113724075
0.373000000000000220,-12.497143673327434144
0.374000000000000221,-12.324480590519149459
0.375000000000000222,-12.152484751729689449
0.376000000000000223,-11.981220178493725115
0.377000000000000224,-11.810749432201841813
0.378000000000000225,-11.641133579514324481
0.379000000000000226,-11.472432160776691035
0.380000000000000226,-11.304703161382763099
0.381000000000000227,-11.138002986026799945
0.382000000000000228,-10.972386435783180403
0.383000000000000229,-10.807906687948637625
0.384000000000000230,-10.644615278579143691
0.385000000000000231,-10.482562087651587035
0.386000000000000232,-10.321795326777486679
0.387000000000000233,-10.162361529394791759
0.388000000000000234,-10.004305543361763142
0.389000000000000234,-9.847670525876022651
0.390000000000000235,-9.692497940640423693
0.391000000000000236,-9.538827557197041784
0.392000000000000237,-9.386697452349553217
0.393000000000000238,-9.236144013594369540
0.394000000000000239,-9.087201944480373328
0.395000000000000240,-8.939904271817420423
0.396000000000000241,-8.794282354653864431
0.397000000000000242,-8.650365894943739420
0.398000000000000242,-8.508182949824893981
0.399000000000000243,-8.367759945429970259
0.400000000000000244,-8.229121692152782330
0.401000000000000245,-8.092291401294110287
0.402000000000000246,-7.957290703011324240
0.403000000000000247,-7.824139665497750862
0.404000000000000248,-7.692856815319070840
0.405000000000000249,-7.563459158835009077
0.406000000000000250,-7.435962204636259010
0.407000000000000250,-7.310379986927945772
0.408000000000000251,-7.186725089792413534
0.409000000000000252,-7.065008672265904011
0.410000000000000253,-6.945240494164986345
0.411000000000000254,-6.827428942600688444
0.412000000000000255,-6.711581059119511750
0.413000000000000256,-6.597702567412707886
0.414000000000000257,-6.485797901536452414
0.415000000000000258,-6.375870234587792673
0.416000000000000258,-6.267921507782638457
0.417000000000000259,-6.161952459884035171
0.418000000000000260,-6.057962656930743428
0.419000000000000261,-5.955950522217752230
0.420000000000000262,-5.855913366482379701
0.421000000000000263,-5.757847418251229143
0.422000000000000264,-5.661747854304953975
0.423000000000000265,-5.567608830219638705
0.424000000000000266,-5.475423510945438110
0.425000000000000266,-5.385184101384418831
0.426000000000000267,-5.296881876931654354
0.427000000000000268,-5.210507213945044569
0.428000000000000269,-5.126049620110965321
0.429000000000000270,-5.043497764674552464
0.430000000000000271,-4.962839508504879760
0.431000000000000272,-4.884061933966913571
0.432000000000000273,-4.807151374573542135
0.433000000000000274,-4.732093444392589277
0.434000000000000274,-4.658873067184952532
0.435000000000000275,-4.587474505251643464
0.436000000000000276,-4.517881387968700757
0.437000000000000277,-4.450076739990299401
0.438000000000000278,-4.384043009101789679
0.439000000000000279,-4.319762093705556971
0.440000000000000280,-4.257215369923788018
0.441000000000000281,-4.196383718303499322
0.442000000000000282,-4.137247550110346950
0.443000000000000282,-4.079786833198671303
0.444000000000000283,-4.023981117446564504
0.445000000000000284,-3.969809559745598904
0.446000000000000285,-3.917250948535801136
0.447000000000000286,-3.866283727877790177
0.448000000000000287,-3.816886021054357592
0.449000000000000288,-3.769035653695233634
0.450000000000000289,-3.722710176419210093
0.451000000000000290,-3.677886886988873894
0.452000000000000290,-3.634542851973900035
0.453000000000000291,-3.592654927919564756
0.454000000000000292,-3.552199782018042207
0.455000000000000293,-3.513153912280473801
0.456000000000000294,-3.475493667208760851
0.457000000000000295,-3.439195264966385501
0.458000000000000296,-3.404234812048396286
0.459000000000000297,-3.370588321451104097
0.460000000000000298,-3.338231730342674730
0.461000000000000298,-3.307140917236250921
0.462000000000000299,-3.277291718667832754
0.463000000000000300,-3.248659945381441538
0.464000000000000301,-3.221221398024697091
0.465000000000000302,-3.194951882358262996
0.466000000000000303,-3.169827223983006093
0.467000000000000304,-3.145823282589055303
0.468000000000000305,-3.122915965731422716
0.469000000000000306,-3.101081242136954241
0.470000000000000306,-3.080295154547868286
0.471000000000000307,-3.060533832107271479
0.472000000000000308,-3.041773502292459685
0.473000000000000309,-3.023990502401824543
0.474000000000000310,-3.007161290601639614
0.475000000000000311,-2.991262456539050429
0.476000000000000312,-2.976270731527844937
0.477000000000000313,-2.962162998313667917
0.478000000000000314,-2.948916300425608927
0.479000000000000314,-2.936507851121183954
0.480000000000000315,-2.924915041931726023
0.481000000000000316,-2.914115450815587316
0.482000000000000317,-2.904086849926321268
0.483000000000000318,-2.894807213003352864
0.484000000000000319,-2.886254722392562755
0.485000000000000320,-2.878407775704357796
0.486000000000000321,-2.871244992116765982
0.487000000000000322,-2.864745218331179011
0.488000000000000322,-2.858887534188379931
0.489000000000000323,-2.853651257952511067
0.490000000000000324,-2.849015951270614355
0.491000000000000325,-2.844961423815434820
0.492000000000000326,-2.841467737619050471
0.493000000000000327,-2.838515211105015368
0.494000000000000328,-2.836084422826594675
0.495000000000000329,-2.834156214918590599
0.496000000000000330,-2.832711696270341584
0.497000000000000330,-2.831732245427316386
0.498000000000000331,-2.831199513228734421
0.499000000000000332,-2.831095425188534964
0.500000000000000333,-2.831402183627036884
0.501000000000000334,-2.832102269560459185
0.502000000000000335,-2.833178444355458847
0.503000000000000336,-2.834613751155782069
0.504000000000000337,-2.836391516087967801
0.505000000000000338,-2.838495349253060240
0.506000000000000338,-2.840909145511084866
0.507000000000000339,-2.843617085065059946
0.508000000000000340,-2.846603633851150672
0.509000000000000341,-2.849853543741480255
0.510000000000000342,-2.853351852566069713
0.511000000000000343,-2.857083883960193305
0.512000000000000344,-2.861035247043413943
0.513000000000000345,-2.865191835936395925
0.514000000000000346,-2.869539829121539931
0.515000000000000346,-2.874065688653327122
0.516000000000000347,-2.878756159224178823
0.517000000000000348,-2.883598267091543654
0.518000000000000349,-2.888579318871789869
0.519000000000000350,-2.893686900206331458
0.520000000000000351,-2.898908874305464956
0.521000000000000352,-2.904233380375022211
0.522000000000000353,-2.909648831931106461
0.523000000000000353,-2.915143915007863740
0.524000000000000354,-2.920707586263252331
0.525000000000000355,-2.926329070987610415
0.526000000000000356,-2.931997861019690177
0.527000000000000357,-2.937703712574802228
0.528000000000000358,-2.943436643989520096
0.529000000000000359,-2.949186933387294207
0.530000000000000360,-2.954945116269286576
0.531000000000000361,-2.960701983034559781
0.532000000000000361,-2.966448576433657447
0.533000000000000362,-2.972176188959549048
0.534000000000000363,-2.977876360179766202
0.535000000000000364,-2.983540874013450583
0.536000000000000365,-2.989161755957002953
0.537000000000000366,-2.994731270261796308
0.538000000000000367,-3.000241917067445918
0.539000000000000368,-3.005686429493956702
0.540000000000000369,-3.011057770695967140
0.541000000000000369,-3.016349130882271190
0.542000000000000370,-3.021553924303632677
0.543000000000000371,-3.026665786211869769
0.544000000000000372,-3.031678569793077038
0.545000000000000373,-3.036586343077741112
0.546000000000000374,-3.041383385830460639
0.547000000000000375,-3.046064186421836961
0.548000000000000376,-3.050623438685108546
0.549000000000000377,-3.055056038759885517
0.550000000000000377,-3.059357081925380140
0.551000000000000378,-3.063521859425395011
0.552000000000000379,-3.067545855287228562
0.553000000000000380,-3.071424743136649482
0.554000000000000381,-3.075154383010918924
0.555000000000000382,-3.078730818171882877
0.556000000000000383,-3.082150271920944373
0.557000000000000384,-3.085409144417798455
0.558000000000000385,-3.088504009504617898
0.559000000000000385,-3.091431611537411861
0.560000000000000386,-3.094188862226094461
0.561000000000000387,-3.096772837484890850
0.562000000000000388,-3.099180774294482799
0.563000000000000389,-3.101410067577360152
0.564000000000000390,-3.103458267087673583
0.565000000000000391,-3.105323074316950649
0.566000000000000392,-3.107002339416860437
0.567000000000000393,-3.108494058140205851
0.568000000000000393,-3.109796368801295063
0.569000000000000394,-3.110907549256734406
0.570000000000000395,-3.111826013907673882
0.571000000000000396,-3.112550310724443214
0.572000000000000397,-3.113079118294541203
0.573000000000000398,-3.113411242894799980
0.574000000000000399,-3.113545615588549698
0.575000000000000400,-3.113481289348587477
0.576000000000000401,-3.113217436206634936
0.577000000000000401,-3.112753344430009950
0.578000000000000402,-3.112088415726130375
0.579000000000000403,-3.111222162475450137
0.580000000000000404,-3.110154204993414773
0.581000000000000405,-3.108884268821939578
0.582000000000000406,-3.107412182050887761
0.583000000000000407,-3.105737872670040645
0.584000000000000408,-3.103861365951933404
0.585000000000000409,-3.101782781865938698
0.586000000000000409,-3.099502332523997872
0.587000000000000410,-3.097020319658256415
0.588000000000000411,-3.094337132130910994
0.589000000000000412,-3.091453243476558477
0.590000000000000413,-3.088369209477203725
0.591000000000000414,-3.085085665770201935
0.592000000000000415,-3.081603325489266965
0.593000000000000416,-3.077922976938687327
0.594000000000000417,-3.074045481300909266
0.595000000000000417,-3.069971770377548204
0.596000000000000418,-3.065702844363926705
0.597000000000000419,-3.061239769657190024
0.598000000000000420,-3.056583676698016117
0.599000000000000421,-3.051735757845952524
0.600000000000000422,-3.046697265288360157
0.601000000000000423,-3.041469508982935110
0.602000000000000424,-3.036053854633762761
0.603000000000000425,-3.030451721700869960
0.604000000000000425,-3.024664581443126554
0.605000000000000426,-3.018693954994480233
0.606000000000000427,-3.012541411473374176
0.607000000000000428,-3.006208566125182724
0.608000000000000429,-2.999697078497638891
0.609000000000000430,-2.993008650648941060
