# Ag322_FORMONITRILE-AC
# h[nm],U(h)[kJ/mol]
0.149999999999999994,111.461744352617301956
0.150999999999999995,111.354145787957889979
0.151999999999999996,108.759079683836233698
0.152999999999999997,105.615182740653992255
0.153999999999999998,102.678326896406730384
0.154999999999999999,100.125530777315404407
0.156000000000000000,97.890827282169340151
0.157000000000000001,95.839588919152134849
0.158000000000000002,93.849040923109697587
0.159000000000000002,91.837094217157329012
0.160000000000000003,89.764966163355509821
0.161000000000000004,87.628394868351833225
0.162000000000000005,85.445578146157984634
0.163000000000000006,83.245907379080009036
0.164000000000000007,81.061190872530445972
0.165000000000000008,78.919749689540907411
0.166000000000000009,76.843111028223304970
0.167000000000000010,74.844753052934947846
0.168000000000000010,72.930300434796833997
0.169000000000000011,71.098625799417135340
0.170000000000000012,69.343415194892230602
0.171000000000000013,67.654869234262520195
0.172000000000000014,66.021316588627414035
0.173000000000000015,64.430604384895133308
0.174000000000000016,62.871198327447984866
0.175000000000000017,61.332974912909818954
0.176000000000000018,59.807721464715349668
0.177000000000000018,58.289379984093031339
0.178000000000000019,56.774081090069728361
0.179000000000000020,55.260017379225097045
0.180000000000000021,53.747203704280309466
0.181000000000000022,52.237167002735944266
0.182000000000000023,50.732601811957479754
0.183000000000000024,49.237020508050058254
0.184000000000000025,47.754420305946695180
0.185000000000000026,46.288982607817096948
0.186000000000000026,44.844814643916343755
0.187000000000000027,43.425738630818017327
0.188000000000000028,42.035129894126185945
0.189000000000000029,40.675802518241106043
0.190000000000000030,39.349939006716013523
0.191000000000000031,38.059059054510264275
0.192000000000000032,36.804021732097467634
0.193000000000000033,35.585055047036064479
0.194000000000000034,34.401806875353877047
0.195000000000000034,33.253411548446067059
0.196000000000000035,32.138566859714714496
0.197000000000000036,31.055616850858211109
0.198000000000000037,30.002636395425234639
0.199000000000000038,28.977514273729319427
0.200000000000000039,27.978032095758340603
0.201000000000000040,27.001937053681121625
0.202000000000000041,26.047007056947546033
0.203000000000000042,25.111107311035716805
0.204000000000000042,24.192237840814676986
0.205000000000000043,23.288571830309628297
0.206000000000000044,22.398484954271893344
0.207000000000000045,21.520576117319158982
0.208000000000000046,20.653680198823568759
0.209000000000000047,19.796873532309252397
0.210000000000000048,18.949472933380050677
0.211000000000000049,18.111029136690014241
0.212000000000000050,17.281315516556695400
0.213000000000000050,16.460312953503212441
0.214000000000000051,15.648191675813464485
0.215000000000000052,14.845290856068746876
0.216000000000000053,14.052096681989590721
0.217000000000000054,13.269219552536148043
0.218000000000000055,12.497370977357444843
0.219000000000000056,11.737340683019541032
0.220000000000000057,10.989974355178796728
0.221000000000000058,10.256152373750724749
0.222000000000000058,9.536769829491646533
0.223000000000000059,8.832718046259889988
0.224000000000000060,8.144867774234242574
0.225000000000000061,7.474054165973486263
0.226000000000000062,6.821063599613748529
0.227000000000000063,6.186622371757882988
0.228000000000000064,5.571387246611728905
0.229000000000000065,4.975937817449764822
0.230000000000000066,4.400770611256901610
0.231000000000000066,3.846294847034687159
0.232000000000000067,3.312829742389487908
0.233000000000000068,2.800603251217637091
0.234000000000000069,2.309752107145160327
0.235000000000000070,1.840323042441773138
0.236000000000000071,1.392275049999353032
0.237000000000000072,0.965482556245700230
0.238000000000000073,0.559739375183600174
0.239000000000000073,0.174763317754226849
0.240000000000000074,-0.189798663900168585
0.241000000000000075,-0.534364911243769503
0.242000000000000076,-0.859413179925738957
0.243000000000000077,-1.165474544979898885
0.244000000000000078,-1.453127181269512125
0.245000000000000079,-1.722990101377259275
0.246000000000000080,-1.975716924672979102
0.247000000000000081,-2.211989742910302592
0.248000000000000081,-2.432513139515275036
0.249000000000000082,-2.638008411823992816
0.250000000000000111,-2.829208037972945178
0.251000000000000112,-3.006850422998023298
0.252000000000000113,-3.171674951997739633
0.253000000000000114,-3.324417371987976821
0.254000000000000115,-3.465805518339565516
0.255000000000000115,-3.596555396449542918
0.256000000000000116,-3.717367624554886785
0.257000000000000117,-3.828924239343991953
0.258000000000000118,-3.931885862244503649
0.259000000000000119,-4.026889220949138704
0.260000000000000120,-4.114545017863068033
0.261000000000000121,-4.195436134693363961
0.262000000000000122,-4.270116160329101795
0.263000000000000123,-4.339108227451960786
0.264000000000000123,-4.402904141946010874
0.265000000000000124,-4.461963788112647933
0.266000000000000125,-4.516714791917179284
0.267000000000000126,-4.567552423968331610
0.268000000000000127,-4.614839723637070179
0.269000000000000128,-4.658907825629674981
0.270000000000000129,-4.700056470419470500
0.271000000000000130,-4.738554680188277857
0.272000000000000131,-4.774641582311787147
0.273000000000000131,-4.808527362922015769
0.274000000000000132,-4.840394333677076943
0.275000000000000133,-4.870398095545663608
0.276000000000000134,-4.898668784155645994
0.277000000000000135,-4.925312382048669058
0.278000000000000136,-4.950412084012503655
0.279000000000000137,-4.974029702518228291
0.280000000000000138,-4.996207101160373476
0.281000000000000139,-5.016967644874641863
0.282000000000000139,-5.036317656582566471
0.283000000000000140,-5.054247870777679452
0.284000000000000141,-5.070734875417565846
0.285000000000000142,-5.085742534315405905
0.286000000000000143,-5.099223383028731682
0.287000000000000144,-5.111119992018208436
0.288000000000000145,-5.121366291593449027
0.289000000000000146,-5.129888853871949372
0.290000000000000147,-5.136608127651742350
0.291000000000000147,-5.141439622734850445
0.292000000000000148,-5.144295040838316346
0.293000000000000149,-5.145083350790251586
0.294000000000000150,-5.143711806231439532
0.295000000000000151,-5.140086904528134326
0.296000000000000152,-5.134115286049121707
0.297000000000000153,-5.125704573371559825
0.298000000000000154,-5.114764150355316730
0.299000000000000155,-5.101205881366854378
0.300000000000000155,-5.084944771241398875
0.301000000000000156,-5.065899566848193203
0.302000000000000157,-5.043993301369202875
0.303000000000000158,-5.019153782618343662
0.304000000000000159,-4.991314026917684998
0.305000000000000160,-4.960412640210273061
0.306000000000000161,-4.926394148228911973
0.307000000000000162,-4.889209277656428654
0.308000000000000163,-4.848815190308458867
0.309000000000000163,-4.805175672445647805
0.310000000000000164,-4.758261281379759566
0.311000000000000165,-4.708049451578978584
0.312000000000000166,-4.654524562503566720
0.313000000000000167,-4.597677970414495441
0.314000000000000168,-4.537508006396737237
0.315000000000000169,-4.474019942826406471
0.316000000000000170,-4.407225930488289478
0.317000000000000171,-4.337144908518313358
0.318000000000000171,-4.263802489305533960
0.319000000000000172,-4.187230820441108392
0.320000000000000173,-4.107468425748471041
0.321000000000000174,-4.024560027370059245
0.322000000000000175,-3.938556350823090302
0.323000000000000176,-3.849513914869773235
0.324000000000000177,-3.757494807977370677
0.325000000000000178,-3.662566453071132599
0.326000000000000179,-3.564801362209050417
0.327000000000000179,-3.464276882731601948
0.328000000000000180,-3.361074936363315224
0.329000000000000181,-3.255281752666878248
0.330000000000000182,-3.146987598172895417
0.331000000000000183,-3.036286502433285683
0.332000000000000184,-2.923275982170034482
0.333000000000000185,-2.808056764617099965
0.334000000000000186,-2.690732511079950484
0.335000000000000187,-2.571409541665658161
0.336000000000000187,-2.450196562066618622
0.337000000000000188,-2.327204393212878308
0.338000000000000189,-2.202545704542200333
0.339000000000000190,-2.076334751573037263
0.340000000000000191,-1.948687118403897189
0.341000000000000192,-1.819719465703618422
0.342000000000000193,-1.689549284699549903
0.343000000000000194,-1.558294657616786427
0.344000000000000195,-1.426074024968812415
0.345000000000000195,-1.293005960050834791
0.346000000000000196,-1.159208950939465854
0.347000000000000197,-1.024801190257759620
0.348000000000000198,-0.889900372922349470
0.349000000000000199,-0.754623502049119765
0.350000000000000200,-0.619086703156595197
0.351000000000000201,-0.483405046770386426
0.352000000000000202,-0.347692379499322413
0.353000000000000203,-0.212061163622746601
0.354000000000000203,-0.076622325199568658
0.355000000000000204,0.058514889316892457
0.356000000000000205,0.193243047999111572
0.357000000000000206,0.327456659964325492
0.358000000000000207,0.461052293576883876
0.359000000000000208,0.593928686437818598
0.360000000000000209,0.725986847282991787
0.361000000000000210,0.857130149927013973
0.362000000000000210,0.987264419404439431
0.363000000000000211,1.116298010472547286
0.364000000000000212,1.244141878651354727
0.365000000000000213,1.370709643986709025
0.366000000000000214,1.495917647730884648
0.367000000000000215,1.619685002142877250
0.368000000000000216,1.741933633616873589
0.369000000000000217,1.862588319352858290
0.370000000000000218,1.981576717787601805
0.371000000000000218,2.098829393007843880
0.372000000000000219,2.214279833369795725
0.373000000000000220,2.327864464551150370
0.374000000000000221,2.439522657262351846
0.375000000000000222,2.549196729844559250
0.376000000000000223,2.656831945981002363
0.377000000000000224,2.762376507747644538
0.378000000000000225,2.865781544227366862
0.379000000000000226,2.967001095909947317
0.380000000000000226,3.065992095097475723
0.381000000000000227,3.162714342531963041
0.382000000000000228,3.257130480458547250
0.383000000000000229,3.349205962333944520
0.384000000000000230,3.438909019386009014
0.385000000000000231,3.526210624225728285
0.386000000000000232,3.611084451708683751
0.387000000000000233,3.693506837238250906
0.388000000000000234,3.773456732697871185
0.389000000000000234,3.850915660194648815
0.390000000000000235,3.925867663791534845
0.391000000000000236,3.998299259399742400
0.392000000000000237,4.068199382998075819
0.393000000000000238,4.135559337340030339
0.394000000000000239,4.200372737304342685
0.395000000000000240,4.262635454038974814
0.396000000000000241,4.322345558043145353
0.397000000000000242,4.379503261326371799
0.398000000000000242,4.434110858778158359
0.399000000000000243,4.486172668876310610
0.400000000000000244,4.535694973856807977
0.401000000000000245,4.582685959462226677
0.402000000000000246,4.627155654381076566
0.403000000000000247,4.669115869484740777
0.404000000000000248,4.708580136963741225
0.405000000000000249,4.745563649460015299
0.406000000000000250,4.780083199286920603
0.407000000000000250,4.812157117823790742
0.408000000000000251,4.841805215167299892
0.409000000000000252,4.869048720116950335
0.410000000000000253,4.893910220567861735
0.411000000000000254,4.916413604379298086
0.412000000000000255,4.936584000783354576
0.413000000000000256,4.954447722393849673
0.414000000000000257,4.970032207871637020
0.415000000000000258,4.983365965298437672
0.416000000000000258,4.994478516307722771
0.417000000000000259,5.003400341017279374
0.418000000000000260,5.010162823804755305
0.419000000000000261,5.014798199963991010
0.420000000000000262,5.017339503276594392
0.421000000000000263,5.017820514530143328
0.422000000000000264,5.016275711011338956
0.423000000000000265,5.012740216999512555
0.424000000000000266,5.007249755282950687
0.425000000000000266,4.999840599718107903
0.426000000000000267,4.990549528848904792
0.427000000000000268,4.979413780601023909
0.428000000000000269,4.966471008063725989
0.429000000000000270,4.951759236369514205
0.430000000000000271,4.935316820679704897
0.431000000000000272,4.917182405282149560
0.432000000000000273,4.897394883805256782
0.433000000000000274,4.875993360550731737
0.434000000000000274,4.853017112945635425
0.435000000000000275,4.828505555112884373
0.436000000000000276,4.802498202557615947
0.437000000000000277,4.775034637965430484
0.438000000000000278,4.746154478107256658
0.439000000000000279,4.715897341844151214
0.440000000000000280,4.684302819224216208
0.441000000000000281,4.651410441662780393
0.442000000000000282,4.617259653195679547
0.443000000000000282,4.581889782794871913
0.444000000000000283,4.545340017734308624
0.445000000000000284,4.507649377993482531
0.446000000000000285,4.468856691685118676
0.447000000000000286,4.429000571492762717
0.448000000000000287,4.388119392103460470
0.449000000000000288,4.346251268620070718
0.450000000000000289,4.303434035937158342
0.451000000000000290,4.259705229064070231
0.452000000000000290,4.215102064378217328
0.453000000000000291,4.169661421791276190
0.454000000000000292,4.123419827810661076
0.455000000000000293,4.076413439478298706
0.456000000000000294,4.028678029168522912
0.457000000000000295,3.980248970226667016
0.458000000000000296,3.931161223429697316
0.459000000000000297,3.881449324250238586
0.460000000000000298,3.831147370904997018
0.461000000000000298,3.780289013168809387
0.462000000000000299,3.728907441935165767
0.463000000000000300,3.677035379504340451
0.464000000000000301,3.624705070580038324
0.465000000000000302,3.571948273955703801
0.466000000000000303,3.518796254871438656
0.467000000000000304,3.465279778022888113
0.468000000000000305,3.411429101203226288
0.469000000000000306,3.357273969559714910
0.470000000000000306,3.302843610446402067
0.471000000000000307,3.248166728854578800
0.472000000000000308,3.193271503402949296
0.473000000000000309,3.138185582869514434
0.474000000000000310,3.082936083247523218
0.475000000000000311,3.027549585307777846
0.476000000000000312,2.972052132650311762
0.477000000000000313,2.916469230228014631
0.478000000000000314,2.860825843325694784
0.479000000000000314,2.805146396977845402
0.480000000000000315,2.749454775808891860
0.481000000000000316,2.693774324279861965
0.482000000000000317,2.638127847325771658
0.483000000000000318,2.582537611368206587
0.484000000000000319,2.527025345687966773
0.485000000000000320,2.471612244142869397
0.486000000000000321,2.416318967216100511
0.487000000000000322,2.361165644380850193
0.488000000000000322,2.306171876767191264
0.489000000000000323,2.251356740117582689
0.490000000000000324,2.196738788017513322
0.491000000000000325,2.142336055388273763
0.492000000000000326,2.088166062229019015
0.493000000000000327,2.034245817595707884
0.494000000000000328,1.980591823804666474
0.495000000000000329,1.927220080848978778
0.496000000000000330,1.874146091016089644
0.497000000000000330,1.821384863695350464
0.498000000000000331,1.768950920364557700
0.499000000000000332,1.716858299744848937
0.500000000000000333,1.665120563113463348
0.501000000000000334,1.613750799764390065
0.502000000000000335,1.562761632607049034
0.503000000000000336,1.512165223893533250
0.504000000000000337,1.461973281065112928
0.505000000000000338,1.412197062709126483
0.506000000000000338,1.362847384617542179
0.507000000000000339,1.313934625938763645
0.508000000000000340,1.265468735414595258
0.509000000000000341,1.217459237694464846
0.510000000000000342,1.169915239719285571
0.511000000000000343,1.122845437167600213
0.512000000000000344,1.076258120956907094
0.513000000000000345,1.030161183793328217
0.514000000000000346,0.984562126762915213
0.515000000000000346,0.939468065958342202
0.516000000000000347,0.894885739134723246
0.517000000000000348,0.850821512388694634
0.518000000000000349,0.807281386855028038
0.519000000000000350,0.764271005415368410
0.520000000000000351,0.721795659413719481
0.521000000000000352,0.679860295373734713
0.522000000000000353,0.638469521712924593
0.523000000000000353,0.597627615449081162
0.524000000000000354,0.557338528894587903
0.525000000000000355,0.517605896334209725
0.526000000000000356,0.478433040682434307
0.527000000000000357,0.439822980116372775
0.528000000000000358,0.401778434680498175
0.529000000000000359,0.364301832859809549
0.530000000000000360,0.327395318117884471
0.531000000000000361,0.291060755396727100
0.532000000000000361,0.255299737575293340
0.533000000000000362,0.220113591883864507
0.534000000000000363,0.185503386271469589
0.535000000000000364,0.151469935723783228
0.536000000000000365,0.118013808529055297
0.537000000000000366,0.085135332489741478
0.538000000000000367,0.052834601077667062
0.539000000000000368,0.021111479530656018
0.540000000000000369,-0.010034389111278607
0.541000000000000369,-0.040603578032000209
0.542000000000000370,-0.070596870729239231
0.543000000000000371,-0.100015255170089912
0.544000000000000372,-0.128859918013468328
0.545000000000000373,-0.157132238900861559
0.546000000000000374,-0.184833784816653329
0.547000000000000375,-0.211966304519123350
0.548000000000000376,-0.238531723043216071
0.549000000000000377,-0.264532136275977880
0.550000000000000377,-0.289969805605598485
0.551000000000000378,-0.314847152644751160
0.552000000000000379,-0.339166754028993211
0.553000000000000380,-0.362931336290799766
0.554000000000000381,-0.386143770809768361
0.555000000000000382,-0.408807068839479981
0.556000000000000383,-0.430924376611351245
0.557000000000000384,-0.452498970515852972
0.558000000000000385,-0.473534252361291208
0.559000000000000385,-0.494033744710390299
0.560000000000000386,-0.514001086294740506
0.561000000000000387,-0.533440027507240067
0.562000000000000388,-0.552354425972480967
0.563000000000000389,-0.570748242195098787
0.564000000000000390,-0.588625535285909329
0.565000000000000391,-0.605990458765766071
0.566000000000000392,-0.622847256446894981
0.567000000000000393,-0.639200258391481979
0.568000000000000393,-0.655053876947227387
0.569000000000000394,-0.670412602859569051
0.570000000000000395,-0.685281001460178785
0.571000000000000396,-0.699663708931340667
0.572000000000000397,-0.713565428645815070
0.573000000000000398,-0.726990927581674939
0.574000000000000399,-0.739945032811629044
0.575000000000000400,-0.752432628066327602
0.576000000000000401,-0.764458650371055537
0.577000000000000401,-0.776028086755274016
0.578000000000000402,-0.787145971034361569
0.579000000000000403,-0.797817380662943498
0.580000000000000404,-0.808047433659162651
0.581000000000000405,-0.817841285599194223
0.582000000000000406,-0.827204126681340135
0.583000000000000407,-0.836141178858949452
0.584000000000000408,-0.844657693041496849
0.585000000000000409,-0.852758946362998538
0.586000000000000409,-0.860450239517078996
0.587000000000000410,-0.867736894157876804
0.588000000000000411,-0.874624250365992895
0.589000000000000412,-0.881117664178746707
0.590000000000000413,-0.887222505183854482
0.591000000000000414,-0.892944154175766558
0.592000000000000415,-0.898288000873852743
0.593000000000000416,-0.903259441701545152
0.594000000000000417,-0.907863877625659677
0.595000000000000417,-0.912106712055038571
0.596000000000000418,-0.915993348797636719
0.597000000000000419,-0.919529190075262903
0.598000000000000420,-0.922719634595051352
0.599000000000000421,-0.925570075676862003
0.600000000000000422,-0.928085899435726835
0.601000000000000423,-0.930272483018478313
0.602000000000000424,-0.932135192893710163
0.603000000000000425,-0.933679383194238710
0.604000000000000425,-0.934910394111119425
0.605000000000000426,-0.935833550338463160
0.606000000000000427,-0.936454159568144262
0.607000000000000428,-0.936777511033513255
0.608000000000000429,-0.936808874101368927
0.609000000000000430,-0.936553496911193051
0.610000000000000431,-0.936016605060964069
0.611000000000000432,-0.935203400338565971
0.612000000000000433,-0.934119059498042859
0.613000000000000433,-0.932768733079859635
0.614000000000000434,-0.931157544274304305
0.615000000000000435,-0.929290587827220294
0.616000000000000436,-0.927172928987300748
0.617000000000000437,-0.924809602494083949
