# CNT15-OH-4_HMB
# h[nm],U(h)[kJ/mol]
0.149999999999999994,147.110862910861726505
0.150999999999999995,145.829650883065625067
0.151999999999999996,143.652793575668596304
0.152999999999999997,141.326200520262801774
0.153999999999999998,139.103981067359256940
0.154999999999999999,137.020158677172958051
0.156000000000000000,135.030271782292231819
0.157000000000000001,133.078408033059247373
0.158000000000000002,131.123588123535427030
0.159000000000000002,129.145611575288597805
0.160000000000000003,127.141828712497698461
0.161000000000000004,125.121009731485600014
0.162000000000000005,123.097339302826114249
0.163000000000000006,121.085776603681807728
0.164000000000000007,119.099064741011034130
0.165000000000000008,117.146214031424690916
0.166000000000000009,115.232107612425281218
0.167000000000000010,113.357853521781322570
0.168000000000000010,111.521555483110020646
0.169000000000000011,109.719249557882932322
0.170000000000000012,107.945830932725286289
0.171000000000000013,106.195862509528751616
0.172000000000000014,104.464210187743489655
0.173000000000000015,102.746488387227785211
0.174000000000000016,101.039325092840897469
0.175000000000000017,99.340470948270876761
0.176000000000000018,97.648784244257782916
0.177000000000000018,95.964125359681318628
0.178000000000000019,94.287192262694475176
0.179000000000000020,92.619324583148852525
0.180000000000000021,90.962298653636665335
0.181000000000000022,89.318130573106316206
0.182000000000000023,87.688899289060813658
0.183000000000000024,86.076597225774079902
0.184000000000000025,84.483012255529956747
0.185000000000000026,82.909641857718568758
0.186000000000000026,81.357638105251112393
0.187000000000000027,79.827780584498867711
0.188000000000000028,78.320473396798746535
0.189000000000000029,76.835761901836420407
0.190000000000000030,75.373364743434450475
0.191000000000000031,73.932716852265343732
0.192000000000000032,72.513019465259077379
0.193000000000000033,71.113293668522615576
0.194000000000000034,69.732434503133887915
0.195000000000000034,68.369263227255018478
0.196000000000000035,67.022575870778695162
0.197000000000000036,65.691186726889867487
0.198000000000000037,64.373965883204007810
0.199000000000000038,63.069870294709836855
0.200000000000000039,61.777968237841697885
0.201000000000000040,60.497457259694172649
0.202000000000000041,59.227675951488592432
0.203000000000000042,57.968110035605526775
0.204000000000000042,56.718393366649706877
0.205000000000000043,55.478304515564005328
0.206000000000000044,54.247759638346522593
0.207000000000000045,53.026802333902288922
0.208000000000000046,51.815591175035862648
0.209000000000000047,50.614385558105411178
0.210000000000000048,49.423530465342821572
0.211000000000000049,48.243440673585013201
0.212000000000000050,47.074584877792929660
0.213000000000000050,45.917470130280626961
0.214000000000000051,44.772626929461587508
0.215000000000000052,43.640595227058028627
0.216000000000000053,42.521911561538907165
0.217000000000000054,41.417097469082939654
0.218000000000000055,40.326649272276334557
0.219000000000000056,39.251029301435892194
0.220000000000000057,38.190658564031345179
0.221000000000000058,37.145910844129033990
0.222000000000000058,36.117108185876816151
0.223000000000000059,35.104517692504394688
0.224000000000000060,34.108349554723339736
0.225000000000000061,33.128756209342284933
0.226000000000000062,32.165832519895730002
0.227000000000000063,31.219616865636492520
0.228000000000000064,30.290093022891575458
0.229000000000000065,29.377192723061330781
0.230000000000000066,28.480798774023128317
0.231000000000000066,27.600748635967665479
0.232000000000000067,26.736838348382473640
0.233000000000000068,25.888826711657891622
0.234000000000000069,25.056439634329429111
0.235000000000000070,24.239374565018394492
0.236000000000000071,23.437304936463476679
0.237000000000000072,22.649884557449013300
0.238000000000000073,21.876751896771565953
0.239000000000000073,21.117534211507759778
0.240000000000000074,20.371851479641811977
0.241000000000000075,19.639320104502566267
0.242000000000000076,18.919556365378163321
0.243000000000000077,18.212179595079643235
0.244000000000000078,17.516815071085371613
0.245000000000000079,16.833096612199732078
0.246000000000000080,16.160668877402638799
0.247000000000000081,15.499189367754036439
0.248000000000000081,14.848330135869620250
0.249000000000000082,14.207779210619005283
0.250000000000000111,13.577241747342174705
0.251000000000000112,12.956440916065977476
0.252000000000000113,12.345118541959029912
0.253000000000000114,11.743035513629903832
0.254000000000000115,11.149971975877523533
0.255000000000000115,10.565727324186335423
0.256000000000000116,9.990120018650948452
0.257000000000000117,9.422987235151735419
0.258000000000000118,8.864184371516200756
0.259000000000000119,8.313584426119948745
0.260000000000000120,7.771077265935159240
0.261000000000000121,7.236568800451879113
0.262000000000000122,6.709980077199498183
0.263000000000000123,6.191246313809547708
0.264000000000000123,5.680315880702679898
0.265000000000000124,5.177149247574956981
0.266000000000000125,4.681717905915166789
0.267000000000000126,4.194003278822605374
0.268000000000000127,3.713995628424626716
0.269000000000000128,3.241692970229370196
0.270000000000000129,2.777100002798209122
0.271000000000000130,2.320227060194270052
0.272000000000000131,1.871089093765725409
0.273000000000000131,1.429704688958515657
0.274000000000000132,0.996095122030134617
0.275000000000000133,0.570283460754944294
0.276000000000000134,0.152293712476523291
0.277000000000000135,-0.257849977824405885
0.278000000000000136,-0.660124077418150268
0.279000000000000137,-1.054506362232035865
0.280000000000000138,-1.440976558877448799
0.281000000000000139,-1.819516931895954981
0.282000000000000139,-2.190112816268604323
0.283000000000000140,-2.552753095634555880
0.284000000000000141,-2.907430627022164593
0.285000000000000142,-3.254142613211181700
0.286000000000000143,-3.592890924119859442
0.287000000000000144,-3.923682368847745128
0.288000000000000145,-4.246528920207033764
0.289000000000000146,-4.561447893742352377
0.290000000000000147,-4.868462083376822847
0.291000000000000147,-5.167599855929126740
0.292000000000000148,-5.458895206828735525
0.293000000000000149,-5.742387779412375437
0.294000000000000150,-6.018122850220605002
0.295000000000000151,-6.286151282727388434
0.296000000000000152,-6.546529451932739718
0.297000000000000153,-6.799319142228623214
0.298000000000000154,-7.044587420914956155
0.299000000000000155,-7.282406489696019669
0.300000000000000155,-7.512853516430569201
0.301000000000000156,-7.736010449342089146
0.302000000000000157,-7.951963815821739168
0.303000000000000158,-8.160804507874772185
0.304000000000000159,-8.362627556175320720
0.305000000000000160,-8.557531894603350509
0.306000000000000161,-8.745620117044039077
0.307000000000000162,-8.926998228133466995
0.308000000000000163,-9.101775389537055005
0.309000000000000163,-9.270063663248979680
0.310000000000000164,-9.431977753302764000
0.311000000000000165,-9.587634747185731499
0.312000000000000166,-9.737153858153854813
0.313000000000000167,-9.880656169549016710
0.314000000000000168,-10.018264382128220902
0.315000000000000169,-10.150102565324425896
0.316000000000000170,-10.276295913271544791
0.317000000000000171,-10.396970506341830287
0.318000000000000171,-10.512253078862926259
0.319000000000000172,-10.622270793604577932
0.320000000000000173,-10.727151023550508313
0.321000000000000174,-10.827021141400686943
0.322000000000000175,-10.922008317182484660
0.323000000000000176,-11.012239324285783226
0.324000000000000177,-11.097840354177908040
0.325000000000000178,-11.178936839998076636
0.326000000000000179,-11.255653289179324616
0.327000000000000179,-11.328113125196736632
0.328000000000000180,-11.396438538495919701
0.329000000000000181,-11.460750346614034356
0.330000000000000182,-11.521167863466814651
0.331000000000000183,-11.577808777740427715
0.332000000000000184,-11.630789040294255088
0.333000000000000185,-11.680222760451989927
0.334000000000000186,-11.726222111031942674
0.335000000000000187,-11.768897241943893306
0.336000000000000187,-11.808356202159092874
0.337000000000000188,-11.844704869841001127
0.338000000000000189,-11.878046890408857195
0.339000000000000190,-11.908483622291875292
0.340000000000000191,-11.936114090119827935
0.341000000000000192,-11.961034945086421288
0.342000000000000193,-11.983340432213285709
0.343000000000000194,-12.003122364236480379
0.344000000000000195,-12.020470101832048115
0.345000000000000195,-12.035470539894799202
0.346000000000000196,-12.048208099581584563
0.347000000000000197,-12.058764725830304343
0.348000000000000198,-12.067219890066283483
0.349000000000000199,-12.073650597808894602
0.350000000000000200,-12.078131400894244862
0.351000000000000201,-12.080734414032777480
0.352000000000000202,-12.081529335424885829
0.353000000000000203,-12.080583471162634979
0.354000000000000203,-12.077961763151005670
0.355000000000000204,-12.073726820288044337
0.356000000000000205,-12.067938952649980067
0.357000000000000206,-12.060656208434355818
0.358000000000000207,-12.051934413421022896
0.359000000000000208,-12.041827212719038442
0.360000000000000209,-12.030386114574922019
0.361000000000000210,-12.017660536025797313
0.362000000000000210,-12.003697850189249507
0.363000000000000211,-11.988543434989749059
0.364000000000000212,-11.972240723130113338
0.365000000000000213,-11.954831253124583057
0.366000000000000214,-11.936354721218586761
0.367000000000000215,-11.916849034028521359
0.368000000000000216,-11.896350361743312618
0.369000000000000217,-11.874893191737367459
0.370000000000000218,-11.852510382453075977
0.371000000000000218,-11.829233217418455126
0.372000000000000219,-11.805091459273803878
0.373000000000000220,-11.780113403688611484
0.374000000000000221,-11.754325933057536702
0.375000000000000222,-11.727754569871438051
0.376000000000000223,-11.700423529666904798
0.377000000000000224,-11.672355773464124340
0.378000000000000225,-11.643573059610025311
0.379000000000000226,-11.614095994949822810
0.380000000000000226,-11.583944085256678846
0.381000000000000227,-11.553135784854712043
0.382000000000000228,-11.521688545377001489
0.383000000000000229,-11.489618863605276289
0.384000000000000230,-11.456942328343583171
0.385000000000000231,-11.423673666283439943
0.386000000000000232,-11.389826786822558446
0.387000000000000233,-11.355414825804249546
0.388000000000000234,-11.320450188148688753
0.389000000000000234,-11.284944589351942668
0.390000000000000235,-11.248909095832114957
0.391000000000000236,-11.212354164106221432
0.392000000000000237,-11.175289678784732672
0.393000000000000238,-11.137724989374330420
0.394000000000000239,-11.099668945882337212
0.395000000000000240,-11.061129933219584487
0.396000000000000241,-11.022115904401164954
0.397000000000000242,-10.982634412547010783
0.398000000000000242,-10.942692641687100874
0.399000000000000243,-10.902297436377882178
0.400000000000000244,-10.861455330139010655
0.401000000000000245,-10.820172572721432402
0.402000000000000246,-10.778455156219315825
0.403000000000000247,-10.736308840040550194
0.404000000000000248,-10.693739174751545562
0.405000000000000249,-10.650751524813887983
0.406000000000000250,-10.607351090231308177
0.407000000000000250,-10.563542927126846394
0.408000000000000251,-10.519331967270975525
0.409000000000000252,-10.474723036582419766
0.410000000000000253,-10.429720872624184125
0.411000000000000254,-10.384330141118002899
0.412000000000000255,-10.338555451501100890
0.413000000000000256,-10.292401371549653177
0.414000000000000257,-10.245872441093609950
0.415000000000000258,-10.198973184848277640
0.416000000000000258,-10.151708124387843313
0.417000000000000259,-10.104081789286670556
0.418000000000000260,-10.056098727454060082
0.419000000000000261,-10.007763514688353013
0.420000000000000262,-9.959080763476212184
0.421000000000000263,-9.910055131063066014
0.422000000000000264,-9.860691326820177238
0.423000000000000265,-9.810994118934189601
0.424000000000000266,-9.760968340444568625
0.425000000000000266,-9.710618894653908484
0.426000000000000267,-9.659950759936299036
0.427000000000000268,-9.608968993968272088
0.428000000000000269,-9.557678737406634539
0.429000000000000270,-9.506085217037242074
0.430000000000000271,-9.454193748418141752
0.431000000000000272,-9.402009738040451481
0.432000000000000273,-9.349538685029532559
0.433000000000000274,-9.296786182408915522
0.434000000000000274,-9.243757917948686398
0.435000000000000275,-9.190459674619829045
0.436000000000000276,-9.136897330675328277
0.437000000000000277,-9.083076859378362400
0.438000000000000278,-9.029004328397583379
0.439000000000000279,-8.974685898888770552
0.440000000000000280,-8.920127824281617990
0.441000000000000281,-8.865336448790106516
0.442000000000000282,-8.810318205664165347
0.443000000000000282,-8.755079615199829135
0.444000000000000283,-8.699627282524701855
0.445000000000000284,-8.643967895174874627
0.446000000000000285,-8.588108220478833488
0.447000000000000286,-8.532055102763839827
0.448000000000000287,-8.475815460398896661
0.449000000000000288,-8.419396282688881072
0.450000000000000289,-8.362804626633058902
0.451000000000000290,-8.306047613561243992
0.452000000000000290,-8.249132425660167911
0.453000000000000291,-8.192066302401997291
0.454000000000000292,-8.134856536886800882
0.455000000000000293,-8.077510472109851847
0.456000000000000294,-8.020035497164588634
0.457000000000000295,-7.962439043391333016
0.458000000000000296,-7.904728580481450884
0.459000000000000297,-7.846911612546355386
0.460000000000000298,-7.788995674160041460
0.461000000000000298,-7.730988326383750220
0.462000000000000299,-7.672897152780656427
0.463000000000000300,-7.614729755428129465
0.464000000000000301,-7.556493750934984988
0.465000000000000302,-7.498196766470360153
0.466000000000000303,-7.439846435810712144
0.467000000000000304,-7.381450395411093268
0.468000000000000305,-7.323016280506360332
0.469000000000000306,-7.264551721247729077
0.470000000000000306,-7.206064338879841102
0.471000000000000307,-7.147561741962843662
0.472000000000000308,-7.089051522644178149
0.473000000000000309,-7.030541252984042089
0.474000000000000310,-6.972038481338387328
0.475000000000000311,-6.913550728802997369
0.476000000000000312,-6.855085485722061556
0.477000000000000313,-6.796650208264011894
0.478000000000000314,-6.738252315067605025
0.479000000000000314,-6.679899183960732678
0.480000000000000315,-6.621598148754133106
0.481000000000000316,-6.563356496112268346
0.482000000000000317,-6.505181462503024648
0.483000000000000318,-6.447080231228025760
0.484000000000000319,-6.389059929534907312
0.485000000000000320,-6.331127625812915660
0.486000000000000321,-6.273290326872795752
0.487000000000000322,-6.215554975311985864
0.488000000000000322,-6.157928446965679647
0.489000000000000323,-6.100417548444623250
0.490000000000000324,-6.043029014759782491
0.491000000000000325,-5.985769507034381931
0.492000000000000326,-5.928645610303297175
0.493000000000000327,-5.871663831400018907
0.494000000000000328,-5.814830596930892881
0.495000000000000329,-5.758152251336602134
0.496000000000000330,-5.701635055040390476
0.497000000000000330,-5.645285182682799885
0.498000000000000331,-5.589108721442147321
0.499000000000000332,-5.533111669440446967
0.500000000000000333,-5.477299934233788470
0.501000000000000334,-5.421679331386504153
0.502000000000000335,-5.366255583128310747
0.503000000000000336,-5.311034317093461965
0.504000000000000337,-5.256021065140875415
0.505000000000000338,-5.201221262254248856
0.506000000000000338,-5.146640245521043155
0.507000000000000339,-5.092283253189117787
0.508000000000000340,-5.038155423799846488
0.509000000000000341,-4.984261795396549566
0.510000000000000342,-4.930607304806740032
0.511000000000000343,-4.877196786997084033
0.512000000000000344,-4.824034974499520345
0.513000000000000345,-4.771126496907292847
0.514000000000000346,-4.718475880439420678
0.515000000000000346,-4.666087547572119298
0.516000000000000347,-4.613965816735783321
0.517000000000000348,-4.562114902076080725
0.518000000000000349,-4.510538913277494899
0.519000000000000350,-4.459241855448057734
0.520000000000000351,-4.408227629063521391
0.521000000000000352,-4.357500029969650690
0.522000000000000353,-4.307062749440964566
0.523000000000000353,-4.256919374294420244
0.524000000000000354,-4.207073387056658120
0.525000000000000355,-4.157528166183029228
0.526000000000000356,-4.108286986327073009
0.527000000000000357,-4.059353018658929280
0.528000000000000358,-4.010729331230936445
0.529000000000000359,-3.962418889389285770
0.530000000000000360,-3.914424556229851415
0.531000000000000361,-3.866749093097006984
0.532000000000000361,-3.819395160123735700
0.533000000000000362,-3.772365316811756575
0.534000000000000363,-3.725662022650053640
0.535000000000000364,-3.679287637770490171
0.536000000000000365,-3.633244423639031773
0.537000000000000366,-3.587534543781227825
0.538000000000000367,-3.542160064540451181
0.539000000000000368,-3.497122955867752125
0.540000000000000369,-3.452425092141679919
0.541000000000000369,-3.408068253017077609
0.542000000000000370,-3.364054124301241622
0.543000000000000371,-3.320384298856366989
0.544000000000000372,-3.277060277526933074
0.545000000000000373,-3.234083470090813428
0.546000000000000374,-3.191455196232825919
0.547000000000000375,-3.149176686539625347
0.548000000000000376,-3.107249083514705745
0.549000000000000377,-3.065673442612373734
0.550000000000000377,-3.024450733289531179
0.551000000000000378,-2.983581840074218228
0.552000000000000379,-2.943067563649816698
0.553000000000000380,-2.902908621953831148
0.554000000000000381,-2.863105651290204445
0.555000000000000382,-2.823659207454270792
0.556000000000000383,-2.784569766869135599
0.557000000000000384,-2.745837727732803213
0.558000000000000385,-2.707463411174829471
0.559000000000000385,-2.669447062421808958
0.560000000000000386,-2.631788851970667142
0.561000000000000387,-2.594488876768950014
0.562000000000000388,-2.557547161401226621
0.563000000000000389,-2.520963659280832214
0.564000000000000390,-2.484738253846098477
0.565000000000000391,-2.448870759760317206
0.566000000000000392,-2.413360924114681616
0.567000000000000393,-2.378208427633501820
0.568000000000000393,-2.343412885880904462
0.569000000000000394,-2.308973850468393429
0.570000000000000395,-2.274890810262631735
0.571000000000000396,-2.241163192592666942
0.572000000000000397,-2.207790364456163612
0.573000000000000398,-2.174771633723835862
0.574000000000000399,-2.142106250341705653
0.575000000000000400,-2.109793407530406562
0.576000000000000401,-2.077832242981160427
0.577000000000000401,-2.046221840047860674
0.578000000000000402,-2.014961228934670778
0.579000000000000403,-1.984049387878745518
0.580000000000000404,-1.953485244327617609
0.581000000000000405,-1.923267676110699487
0.582000000000000406,-1.893395512604581388
0.583000000000000407,-1.863867535891623461
0.584000000000000408,-1.834682481911515506
0.585000000000000409,-1.805839041605378892
0.586000000000000409,-1.777335862052045412
0.587000000000000410,-1.749171547596230170
0.588000000000000411,-1.721344660968153972
0.589000000000000412,-1.693853724394440707
0.590000000000000413,-1.666697220699842941
0.591000000000000414,-1.639873594399625656
0.592000000000000415,-1.613381252782299047
0.593000000000000416,-1.587218566982407930
0.594000000000000417,-1.561383873043156623
0.595000000000000417,-1.535875472968752709
0.596000000000000418,-1.510691635765975205
0.597000000000000419,-1.485830598475121445
0.598000000000000420,-1.461290567189819312
0.599000000000000421,-1.437069718065759227
0.600000000000000422,-1.413166198318038580
0.601000000000000423,-1.389578127207037106
0.602000000000000424,-1.366303597012646920
0.603000000000000425,-1.343340673996738399
0.604000000000000425,-1.320687399353736691
0.605000000000000426,-1.298341790149176056
0.606000000000000427,-1.276301840246228947
0.607000000000000428,-1.254565521219888957
0.608000000000000429,-1.233130783259083874
0.609000000000000430,-1.211995556056225443
0.610000000000000431,-1.191157749684528255
