# CNT15-OH-4_ALASCA-JS
# h[nm],U(h)[kJ/mol]
0.200000000000000011,61.200687939577925079
0.201000000000000012,58.723803707734340662
0.202000000000000013,57.330831133756078088
0.203000000000000014,56.411427746114512161
0.204000000000000015,55.628608754305005846
0.205000000000000016,54.816707660094365906
0.206000000000000016,53.912437618079422919
0.207000000000000017,52.909422536968612860
0.208000000000000018,51.829142366990268442
0.209000000000000019,50.703167356153912237
0.210000000000000020,49.562994922011213816
0.211000000000000021,48.434868613772515289
0.212000000000000022,47.337742498777579669
0.213000000000000023,46.283126021527991156
0.214000000000000024,45.275957322599921895
0.215000000000000024,44.315947820416973002
0.216000000000000025,43.399048395391297106
0.217000000000000026,42.518831074657910563
0.218000000000000027,41.667677213056393271
0.219000000000000028,40.837726896528835141
0.220000000000000029,40.021584383636628957
0.221000000000000030,39.212798019913478242
0.222000000000000031,38.406145448772853968
0.223000000000000032,37.597759892136394910
0.224000000000000032,36.785133491243904302
0.225000000000000033,35.967031087190761696
0.226000000000000034,35.143343694253076137
0.227000000000000035,34.314906158566827798
0.228000000000000036,33.483298671060701679
0.229000000000000037,32.650647266674354796
0.230000000000000038,31.819434387538592546
0.231000000000000039,30.992327106368822598
0.232000000000000040,30.172027718577275834
0.233000000000000040,29.361149094237656954
0.234000000000000041,28.562115384809953156
0.235000000000000042,27.777087341898017314
0.236000000000000043,27.007910558903063247
0.237000000000000044,26.256084324641022931
0.238000000000000045,25.522748418389287650
0.239000000000000046,24.808685022127725972
0.240000000000000047,24.114332928674045320
0.241000000000000048,23.439811341957721424
0.242000000000000048,22.784950762787609335
0.243000000000000049,22.149328701571253220
0.244000000000000050,21.532308235778078398
0.245000000000000051,20.933077716803200730
0.246000000000000052,20.350690214947849910
0.247000000000000053,19.784101562779959238
0.248000000000000054,19.232206109485396439
0.249000000000000055,18.693869527699018107
0.250000000000000056,18.167958217373588070
0.251000000000000056,17.653365027651112484
0.252000000000000057,17.149031167713093993
0.253000000000000058,16.653964302290564348
0.254000000000000059,16.167252928560571945
0.255000000000000060,15.688077210561107933
0.256000000000000061,15.215716507240770738
0.257000000000000062,14.749553873127279502
0.258000000000000063,14.289077838639988371
0.259000000000000064,13.833881792499227004
0.260000000000000064,13.383661293581273100
0.261000000000000065,12.938209635857912616
0.262000000000000066,12.497411979487498712
0.263000000000000067,12.061238345251465987
0.264000000000000068,11.629735749726783922
0.265000000000000069,11.203019736039683707
0.266000000000000070,10.781265530776298789
0.267000000000000071,10.364699032482509011
0.268000000000000071,9.953587811876470681
0.269000000000000072,9.548232278990408162
0.270000000000000073,9.148957148407308893
0.271000000000000074,8.756103310906912185
0.272000000000000075,8.370020198438254511
0.273000000000000076,7.991058709569669460
0.274000000000000077,7.619564744538156909
0.275000000000000078,7.255873382783993186
0.276000000000000079,6.900303721419431824
0.277000000000000079,6.553154380413045210
0.278000000000000080,6.214699669317166553
0.279000000000000081,5.885186401041697657
0.280000000000000082,5.564831330389387709
0.281000000000000083,5.253819188705213250
0.282000000000000084,4.952301280941978412
0.283000000000000085,4.660394607586363591
0.284000000000000086,4.378181471104805489
0.285000000000000087,4.105709524739916461
0.286000000000000087,3.842992220500428324
0.287000000000000088,3.590009612932148375
0.288000000000000089,3.346709475630777142
0.289000000000000090,3.113008688362381982
0.290000000000000091,2.888794854005439117
0.291000000000000092,2.673928106235702984
0.292000000000000093,2.468243070869206246
0.293000000000000094,2.271550945990158610
0.294000000000000095,2.083641668360864507
0.295000000000000095,1.904286136085550085
0.296000000000000096,1.733238460033962536
0.297000000000000097,1.570238219082178643
0.298000000000000098,1.415012696763769950
0.299000000000000099,1.267279079414199483
0.300000000000000100,1.126746598311596959
0.301000000000000101,0.993118600647352801
0.302000000000000102,0.866094536385248026
0.303000000000000103,0.745371850174781914
0.304000000000000103,0.630647769465739749
0.305000000000000104,0.521620981818704865
0.306000000000000105,0.417993196118148169
0.307000000000000106,0.319470583968581745
0.308000000000000107,0.225765098990372115
0.309000000000000108,0.136595673032493259
0.310000000000000109,0.051689289487202160
0.311000000000000110,-0.029218065068434530
0.312000000000000111,-0.106380568763389721
0.313000000000000111,-0.180041848915946379
0.314000000000000112,-0.250434379482271596
0.315000000000000113,-0.317778987260277979
0.316000000000000114,-0.382284462154015403
0.317000000000000115,-0.444147266409839148
0.318000000000000116,-0.503551337425700796
0.319000000000000117,-0.560667978502038533
0.320000000000000118,-0.615655831740119952
0.321000000000000119,-0.668660927194755561
0.322000000000000119,-0.719816802346689655
0.323000000000000120,-0.769244685969263431
0.324000000000000121,-0.817053740518961069
0.325000000000000122,-0.863341357273849419
0.326000000000000123,-0.908193498572986480
0.327000000000000124,-0.951685081668648736
0.328000000000000125,-0.993880398887237559
0.329000000000000126,-1.034833568999186770
0.330000000000000127,-1.074589014920206642
0.331000000000000127,-1.113181963101254945
0.332000000000000128,-1.150638960209953154
0.333000000000000129,-1.186978402958814183
0.334000000000000130,-1.222211077192606909
0.335000000000000131,-1.256340702606645987
0.336000000000000132,-1.289364479726819113
0.337000000000000133,-1.321273636039812072
0.338000000000000134,-1.352053968415807050
0.339000000000000135,-1.381686379214891902
0.340000000000000135,-1.410147403711328185
0.341000000000000136,-1.437409726705324076
0.342000000000000137,-1.463442686419552219
0.343000000000000138,-1.488212763996294985
0.344000000000000139,-1.511684057120538105
0.345000000000000140,-1.533818736493821167
0.346000000000000141,-1.554577484073078386
0.347000000000000142,-1.573919912167778268
0.348000000000000143,-1.591804962657360267
0.349000000000000143,-1.608191285749008825
0.350000000000000144,-1.623037597843601132
0.351000000000000145,-1.636303018214955385
0.352000000000000146,-1.647947384334774501
0.353000000000000147,-1.657931545792862504
0.354000000000000148,-1.666217636869833374
0.355000000000000149,-1.672769327917613014
0.356000000000000150,-1.677552055792178809
0.357000000000000151,-1.680533233663334514
0.358000000000000151,-1.681682440598301298
0.359000000000000152,-1.680971591379889718
0.360000000000000153,-1.678375087076558803
0.361000000000000154,-1.673869946930701236
0.362000000000000155,-1.667435922174077989
0.363000000000000156,-1.659055592415241254
0.364000000000000157,-1.648714445273744333
0.365000000000000158,-1.636400939960488188
0.366000000000000159,-1.622106555522444982
0.367000000000000159,-1.605825824484452768
0.368000000000000160,-1.587556352630490775
0.369000000000000161,-1.567298825672423623
0.370000000000000162,-1.545057003556054465
0.371000000000000163,-1.520837703152707610
0.372000000000000164,-1.494650770079599456
0.373000000000000165,-1.466509040384739837
0.374000000000000166,-1.436428292821722685
0.375000000000000167,-1.404427192427208926
0.376000000000000167,-1.370527226099378826
0.377000000000000168,-1.334752630859139977
0.378000000000000169,-1.297130315457893701
0.379000000000000170,-1.257689775976481572
0.380000000000000171,-1.216463006039204320
0.381000000000000172,-1.173484402245642766
0.382000000000000173,-1.128790665400527082
0.383000000000000174,-1.082420698099300527
0.384000000000000175,-1.034415499203487965
0.385000000000000175,-0.984818055716481178
0.386000000000000176,-0.933673232546446075
0.387000000000000177,-0.881027660619072783
0.388000000000000178,-0.826929623779124157
0.389000000000000179,-0.771428944895693802
0.390000000000000180,-0.714576871562793037
0.391000000000000181,-0.656425961763247301
0.392000000000000182,-0.597029969841272989
0.393000000000000183,-0.536443733106219511
0.394000000000000183,-0.474723059368178657
0.395000000000000184,-0.411924615684485018
0.396000000000000185,-0.348105818575084158
0.397000000000000186,-0.283324725944562428
0.398000000000000187,-0.217639930928654912
0.399000000000000188,-0.151110457864037012
0.400000000000000189,-0.083795660561859081
0.401000000000000190,-0.015755123047450904
0.402000000000000191,0.052951437087995414
0.403000000000000191,0.122264262594773937
0.404000000000000192,0.192123647617314430
0.405000000000000193,0.262470025793549611
0.406000000000000194,0.333244055316561538
0.407000000000000195,0.404386700887506112
0.408000000000000196,0.475839312501834921
0.409000000000000197,0.547543701022761065
0.410000000000000198,0.619442210507422097
0.411000000000000199,0.691477787262090748
0.412000000000000199,0.763594045612805639
0.413000000000000200,0.835735330387302966
0.414000000000000201,0.907846776113067522
0.415000000000000202,0.979874362944657462
0.416000000000000203,1.051764969340919897
0.417000000000000204,1.123466421520236569
0.418000000000000205,1.194927539728127375
0.419000000000000206,1.266098181357843577
0.420000000000000207,1.336929280970187595
0.421000000000000207,1.407372887263537375
0.422000000000000208,1.477382197050141954
0.423000000000000209,1.546911586298424179
0.424000000000000210,1.615916638305110009
0.425000000000000211,1.684354169064152584
0.426000000000000212,1.752182249902369815
0.427000000000000213,1.819360227454352552
0.428000000000000214,1.885848741051262989
0.429000000000000214,1.951609737600213279
0.430000000000000215,2.016606484032350544
0.431000000000000216,2.080803577398992577
0.432000000000000217,2.144166952696393569
0.433000000000000218,2.206663888500133286
0.434000000000000219,2.268263010490865650
0.435000000000000220,2.328934292953234397
0.436000000000000221,2.388649058329930241
0.437000000000000222,2.447379974912643252
0.438000000000000222,2.505101052751285806
0.439000000000000223,2.561787637862413369
0.440000000000000224,2.617416404817037634
0.441000000000000225,2.671965347787287559
0.442000000000000226,2.725413770130205915
0.443000000000000227,2.777742272586203320
0.444000000000000228,2.828932740168201398
0.445000000000000229,2.878968327816405548
0.446000000000000230,2.927833444892137926
0.447000000000000230,2.975513738582783674
0.448000000000000231,3.021996076288309574
0.449000000000000232,3.067268527058246264
0.450000000000000233,3.111320342146338902
0.451000000000000234,3.154141934748399656
0.452000000000000235,3.195724858987110562
0.453000000000000236,3.236061788205833345
0.454000000000000237,3.275146492631512363
0.455000000000000238,3.312973816465150101
0.456000000000000238,3.349539654456278548
0.457000000000000239,3.384840928016186634
0.458000000000000240,3.418875560922601586
0.459000000000000241,3.451642454666939308
0.460000000000000242,3.483141463493048207
0.461000000000000243,3.513373369174856098
0.462000000000000244,3.542339855578209296
0.463000000000000245,3.570043483050637345
0.464000000000000246,3.596487662680720288
0.465000000000000246,3.621676630467123292
0.466000000000000247,3.645615421435586256
0.467000000000000248,3.668309843740339637
0.468000000000000249,3.689766452784761785
0.469000000000000250,3.709992525394477436
0.470000000000000251,3.728996034074307353
0.471000000000000252,3.746785621379022935
0.472000000000000253,3.763370574426164517
0.473000000000000254,3.778760799577692175
0.474000000000000254,3.792966797315737271
0.475000000000000255,3.805999637336198393
0.476000000000000256,3.817870933882595352
0.477000000000000257,3.828592821341042729
0.478000000000000258,3.838177930116037029
0.479000000000000259,3.846639362805267748
0.480000000000000260,3.853990670690499165
0.481000000000000261,3.860245830560278701
0.482000000000000262,3.865419221879014877
0.483000000000000262,3.869525604315887879
0.484000000000000263,3.872580095645815845
0.485000000000000264,3.874598150033751409
0.486000000000000265,3.875595536712423073
0.487000000000000266,3.875588319062693188
0.488000000000000267,3.874592834104772177
0.489000000000000268,3.872625672407470354
0.490000000000000269,3.869703658421968839
0.491000000000000270,3.865843831245518114
0.492000000000000270,3.861063425819867057
0.493000000000000271,3.855379854568246056
0.494000000000000272,3.848810689474164271
0.495000000000000273,3.841373644604375581
0.496000000000000274,3.833086559077847788
0.497000000000000275,3.823967380481841705
0.498000000000000276,3.814034148735545582
0.499000000000000277,3.803304980401264856
0.500000000000000222,3.791798053442422933
0.501000000000000334,3.779531592427268549
0.502000000000000224,3.766523854176573316
0.503000000000000336,3.752793113853172713
0.504000000000000226,3.738357651490792133
0.505000000000000338,3.723235738959074670
0.506000000000000227,3.707445627361477314
0.507000000000000339,3.691005534862197290
0.508000000000000229,3.673933634938067794
0.509000000000000341,3.656248045050886297
0.510000000000000231,3.637966815735549808
0.511000000000000343,3.619107920098840303
0.512000000000000233,3.599689243723725784
0.513000000000000345,3.579728574973491728
0.514000000000000234,3.559243595690118500
0.515000000000000346,3.538251872280836263
0.516000000000000236,3.516770847186859950
0.517000000000000348,3.494817830727859675
0.518000000000000238,3.472409993315925369
0.519000000000000350,3.449564358032237266
0.520000000000000240,3.426297793559965665
0.521000000000000352,3.402627007466413112
0.522000000000000242,3.378568539827703887
0.523000000000000353,3.354138757188851905
0.524000000000000243,3.329353846852401322
0.525000000000000355,3.304229811488369251
0.526000000000000245,3.278782464058528578
0.527000000000000357,3.253027423047729627
0.528000000000000247,3.226980107995252922
0.529000000000000359,3.200655735318865602
0.530000000000000249,3.174069314424516453
0.531000000000000361,3.147235644094394935
0.532000000000000250,3.120169309146314518
0.533000000000000362,3.092884677357134571
0.534000000000000252,3.065395896643319684
0.535000000000000364,3.037716892491326259
0.536000000000000254,3.009861365631064878
0.537000000000000366,2.981842789945207350
0.538000000000000256,2.953674410607669998
0.539000000000000368,2.925369242444203266
0.540000000000000258,2.896940068508517818
0.541000000000000369,2.868399438866995332
0.542000000000000259,2.839759669585627755
0.543000000000000371,2.811032841912349589
0.544000000000000261,2.782230801648508667
0.545000000000000373,2.753365158702945958
0.546000000000000263,2.724447286822520464
0.547000000000000375,2.695488323492674976
0.548000000000000265,2.666499170002220698
0.549000000000000377,2.637490491666005354
0.550000000000000266,2.608472718199870144
0.551000000000000378,2.579456044241795531
0.552000000000000268,2.550450430013786907
0.553000000000000380,2.521465602118675875
0.554000000000000270,2.492511054466531206
0.555000000000000382,2.463596049325111448
0.556000000000000272,2.434729618489251290
0.557000000000000384,2.405920564563844621
0.558000000000000274,2.377177462355490434
0.559000000000000385,2.348508660367733647
0.560000000000000275,2.319922282395158408
0.561000000000000387,2.291426229211471544
0.562000000000000277,2.263028180347103735
0.563000000000000389,2.234735595951609533
0.564000000000000279,2.206555718736659788
0.565000000000000391,2.178495575995119449
0.566000000000000281,2.150561981692219682
0.567000000000000393,2.122761538624514888
0.568000000000000282,2.095100640642848955
0.569000000000000394,2.067585474935241585
0.570000000000000284,2.040222024366164177
0.571000000000000396,2.013016069868243552
0.572000000000000286,1.985973192883097926
0.573000000000000398,1.959098777847630313
0.574000000000000288,1.932398014722565005
0.575000000000000400,1.905875901559785035
0.576000000000000290,1.879537247105530939
0.577000000000000401,1.853386673436108634
0.578000000000000291,1.827428618623383016
0.579000000000000403,1.801667339426973768
0.580000000000000293,1.776106914010516125
0.581000000000000405,1.750751244679092933
0.582000000000000295,1.725604060635477222
0.583000000000000407,1.700668920752363089
0.584000000000000297,1.675949216358433080
0.585000000000000409,1.651448174035633043
0.586000000000000298,1.627168858425656950
0.587000000000000410,1.603114175043153677
0.588000000000000300,1.579286873093842969
0.589000000000000412,1.555689548295234204
0.590000000000000302,1.532324645698229570
0.591000000000000414,1.509194462507511769
0.592000000000000304,1.486301150899115964
0.593000000000000416,1.463646720833268189
0.594000000000000306,1.441233042860967872
0.595000000000000417,1.419061850922596957
0.596000000000000307,1.397134745137166290
0.597000000000000419,1.375453194580579686
0.598000000000000309,1.354018540051631581
0.599000000000000421,1.332831996824376475
0.600000000000000311,1.311894657385570095
0.601000000000000423,1.291207494155952595
0.602000000000000313,1.270771362194329290
0.603000000000000425,1.250587001883155303
0.604000000000000314,1.230655041594800547
0.605000000000000426,1.210976000337287140
0.606000000000000316,1.191550290378764254
0.607000000000000428,1.172378219849654180
0.608000000000000318,1.153459995321766129
0.609000000000000430,1.134795724363477643
0.610000000000000320,1.116385418070365398
0.611000000000000432,1.098228993570421697
0.612000000000000322,1.080326276503392746
0.613000000000000433,1.062677003473447623
0.614000000000000323,1.045280824474738690
0.615000000000000435,1.028137305289228198
0.616000000000000325,1.011245929856396497
0.617000000000000437,0.994606102614236987
0.618000000000000327,0.978217150811263259
0.619000000000000439,0.962078326789039151
0.620000000000000329,0.946188810234945832
0.621000000000000441,0.930547710404834638
0.622000000000000330,0.915154068315318647
0.623000000000000442,0.900006858905382678
0.624000000000000332,0.885104993167210474
0.625000000000000444,0.870447320245865797
0.626000000000000334,0.856032629507839316
0.627000000000000446,0.841859652578169304
0.628000000000000336,0.827927065346133473
0.629000000000000448,0.814233489939334754
0.630000000000000338,0.800777496666214006
0.631000000000000449,0.787557605926806459
0.632000000000000339,0.774572290091888993
0.633000000000000451,0.761819975350361278
0.634000000000000341,0.749299043525014086
0.635000000000000453,0.737007833856578864
0.636000000000000343,0.724944644756301049
0.637000000000000455,0.713107735526902209
0.638000000000000345,0.701495328052228695
0.639000000000000457,0.690105608455516717
0.640000000000000346,0.678936728726547756
0.641000000000000458,0.667986808317700520
0.642000000000000348,0.657253935709183779
0.643000000000000460,0.646736169943483041
0.644000000000000350,0.636431542129331951
0.645000000000000462,0.626338056915277663
0.646000000000000352,0.616453693933160074
0.647000000000000464,0.606776409211596368
0.648000000000000353,0.597304136559828613
0.649000000000000465,0.588034788922030982
0.650000000000000355,0.578966259702453523
0.651000000000000467,0.570096424061541596
0.652000000000000357,0.561423140183363811
0.653000000000000469,0.552944250514588953
0.654000000000000359,0.544657582975290433
0.655000000000000471,0.536560952141855396
0.656000000000000361,0.528652160402310223
0.657000000000000473,0.520928999084313338
0.658000000000000362,0.513389249556166272
0.659000000000000474,0.506030684301103095
0.660000000000000364,0.498851067965207673
0.661000000000000476,0.491848158379219136
0.662000000000000366,0.485019707554612878
0.663000000000000478,0.478363462654210980
0.664000000000000368,0.471877166937699433
0.665000000000000480,0.465558560682328260
0.666000000000000369,0.459405382079179525
0.667000000000000481,0.453415368105280603
0.668000000000000371,0.447586255371949626
0.669000000000000483,0.441915780949650838
0.670000000000000373,0.436401683169750698
