# CNT15-OH-4_GLNSCA-AC
# h[nm],U(h)[kJ/mol]
0.149999999999999994,126.424626026205260132
0.150999999999999995,124.340080930868310816
0.151999999999999996,122.563545785337936422
0.152999999999999997,120.882752305908596213
0.153999999999999998,119.204150719025577132
0.154999999999999999,117.498034389091529306
0.156000000000000000,115.765503167893896830
0.157000000000000001,114.019557192291628667
0.158000000000000002,112.275080264822420872
0.159000000000000002,110.544211117441662395
0.160000000000000003,108.834812300363481086
0.161000000000000004,107.150578796174315244
0.162000000000000005,105.491891134541404540
0.163000000000000006,103.856890688687371949
0.164000000000000007,102.242495872765175591
0.165000000000000008,100.645228709006488543
0.166000000000000009,99.061811257790978402
0.167000000000000010,97.489541484322217002
0.168000000000000010,95.926482689834159601
0.169000000000000011,94.371509509316155118
0.170000000000000012,92.824253267455262062
0.171000000000000013,91.284984501307576465
0.172000000000000014,89.754463429938468266
0.173000000000000015,88.233781725683726904
0.174000000000000016,86.724212044920037101
0.175000000000000017,85.227075864789753723
0.176000000000000018,83.743635407823006744
0.177000000000000018,82.275011804763551027
0.178000000000000019,80.822129036922106593
0.179000000000000020,79.385681458355705331
0.180000000000000021,77.966121658251182680
0.181000000000000022,76.563664925101264203
0.182000000000000023,75.178306473780793340
0.183000000000000024,73.809847773255938819
0.184000000000000025,72.457928667733938255
0.185000000000000026,71.122062440261942129
0.186000000000000026,69.801671466805913724
0.187000000000000027,68.496121608580708084
0.188000000000000028,67.204753962089341712
0.189000000000000029,65.926913011797495301
0.190000000000000030,64.661970599634315704
0.191000000000000031,63.409345434676581021
0.192000000000000032,62.168518115912306143
0.193000000000000033,60.939041834309854551
0.194000000000000034,59.720549062827807063
0.195000000000000034,58.512754640780102022
0.196000000000000035,57.315455718811634256
0.197000000000000036,56.128529059272942447
0.198000000000000037,54.951926190284822837
0.199000000000000038,53.785666895983027302
0.200000000000000039,52.629831495403742281
0.201000000000000040,51.484552322588186257
0.202000000000000041,50.350004774429393706
0.203000000000000042,49.226398243578344704
0.204000000000000042,48.113967203771451864
0.205000000000000043,47.012962666106005827
0.206000000000000044,45.923644178451496600
0.207000000000000045,44.846272497321422179
0.208000000000000046,43.781103022775248235
0.209000000000000047,42.728380052624473251
0.210000000000000048,41.688331882510837545
0.211000000000000049,40.661166753265973739
0.212000000000000050,39.647069626167834144
0.213000000000000050,38.646199750019363250
0.214000000000000051,37.658688971045947369
0.215000000000000052,36.684640727074828703
0.216000000000000053,35.724129660927907537
0.217000000000000054,34.777201784037330867
0.218000000000000055,33.843875119597093715
0.219000000000000056,32.924140754731254788
0.220000000000000057,32.017964232843254990
0.221000000000000058,31.125287220211710348
0.222000000000000058,30.246029384720674926
0.223000000000000059,29.380090429122095230
0.224000000000000060,28.527352226197354668
0.225000000000000061,27.687681008433326468
0.226000000000000062,26.860929570194901572
0.227000000000000063,26.046939445730636464
0.228000000000000064,25.245543031586073823
0.229000000000000065,24.456565627031768173
0.230000000000000066,23.679827370881120885
0.231000000000000066,22.915145057523844230
0.232000000000000067,22.162333819105363375
0.233000000000000068,21.421208664519287623
0.234000000000000069,20.691585869239819573
0.235000000000000070,19.973284213004735221
0.236000000000000071,19.266126064973480680
0.237000000000000072,18.569938318240343023
0.238000000000000073,17.884553177499544319
0.239000000000000073,17.209808805256077591
0.240000000000000074,16.545549833273767604
0.241000000000000075,15.891627746979162694
0.242000000000000076,15.247901151316696655
0.243000000000000077,14.614235927103925050
0.244000000000000078,13.990505287290375236
0.245000000000000079,13.376589742701833430
0.246000000000000080,12.772376986879466543
0.247000000000000081,12.177761709517037403
0.248000000000000081,11.592645347785149212
0.249000000000000082,11.016935784523765207
0.250000000000000111,10.450547001901686173
0.251000000000000112,9.893398698700964999
0.252000000000000113,9.345415878896384143
0.253000000000000114,8.806528418683189585
0.254000000000000115,8.276670618564246240
0.255000000000000115,7.755780746557491057
0.256000000000000116,7.243800578029203407
0.257000000000000117,6.740674937108249942
0.258000000000000118,6.246351244097047228
0.259000000000000119,5.760779072770064069
0.260000000000000120,5.283909720945763056
0.261000000000000121,4.815695797236648978
0.262000000000000122,4.356090826425042195
0.263000000000000123,3.905048875484040227
0.264000000000000123,3.462524201862167583
0.265000000000000124,3.028470925279863391
0.266000000000000125,2.602842723944483794
0.267000000000000126,2.185592555779240165
0.268000000000000127,1.776672404978502540
0.269000000000000128,1.376033053948688245
0.270000000000000129,0.983623880467262013
0.271000000000000130,0.599392679692149821
0.272000000000000131,0.223285510479811322
0.273000000000000131,-0.144753434681238968
0.274000000000000132,-0.504781936942567122
0.275000000000000133,-0.856859836502466665
0.276000000000000134,-1.201049097163995993
0.277000000000000135,-1.537413851130539300
0.278000000000000136,-1.866020425179364839
0.279000000000000137,-2.186937349391533836
0.280000000000000138,-2.500235349641034333
0.281000000000000139,-2.805987325059108972
0.282000000000000139,-3.104268311690557614
0.283000000000000140,-3.395155433551065194
0.284000000000000141,-3.678727842277467630
0.285000000000000142,-3.955066646538909048
0.286000000000000143,-4.224254832346143296
0.287000000000000144,-4.486377175360016345
0.288000000000000145,-4.741520146260240764
0.289000000000000146,-4.989771810190338996
0.290000000000000147,-5.231221721248498824
0.291000000000000147,-5.465960812943768232
0.292000000000000148,-5.694081285486719324
0.293000000000000149,-5.915676490730866099
0.294000000000000150,-6.130840815529060350
0.295000000000000151,-6.339669564215951070
0.296000000000000152,-6.542258840875314618
0.297000000000000153,-6.738705431999074236
0.298000000000000154,-6.929106690094132937
0.299000000000000155,-7.113560418743318792
0.300000000000000155,-7.292164759578604105
0.301000000000000156,-7.465018081577961873
0.302000000000000157,-7.632218873052653230
0.303000000000000158,-7.793865636648393824
0.304000000000000159,-7.950056787643168477
0.305000000000000160,-8.100890555785191793
0.306000000000000161,-8.246464890877891918
0.307000000000000162,-8.386877372283935372
0.308000000000000163,-8.522225122487602889
0.309000000000000163,-8.652604724824389137
0.310000000000000164,-8.778112145458313975
0.311000000000000165,-8.898842659660875398
0.312000000000000166,-9.014890782421502990
0.313000000000000167,-9.126350203396727423
0.314000000000000168,-9.233313726184913861
0.315000000000000169,-9.335873211894748280
0.316000000000000170,-9.434119526958928859
0.317000000000000171,-9.528142495128992806
0.318000000000000171,-9.618030853573964478
0.319000000000000172,-9.703872212993498891
0.320000000000000173,-9.785753021645314575
0.321000000000000174,-9.863758533177851007
0.322000000000000175,-9.937972778151094033
0.323000000000000176,-10.008478539121725248
0.324000000000000177,-10.075357329163537656
0.325000000000000178,-10.138689373689039996
0.326000000000000179,-10.198553595435441821
0.327000000000000179,-10.255027602474944715
0.328000000000000180,-10.308187679107895462
0.329000000000000181,-10.358108779496498997
0.330000000000000182,-10.404864523896097950
0.331000000000000183,-10.448527197342041717
0.332000000000000184,-10.489167750650562283
0.333000000000000185,-10.526855803593971217
0.334000000000000186,-10.561659650112305897
0.335000000000000187,-10.593646265425956443
0.336000000000000187,-10.622881314916767792
0.337000000000000188,-10.649429164647715496
0.338000000000000189,-10.673352893395300356
0.339000000000000190,-10.694714306071901433
0.340000000000000191,-10.713573948419291781
0.341000000000000192,-10.729991122858653085
0.342000000000000193,-10.744023905386343998
0.343000000000000194,-10.755729163409117888
0.344000000000000195,-10.765162574416445196
0.345000000000000195,-10.772378645392519658
0.346000000000000196,-10.777430732874261565
0.347000000000000197,-10.780371063566613898
0.348000000000000198,-10.781250755430376032
0.349000000000000199,-10.780119839162484396
0.350000000000000200,-10.777027279992804409
0.351000000000000201,-10.772020999725818058
0.352000000000000202,-10.765147898959714468
0.353000000000000203,-10.756453879419613173
0.354000000000000203,-10.745983866345692803
0.355000000000000204,-10.733781830880532837
0.356000000000000205,-10.719890812404445413
0.357000000000000206,-10.704352940770769820
0.358000000000000207,-10.687209458396759842
0.359000000000000208,-10.668500742169388928
0.360000000000000209,-10.648266325128544096
0.361000000000000210,-10.626544917893301800
0.362000000000000210,-10.603374429800183520
0.363000000000000211,-10.578791989725090161
0.364000000000000212,-10.552833966563650137
0.365000000000000213,-10.525535989347158505
0.366000000000000214,-10.496932966974126700
0.367000000000000215,-10.467059107539629537
0.368000000000000216,-10.435947937247322059
0.369000000000000217,-10.403632318890727149
0.370000000000000218,-10.370144469892984773
0.371000000000000218,-10.335515979895703254
0.372000000000000219,-10.299777827889837312
0.373000000000000220,-10.262960398882992052
0.374000000000000221,-10.225093500099223576
0.375000000000000222,-10.186206376708886623
0.376000000000000223,-10.146327727087651738
0.377000000000000224,-10.105485717604942408
0.378000000000000225,-10.063707996943275447
0.379000000000000226,-10.021021709951227763
0.380000000000000226,-9.977453511033724354
0.381000000000000227,-9.933029577084159456
0.382000000000000228,-9.887775619964001450
0.383000000000000229,-9.841716898536109426
0.384000000000000230,-9.794878230258598606
0.385000000000000231,-9.747284002347232246
0.386000000000000232,-9.698958182514189730
0.387000000000000233,-9.649924329292206338
0.388000000000000234,-9.600205601953016199
0.389000000000000234,-9.549824770029943011
0.390000000000000235,-9.498804222454220181
0.391000000000000236,-9.447165976315506697
0.392000000000000237,-9.394931685256800336
0.393000000000000238,-9.342122647514553790
0.394000000000000239,-9.288759813614564820
0.395000000000000240,-9.234863793734678694
0.396000000000000241,-9.180454864745204446
0.397000000000000242,-9.125552976937930438
0.398000000000000242,-9.070177760454914306
0.399000000000000243,-9.014348531427895495
0.400000000000000244,-8.958084297839240762
0.401000000000000245,-8.901403765115421862
0.402000000000000246,-8.844325341463575185
0.403000000000000247,-8.786867142961924060
0.404000000000000248,-8.729046998414498049
0.405000000000000249,-8.670882453980533811
0.406000000000000250,-8.612390777588627699
0.407000000000000250,-8.553588963145774215
0.408000000000000251,-8.494493734550918163
0.409000000000000252,-8.435121549522715867
0.410000000000000253,-8.375488603250817121
0.411000000000000254,-8.315610831879803655
0.412000000000000255,-8.255503915834644602
0.413000000000000256,-8.195183282996476137
0.414000000000000257,-8.134664111736832126
0.415000000000000258,-8.073961333818857611
0.416000000000000258,-8.013089637173070656
0.417000000000000259,-7.952063468555566672
0.418000000000000260,-7.890897036095966044
0.419000000000000261,-7.829604311742225597
0.420000000000000262,-7.768199033609301196
0.421000000000000263,-7.706694708238211788
0.422000000000000264,-7.645104612771890018
0.423000000000000265,-7.583441797053933620
0.424000000000000266,-7.521719085656277670
0.425000000000000266,-7.459949079841136310
0.426000000000000267,-7.398144159462880509
0.427000000000000268,-7.336316484814815908
0.428000000000000269,-7.274477998425811442
0.429000000000000270,-7.212640426811529615
0.430000000000000271,-7.150815282184547428
0.431000000000000272,-7.089013864127754694
0.432000000000000273,-7.027247261234907505
0.433000000000000274,-6.965526352722219983
0.434000000000000274,-6.903861810014494615
0.435000000000000275,-6.842264098309238207
0.436000000000000276,-6.780743478121932455
0.437000000000000277,-6.719310006815403469
0.438000000000000278,-6.657973540116131517
0.439000000000000279,-6.596743733620186845
0.440000000000000280,-6.535630044291101726
0.441000000000000281,-6.474641731952077706
0.442000000000000282,-6.413787860774642802
0.443000000000000282,-6.353077300765617608
0.444000000000000283,-6.292518729254345189
0.445000000000000284,-6.232120632381763059
0.446000000000000285,-6.171891306592769411
0.447000000000000286,-6.111838860133540052
0.448000000000000287,-6.051971214554674461
0.449000000000000288,-5.992296106221703056
0.450000000000000289,-5.932821087833643148
0.451000000000000290,-5.873553529950703123
0.452000000000000290,-5.814500622531928009
0.453000000000000291,-5.755669376483327326
0.454000000000000292,-5.697066625217303226
0.455000000000000293,-5.638699026223670252
0.456000000000000294,-5.580573062652826266
0.457000000000000295,-5.522695044911359652
0.458000000000000296,-5.465071112270299736
0.459000000000000297,-5.407707234486271552
0.460000000000000298,-5.350609213435562950
0.461000000000000298,-5.293782684761241697
0.462000000000000299,-5.237233119533212466
0.463000000000000300,-5.180965825921155066
0.464000000000000301,-5.124985950880237340
0.465000000000000302,-5.069298481849388693
0.466000000000000303,-5.013908248461854456
0.467000000000000304,-4.958819924267805490
0.468000000000000305,-4.904038028468663768
0.469000000000000306,-4.849566927662719351
0.470000000000000306,-4.795410837601787435
0.471000000000000307,-4.741573824958239314
0.472000000000000308,-4.688059809102194997
0.473000000000000309,-4.634872563888196240
0.474000000000000310,-4.582015719450977187
0.475000000000000311,-4.529492764009646066
0.476000000000000312,-4.477307045679966180
0.477000000000000313,-4.425461774293861339
0.478000000000000314,-4.373960023225781590
0.479000000000000314,-4.322804731225274644
0.480000000000000315,-4.271998704255044466
0.481000000000000316,-4.221544617334073379
0.482000000000000317,-4.171445016384948801
0.483000000000000318,-4.121702320084959403
0.484000000000000319,-4.072318821720166682
0.485000000000000320,-4.023296691041930551
0.486000000000000321,-3.974637976125154015
0.487000000000000322,-3.926344605227654938
0.488000000000000322,-3.878418388649945037
0.489000000000000323,-3.830861020594917843
0.490000000000000324,-3.783674081026657809
0.491000000000000325,-3.736859037527830996
0.492000000000000326,-3.690417247154934355
0.493000000000000327,-3.644349958290936886
0.494000000000000328,-3.598658312494515510
0.495000000000000329,-3.553343346345427367
0.496000000000000330,-3.508405993285312441
0.497000000000000330,-3.463847085453438890
0.498000000000000331,-3.419667355516664564
0.499000000000000332,-3.375867438493257655
0.500000000000000333,-3.332447873569820196
0.501000000000000334,-3.289409105910852560
0.502000000000000335,-3.246751488460450474
0.503000000000000336,-3.204475283735575886
0.504000000000000337,-3.162580665610390529
0.505000000000000338,-3.121067721091177027
0.506000000000000338,-3.079936452081363907
0.507000000000000339,-3.039186777136166473
0.508000000000000340,-2.998818533206374148
0.509000000000000341,-2.958831477370956087
0.510000000000000342,-2.919225288557877551
0.511000000000000343,-2.879999569252874814
0.512000000000000344,-2.841153847195680093
0.513000000000000345,-2.802687577063385671
0.514000000000000346,-2.764600142140559491
0.515000000000000346,-2.726890855975712569
0.516000000000000347,-2.689558964023826881
0.517000000000000348,-2.652603645274641764
0.518000000000000349,-2.616024013866268483
0.519000000000000350,-2.579819120683992661
0.520000000000000351,-2.543987954943838226
0.521000000000000352,-2.508529445760737442
0.522000000000000353,-2.473442463700981531
0.523000000000000353,-2.438725822318676961
0.524000000000000354,-2.404378279676135932
0.525000000000000355,-2.370398539847771602
0.526000000000000356,-2.336785254407446111
0.527000000000000357,-2.303537023899084435
0.528000000000000358,-2.270652399290207679
0.529000000000000359,-2.238129883408495502
0.530000000000000360,-2.205967932360946904
0.531000000000000361,-2.174164956935718429
0.532000000000000361,-2.142719323986358226
0.533000000000000362,-2.111629357798441298
0.534000000000000363,-2.080893341438398547
0.535000000000000364,-2.050509518084520533
0.536000000000000365,-2.020476092340017349
0.537000000000000366,-1.990791231528093785
0.538000000000000367,-1.961453066968898984
0.539000000000000368,-1.932459695238461617
0.540000000000000369,-1.903809179409356345
0.541000000000000369,-1.875499550273284965
0.542000000000000370,-1.847528807545383289
0.543000000000000371,-1.819894921050331904
0.544000000000000372,-1.792595831890257285
0.545000000000000373,-1.765629453594419918
0.546000000000000374,-1.738993673250671446
0.547000000000000375,-1.712686352618763008
0.548000000000000376,-1.686705329225515637
0.549000000000000377,-1.661048417441876923
0.550000000000000377,-1.635713409541892371
0.551000000000000378,-1.610698076743712459
0.552000000000000379,-1.586000170232629181
0.553000000000000380,-1.561617422166249103
0.554000000000000381,-1.537547546661832687
0.555000000000000382,-1.513788240765973292
0.556000000000000383,-1.490337185406552356
0.557000000000000384,-1.467192046327242094
0.558000000000000385,-1.444350475004479328
0.559000000000000385,-1.421810109547155365
0.560000000000000386,-1.399568575579039020
0.561000000000000387,-1.377623487104089772
0.562000000000000388,-1.355972447354757637
0.563000000000000389,-1.334613049623414538
0.564000000000000390,-1.313542878077021747
0.565000000000000391,-1.292759508555173964
0.566000000000000392,-1.272260509351645252
0.567000000000000393,-1.252043441979620919
0.568000000000000393,-1.232105861920669954
0.569000000000000394,-1.212445319357685403
0.570000000000000395,-1.193059359891913029
0.571000000000000396,-1.173945525244183274
0.572000000000000397,-1.155101353940588327
0.573000000000000398,-1.136524381982641163
0.574000000000000399,-1.118212143502213651
0.575000000000000400,-1.100162171401270372
0.576000000000000401,-1.082371997976676159
0.577000000000000401,-1.064839155530214354
0.578000000000000402,-1.047561176963930141
0.579000000000000403,-1.030535596361016104
0.580000000000000404,-1.013759949552440975
0.581000000000000405,-0.997231774669402826
0.582000000000000406,-0.980948612681865839
0.583000000000000407,-0.964908007923307998
0.584000000000000408,-0.949107508601868211
0.585000000000000409,-0.933544667298071063
0.586000000000000409,-0.918217041449300275
0.587000000000000410,-0.903122193821214170
0.588000000000000411,-0.888257692966240464
0.589000000000000412,-0.873621113669401206
0.590000000000000413,-0.859210037381553549
0.591000000000000414,-0.845022052640303611
0.592000000000000415,-0.831054755478747964
0.593000000000000416,-0.817305749822191840
0.594000000000000417,-0.803772647873050472
0.595000000000000417,-0.790453070484161247
0.596000000000000418,-0.777344647520534893
0.597000000000000419,-0.764445018209929494
0.598000000000000420,-0.751751831482232569
0.599000000000000421,-0.739262746297964624
0.600000000000000422,-0.726975431966004226
0.601000000000000423,-0.714887568450748523
0.602000000000000424,-0.702996846668861530
0.603000000000000425,-0.691300968775802160
0.604000000000000425,-0.679797648442294400
0.605000000000000426,-0.668484611120902406
0.606000000000000427,-0.657359594302948658
0.607000000000000428,-0.646420347765778391
0.608000000000000429,-0.635664633810818502
0.609000000000000430,-0.625090227492254513
0.610000000000000431,-0.614694916836822536
0.611000000000000432,-0.604476503054652836
