# CNT15-OH-4_GLUPSCA-AC
# h[nm],U(h)[kJ/mol]
0.200000000000000011,66.985849507877887277
0.201000000000000012,66.200707069473125443
0.202000000000000013,65.027445575022483126
0.203000000000000014,63.684595183516556460
0.204000000000000015,62.292564468421616652
0.205000000000000016,60.911140494516317290
0.206000000000000016,59.564432987016992627
0.207000000000000017,58.257040368718570278
0.208000000000000018,56.984171820189317259
0.209000000000000019,55.737685362171575321
0.210000000000000020,54.509431285340141926
0.211000000000000021,53.292872582005301751
0.212000000000000022,52.083650863646866469
0.213000000000000023,50.879548303499419148
0.214000000000000024,49.680141248803508347
0.215000000000000024,48.486332571592278384
0.216000000000000025,47.299875003968836040
0.217000000000000026,46.122947244329452587
0.218000000000000027,44.957811549868210932
0.219000000000000028,43.806560701088947951
0.220000000000000029,42.670949867412858225
0.221000000000000030,41.552302284983987590
0.222000000000000031,40.451474815890499315
0.223000000000000032,39.368869002000010937
0.224000000000000032,38.304474187551036835
0.225000000000000033,37.257931001196489262
0.226000000000000034,36.228605521246173282
0.227000000000000035,35.215666516930312469
0.228000000000000036,34.218160094666416171
0.229000000000000037,33.235077789567156969
0.230000000000000038,32.265415588522735391
0.231000000000000039,31.308222545492053968
0.232000000000000040,30.362638566228845605
0.233000000000000040,29.427921624376001120
0.234000000000000041,28.503465155100411010
0.235000000000000042,27.588806689151859075
0.236000000000000043,26.683628971294773180
0.237000000000000044,25.787754881775828864
0.238000000000000045,24.901137473753987450
0.239000000000000046,24.023846375645614870
0.240000000000000047,23.156051703643736772
0.241000000000000048,22.298006501327854778
0.242000000000000048,21.450028582206105199
0.243000000000000049,20.612482506398436044
0.244000000000000050,19.785762281297245124
0.245000000000000051,18.970275242765289647
0.246000000000000052,18.166427451490225309
0.247000000000000053,17.374610830438278697
0.248000000000000054,16.595192174867367640
0.249000000000000055,15.828504086224876701
0.250000000000000056,15.074837815055300183
0.251000000000000056,14.334437944964108169
0.252000000000000057,13.607498808649316047
0.253000000000000058,12.894162496787604510
0.254000000000000059,12.194518299837955766
0.255000000000000060,11.508603410289124369
0.256000000000000061,10.836404707246568790
0.257000000000000062,10.177861445324293044
0.258000000000000063,9.532868674460523550
0.259000000000000064,8.901281225505403683
0.260000000000000064,8.282918107336460167
0.261000000000000065,7.677567174060835775
0.262000000000000066,7.084989934886403162
0.263000000000000067,6.504926393922332295
0.264000000000000068,5.937099822029380469
0.265000000000000069,5.381221377500579273
0.266000000000000070,4.836994506513554448
0.267000000000000071,4.304119067722786518
0.268000000000000071,3.782295137887453418
0.269000000000000072,3.271226466939471944
0.270000000000000073,2.770623561317266059
0.271000000000000074,2.280206383689464378
0.272000000000000075,1.799706665365462088
0.273000000000000076,1.328869834759594193
0.274000000000000077,0.867456571281569611
0.275000000000000078,0.415243999024619004
0.276000000000000079,-0.027973461319978021
0.277000000000000079,-0.462383560705946550
0.278000000000000080,-0.888155986118798424
0.279000000000000081,-1.305442395409304179
0.280000000000000082,-1.714376695825075458
0.281000000000000083,-2.115075538997710947
0.282000000000000084,-2.507639005129630672
0.283000000000000085,-2.892151449522793349
0.284000000000000086,-3.268682485335003829
0.285000000000000087,-3.637288077474614134
0.286000000000000087,-3.998011723798246209
0.287000000000000088,-4.350885701204613376
0.288000000000000089,-4.695932355776235134
0.289000000000000090,-5.033165417768918459
0.290000000000000091,-5.362591323949163602
0.291000000000000092,-5.684210531503363306
0.292000000000000093,-5.998018809460148759
0.293000000000000094,-6.304008495258043077
0.294000000000000095,-6.602169705734405980
0.295000000000000095,-6.892491493394428126
0.296000000000000096,-7.174962940326442329
0.297000000000000097,-7.449574183554737772
0.298000000000000098,-7.716317366954626777
0.299000000000000099,-7.975187516093360962
0.300000000000000100,-8.226183333500458161
0.301000000000000101,-8.469307912912597658
0.302000000000000102,-8.704569371979520298
0.303000000000000103,-8.931981403762822680
0.304000000000000103,-9.151563748107996332
0.305000000000000104,-9.363342584628377097
0.306000000000000105,-9.567350849609402630
0.307000000000000106,-9.763628479627977086
0.308000000000000107,-9.952222585090023443
0.309000000000000108,-10.133187557223696018
0.310000000000000109,-10.306585112332548704
0.311000000000000110,-10.472484277315860624
0.312000000000000111,-10.630961320610259335
0.313000000000000111,-10.782099632799539535
0.314000000000000112,-10.925989561186725041
0.315000000000000113,-11.062728202626228580
0.316000000000000114,-11.192419158881090624
0.317000000000000115,-11.315172258703666941
0.318000000000000116,-11.431103250743735344
0.319000000000000117,-11.540333471268356291
0.320000000000000118,-11.642989490537612340
0.321000000000000119,-11.739202741523262929
0.322000000000000119,-11.829109134485534582
0.323000000000000120,-11.912848660740843698
0.324000000000000121,-11.990564988762940857
0.325000000000000122,-12.062405055562892997
0.326000000000000123,-12.128518656093493888
0.327000000000000124,-12.189058033221952471
0.328000000000000125,-12.244177470613291092
0.329000000000000126,-12.294032890667045521
0.330000000000000127,-12.338781459453432632
0.331000000000000127,-12.378581200402784646
0.332000000000000128,-12.413590618315257785
0.333000000000000129,-12.443968335077038034
0.334000000000000130,-12.469872738295261883
0.335000000000000131,-12.491461643897963540
0.336000000000000132,-12.508891973586136359
0.337000000000000133,-12.522319447875386089
0.338000000000000134,-12.531898295322502435
0.339000000000000135,-12.537780978399037934
0.340000000000000135,-12.540117936349668426
0.341000000000000136,-12.539057345256956921
0.342000000000000137,-12.534744895426982225
0.343000000000000138,-12.527323586111238640
0.344000000000000139,-12.516933537489826733
0.345000000000000140,-12.503711819758288826
0.346000000000000141,-12.487792299085585412
0.347000000000000142,-12.469305500143752496
0.348000000000000143,-12.448378484849603964
0.349000000000000143,-12.425134746905879268
0.350000000000000144,-12.399694121682767189
0.351000000000000145,-12.372172710940491314
0.352000000000000146,-12.342682821859378706
0.353000000000000147,-12.311332919815013653
0.354000000000000148,-12.278227594312710380
0.355000000000000149,-12.243467537476613316
0.356000000000000150,-12.207149534474869057
0.357000000000000151,-12.169366465252185350
0.358000000000000151,-12.130207316935166517
0.359000000000000152,-12.089757206273100465
0.360000000000000153,-12.048097411477915131
0.361000000000000154,-12.005305412830432843
0.362000000000000155,-11.961454941426575616
0.363000000000000156,-11.916616035445930066
0.364000000000000157,-11.870855103335880898
0.365000000000000158,-11.824234993317652709
0.366000000000000159,-11.776815068634647332
0.367000000000000159,-11.728651287979818818
0.368000000000000160,-11.679796290555833238
0.369000000000000161,-11.630299485240033874
0.370000000000000162,-11.580207143345315757
0.371000000000000163,-11.529562494488136082
0.372000000000000164,-11.478405825094805337
0.373000000000000165,-11.426774579098548656
0.374000000000000166,-11.374703460400574784
0.375000000000000167,-11.322224536689738272
0.376000000000000167,-11.269367344236830064
0.377000000000000168,-11.216158993300634705
0.378000000000000169,-11.162624273804063080
0.379000000000000170,-11.108785760959715816
0.380000000000000171,-11.054663920544665956
0.381000000000000172,-11.000277213544649157
0.382000000000000173,-10.945642199907554826
0.383000000000000174,-10.890773641165766961
0.384000000000000175,-10.835684601705407815
0.385000000000000175,-10.780386548479235387
0.386000000000000176,-10.724889448977410922
0.387000000000000177,-10.669201867287652519
0.388000000000000178,-10.613331058092924764
0.389000000000000179,-10.557283058470380510
0.390000000000000180,-10.501062777370870904
0.391000000000000181,-10.444674082672701587
0.392000000000000182,-10.388119885717381763
0.393000000000000183,-10.331402223248117522
0.394000000000000183,-10.274522336684800194
0.395000000000000184,-10.217480748680774383
0.396000000000000185,-10.160277336918200675
0.397000000000000186,-10.102911405109384901
0.398000000000000187,-10.045381751181507113
0.399000000000000188,-9.987686732631484432
0.400000000000000189,-9.929824329046603282
0.401000000000000190,-9.871792201794683308
0.402000000000000191,-9.813587750895182538
0.403000000000000191,-9.755208169089709003
0.404000000000000192,-9.696650493136992566
0.405000000000000193,-9.637911652363225556
0.406000000000000194,-9.578988514504377605
0.407000000000000195,-9.519877928882069185
0.408000000000000196,-9.460576766958940453
0.409000000000000197,-9.401081960323915965
0.410000000000000198,-9.341390536161208402
0.411000000000000199,-9.281499650260220946
0.412000000000000199,-9.221406617626549007
0.413000000000000200,-9.161108940756628627
0.414000000000000201,-9.100604335641012455
0.415000000000000202,-9.039890755562753455
0.416000000000000203,-8.978966412759392668
0.417000000000000204,-8.917829798017859133
0.418000000000000205,-8.856479698272895718
0.419000000000000206,-8.794915212280201899
0.420000000000000207,-8.733135764435960624
0.421000000000000207,-8.671141116814801819
0.422000000000000208,-8.608931379498095282
0.423000000000000209,-8.546507019264581118
0.424000000000000210,-8.483868866714811219
0.425000000000000211,-8.421018121900397446
0.426000000000000212,-8.357956358528658924
0.427000000000000213,-8.294685526812060061
0.428000000000000214,-8.231207955031354828
0.429000000000000214,-8.167526349879988601
0.430000000000000215,-8.103643795656312321
0.431000000000000216,-8.039563752369030425
0.432000000000000217,-7.975290052819735465
0.433000000000000218,-7.910826898725213496
0.434000000000000219,-7.846178855940651786
0.435000000000000220,-7.781350848843430867
0.436000000000000221,-7.716348153935489229
0.437000000000000222,-7.651176392720768327
0.438000000000000222,-7.585841523912601581
0.439000000000000223,-7.520349835024151552
0.440000000000000224,-7.454707933393396324
0.441000000000000225,-7.388922736692371984
0.442000000000000226,-7.323001462968856679
0.443000000000000227,-7.256951620266630876
0.444000000000000228,-7.190780995869102910
0.445000000000000229,-7.124497645209084240
0.446000000000000230,-7.058109880485892162
0.447000000000000230,-6.991626259029343871
0.448000000000000231,-6.925055571448399228
0.449000000000000232,-6.858406829600511401
0.450000000000000233,-6.791689254416384713
0.451000000000000234,-6.724912263612769614
0.452000000000000235,-6.658085459324833089
0.453000000000000236,-6.591218615687580495
0.454000000000000237,-6.524321666394756747
0.455000000000000238,-6.457404692261709656
0.456000000000000238,-6.390477908817592478
0.457000000000000239,-6.323551653950558737
0.458000000000000240,-6.256636375628498392
0.459000000000000241,-6.189742619716096961
0.460000000000000242,-6.122881017908204271
0.461000000000000243,-6.056062275797660099
0.462000000000000244,-5.989297161094977007
0.463000000000000245,-5.922596492015558489
0.464000000000000246,-5.855971125849512404
0.465000000000000246,-5.789431947727523564
0.466000000000000247,-5.722989859595389639
0.467000000000000248,-5.656655769408695633
0.468000000000000249,-5.590440580558182937
0.469000000000000250,-5.524355181535204551
0.470000000000000251,-5.458410435845927111
0.471000000000000252,-5.392617172181822127
0.472000000000000253,-5.326986174853413303
0.473000000000000254,-5.261528174493042442
0.474000000000000254,-5.196253839031999000
0.475000000000000255,-5.131173764956297845
0.476000000000000256,-5.066298468844879999
0.477000000000000257,-5.001638379193227735
0.478000000000000258,-4.937203828524681981
0.479000000000000259,-4.873005045791271250
0.480000000000000260,-4.809052149065153436
0.481000000000000261,-4.745355138521200722
0.482000000000000262,-4.681923889710862596
0.483000000000000262,-4.618768147126805168
0.484000000000000263,-4.555897518057383522
0.485000000000000264,-4.493321466729648606
0.486000000000000265,-4.431049308739035908
0.487000000000000266,-4.369090205763621171
0.488000000000000267,-4.307453160560347882
0.489000000000000268,-4.246147012240447438
0.490000000000000269,-4.185180431820727520
0.491000000000000270,-4.124561918047382925
0.492000000000000270,-4.064299793488450163
0.493000000000000271,-4.004402200890983643
0.494000000000000272,-3.944877099798703490
0.495000000000000273,-3.885732263425579536
0.496000000000000274,-3.826975275780883035
0.497000000000000275,-3.768613529040711452
0.498000000000000276,-3.710654221161138189
0.499000000000000277,-3.653104353727866460
0.500000000000000222,-3.595970730037062246
0.501000000000000334,-3.539259953402155823
0.502000000000000224,-3.482978425681122925
0.503000000000000336,-3.427132346018642917
0.504000000000000226,-3.371727709797764483
0.505000000000000338,-3.316770307795135153
0.506000000000000227,-3.262265725534503336
0.507000000000000339,-3.208219342832344445
0.508000000000000229,-3.154636333530286496
0.509000000000000341,-3.101521665408215167
0.510000000000000231,-3.048880100272725269
0.511000000000000343,-2.996716194214698259
0.512000000000000233,-2.945034298030753117
0.513000000000000345,-2.893838557802445699
0.514000000000000234,-2.843132915627982094
0.515000000000000346,-2.792921110500311332
0.516000000000000236,-2.743206679326525066
0.517000000000000348,-2.693992958082586320
0.518000000000000238,-2.645283083098246557
0.519000000000000350,-2.597079992466437837
0.520000000000000240,-2.549386427572046365
0.521000000000000352,-2.502204934734575836
0.522000000000000242,-2.455537866959647708
0.523000000000000353,-2.409387385794056424
0.524000000000000243,-2.363755463279478164
0.525000000000000355,-2.318643883999723876
0.526000000000000245,-2.274054247216835467
0.527000000000000357,-2.229987969090975408
0.528000000000000247,-2.186446284979752797
0.529000000000000359,-2.143430251812030729
0.530000000000000249,-2.100940750532012125
0.531000000000000361,-2.058978488608956603
0.532000000000000250,-2.017544002608437914
0.533000000000000362,-1.976637660820695697
0.534000000000000252,-1.936259665942213104
0.535000000000000364,-1.896410057806291460
0.536000000000000254,-1.857088716158941111
0.537000000000000366,-1.818295363476004622
0.538000000000000256,-1.780029567818158354
0.539000000000000368,-1.742290745719805356
0.540000000000000258,-1.705078165108764976
0.541000000000000369,-1.668390948252946204
0.542000000000000259,-1.632228074731122636
0.543000000000000371,-1.596588384424250107
0.544000000000000261,-1.561470580524505269
0.545000000000000373,-1.526873232558865645
0.546000000000000263,-1.492794779424492901
0.547000000000000375,-1.459233532432896219
0.548000000000000265,-1.426187678360500977
0.549000000000000377,-1.393655282502628490
0.550000000000000266,-1.361634291728725632
0.551000000000000378,-1.330122537536156280
0.552000000000000268,-1.299117739100408730
0.553000000000000380,-1.268617506319335675
0.554000000000000270,-1.238619342849421434
0.555000000000000382,-1.209120649131835590
0.556000000000000272,-1.180118725406510416
0.557000000000000384,-1.151610774712093832
0.558000000000000274,-1.123593905870240217
0.559000000000000385,-1.096065136452234912
0.560000000000000275,-1.069021395726552193
0.561000000000000387,-1.042459527585568591
0.562000000000000277,-1.016376293450064860
0.563000000000000389,-0.990768375150021585
0.564000000000000279,-0.965632377780410556
0.565000000000000391,-0.940964832530647888
0.566000000000000281,-0.916762199486540696
0.567000000000000393,-0.893020870403542721
0.568000000000000282,-0.869737171450328583
0.569000000000000394,-0.846907365921516275
0.570000000000000284,-0.824527656918780827
0.571000000000000396,-0.802594189999287111
0.572000000000000286,-0.781103055790789869
0.573000000000000398,-0.760050292572425845
0.574000000000000288,-0.739431888820679228
0.575000000000000400,-0.719243785719726469
0.576000000000000290,-0.699481879635606818
0.577000000000000401,-0.680142024553634372
0.578000000000000291,-0.661220034478578800
0.579000000000000403,-0.642711685797090260
0.580000000000000293,-0.624612719602045563
0.581000000000000405,-0.606918843978331068
0.582000000000000295,-0.589625736249868693
0.583000000000000407,-0.572729045187459151
0.584000000000000297,-0.556224393177323306
0.585000000000000409,-0.540107378350051071
0.586000000000000298,-0.524373576669844965
0.587000000000000410,-0.509018543983878913
0.588000000000000300,-0.494037818031738962
0.589000000000000412,-0.479426920414797841
0.590000000000000302,-0.465181358525578958
0.591000000000000414,-0.451296627437070441
0.592000000000000304,-0.437768211752009306
0.593000000000000416,-0.424591587412200933
0.594000000000000306,-0.411762223468004340
0.595000000000000417,-0.399275583808025469
0.596000000000000307,-0.387127128849193869
0.597000000000000419,-0.375312317187389888
0.598000000000000309,-0.363826607208815489
0.599000000000000421,-0.352665458662239251
0.600000000000000311,-0.341824334192470602
0.601000000000000423,-0.331298700835177207
0.602000000000000313,-0.321084031473435338
0.603000000000000425,-0.311175806256147269
0.604000000000000314,-0.301569513978821646
0.605000000000000426,-0.292260653426812733
0.606000000000000316,-0.283244734681549371
0.607000000000000428,-0.274517280389935503
0.608000000000000318,-0.266073826997416052
0.609000000000000430,-0.257909925944962981
0.610000000000000320,-0.250021144830459119
0.611000000000000432,-0.242403068534799537
0.612000000000000322,-0.235051300313167871
0.613000000000000433,-0.227961462851858837
0.614000000000000323,-0.221129199291109885
0.615000000000000435,-0.214550174214334616
0.616000000000000325,-0.208220074604217154
0.617000000000000437,-0.202134610766105116
0.618000000000000327,-0.196289517219163601
0.619000000000000439,-0.190680553555711924
0.620000000000000329,-0.185303505269253793
0.621000000000000441,-0.180154184551631902
0.622000000000000330,-0.175228431059786111
0.623000000000000442,-0.170522112652591429
0.624000000000000332,-0.166031126098247217
0.625000000000000444,-0.161751397752711579
0.626000000000000334,-0.157678884209633469
0.627000000000000446,-0.153809572922301852
0.628000000000000336,-0.150139482798063384
0.629000000000000448,-0.146664664765707886
0.630000000000000338,-0.143381202316321843
0.631000000000000449,-0.140285212018062655
0.632000000000000339,-0.137372844005365258
0.633000000000000451,-0.134640282443058423
0.634000000000000341,-0.132083745965865529
0.635000000000000453,-0.129699488093804272
0.636000000000000343,-0.127483797623895778
0.637000000000000455,-0.125432998998768530
0.638000000000000345,-0.123543452652530888
0.639000000000000457,-0.121811555334447208
0.640000000000000346,-0.120233740410874729
0.641000000000000458,-0.118806478145933966
0.642000000000000348,-0.117526275961361962
0.643000000000000460,-0.116389678676038250
0.644000000000000350,-0.115393268725625164
0.645000000000000462,-0.114533666362787695
0.646000000000000352,-0.113807529838433341
0.647000000000000464,-0.113211555564435629
0.648000000000000353,-0.112742478258280515
0.649000000000000465,-0.112397071070066620
0.650000000000000355,-0.112172145692313235
0.651000000000000467,-0.112064552452983787
0.652000000000000357,-0.112071180392177699
0.653000000000000469,-0.112188957322891553
0.654000000000000359,-0.112414849876283876
0.655000000000000471,-0.112745863531828056
0.656000000000000361,-0.113179042632800361
0.657000000000000473,-0.113711470387471897
0.658000000000000362,-0.114340268856418653
0.659000000000000474,-0.115062598926325352
0.660000000000000364,-0.115875660270698913
0.661000000000000476,-0.116776691297839227
