# CNT15-OH-4_METSCA-AC
# h[nm],U(h)[kJ/mol]
0.149999999999999994,136.815245568219495453
0.150999999999999995,135.219418623355693398
0.151999999999999996,133.381788053402772221
0.152999999999999997,131.527963594639032863
0.153999999999999998,129.723998024380193783
0.154999999999999999,127.969377468058269187
0.156000000000000000,126.243624554808121729
0.157000000000000001,124.526962458063920280
0.158000000000000002,122.807317407065355042
0.159000000000000002,121.080786384089975627
0.160000000000000003,119.349516521980945072
0.161000000000000004,117.619031186251007171
0.162000000000000005,115.895929395669398332
0.163000000000000006,114.186274858553517220
0.164000000000000007,112.494680947694632778
0.165000000000000008,110.823962647551496730
0.166000000000000009,109.175187449461105871
0.167000000000000010,107.547966719421879134
0.168000000000000010,105.940859340486468909
0.169000000000000011,104.351794969963890480
0.170000000000000012,102.778457184430209281
0.171000000000000013,101.218593743699557308
0.172000000000000014,99.670241347067786819
0.173000000000000015,98.131866048985088469
0.174000000000000016,96.602428992904336269
0.175000000000000017,95.081391517802600788
0.176000000000000018,93.568675136301891371
0.177000000000000018,92.064591355952799745
0.178000000000000019,90.569754597114666694
0.179000000000000020,89.084989139049724827
0.180000000000000021,87.611238516823874534
0.181000000000000022,86.149483371592481262
0.182000000000000023,84.700671592820071965
0.183000000000000024,83.265662768737527699
0.184000000000000025,81.845187509352584243
0.185000000000000026,80.439821114883571340
0.186000000000000026,79.049970298447561845
0.187000000000000027,77.675871189574436926
0.188000000000000028,76.317596594260535880
0.189000000000000029,74.975070417896560571
0.190000000000000030,73.648087223317673988
0.191000000000000031,72.336335056792080422
0.192000000000000032,71.039419895721422904
0.193000000000000033,69.756890325355101368
0.194000000000000034,68.488261316228744136
0.195000000000000034,67.233036233117502434
0.196000000000000035,65.990726448596490172
0.197000000000000036,64.760868152336144021
0.198000000000000037,63.543036136744582620
0.199000000000000038,62.336854498716220974
0.200000000000000039,61.142004326161512040
0.201000000000000040,59.958228538117381845
0.202000000000000041,58.785334120939012337
0.203000000000000042,57.623192053260922307
0.204000000000000042,56.471735242278519706
0.205000000000000043,55.330954806692510317
0.206000000000000044,54.200895040534263103
0.207000000000000045,53.081647380011226289
0.208000000000000046,51.973343675166702837
0.209000000000000047,50.876149041915006421
0.210000000000000048,49.790254539953679114
0.211000000000000049,48.715869889898108624
0.212000000000000050,47.653216410157924088
0.213000000000000050,46.602520321720987795
0.214000000000000051,45.564006538005500602
0.215000000000000052,44.537893027939531976
0.216000000000000053,43.524385813882609852
0.217000000000000054,42.523674642201257257
0.218000000000000055,41.535929343396460922
0.219000000000000056,40.561296880691713795
0.220000000000000057,39.599899070864246653
0.221000000000000058,38.651830948725226733
0.222000000000000058,37.717159736842056361
0.223000000000000059,36.795924374650368804
0.224000000000000060,35.888135555788750253
0.225000000000000061,34.993776219069673061
0.226000000000000062,34.112802436732309275
0.227000000000000063,33.245144643272610097
0.228000000000000064,32.390709148983923171
0.229000000000000065,31.549379884156355303
0.230000000000000066,30.721020322478892695
0.231000000000000066,29.905475535383470032
0.232000000000000067,29.102574332708222471
0.233000000000000068,28.312131448993351768
0.234000000000000069,27.533949738835797660
0.235000000000000070,26.767822348912989838
0.236000000000000071,26.013534838452159192
0.237000000000000072,25.270867223995818307
0.238000000000000073,24.539595928238526312
0.239000000000000073,23.819495616439045449
0.240000000000000074,23.110340907405813482
0.241000000000000075,22.411907949295102327
0.242000000000000076,21.723975853427123894
0.243000000000000077,21.046327982010470947
0.244000000000000078,20.378753088067451671
0.245000000000000079,19.721046307972493139
0.246000000000000080,19.073010008864276443
0.247000000000000081,18.434454494774655586
0.248000000000000081,17.805198576652706777
0.249000000000000082,17.185070012561688202
0.250000000000000111,16.573905825208704812
0.251000000000000112,15.971552504648276027
0.252000000000000113,15.377866104499403832
0.253000000000000114,14.792712240351324482
0.254000000000000115,14.215965999219051241
0.255000000000000115,13.647511768968598744
0.256000000000000116,13.087242996575707110
0.257000000000000117,12.535061883928671378
0.258000000000000118,11.990879029650795218
0.259000000000000119,11.454613025112795555
0.260000000000000120,10.926190012444182642
0.261000000000000121,10.405543211947806626
0.262000000000000122,9.892612425881132765
0.263000000000000123,9.387343525104405728
0.264000000000000123,8.889687924614838366
0.265000000000000124,8.399602053497565279
0.266000000000000125,7.917046824333020538
0.267000000000000126,7.441987106613543901
0.268000000000000127,6.974391208242805007
0.269000000000000128,6.514230368726538600
0.270000000000000129,6.061478267212869753
0.271000000000000130,5.616110548109166878
0.272000000000000131,5.178104366592988228
0.273000000000000131,4.747437955946670840
0.274000000000000132,4.324090218282039544
0.275000000000000133,3.908040339882325132
0.276000000000000134,3.499267432074293360
0.277000000000000135,3.097750198255327714
0.278000000000000136,2.703466627435149761
0.279000000000000137,2.316393714412731786
0.280000000000000138,1.936507206493407240
0.281000000000000139,1.563781376457697103
0.282000000000000139,1.198188821323575626
0.283000000000000140,0.839700286293787457
0.284000000000000141,0.488284513150914534
0.285000000000000142,0.143908112252057657
0.286000000000000143,-0.193464542817628871
0.287000000000000144,-0.523871398949364742
0.288000000000000145,-0.847352786651488388
0.289000000000000146,-1.163951463750637405
0.290000000000000147,-1.473712640812399055
0.291000000000000147,-1.776683989461559365
0.292000000000000148,-2.072915634794228801
0.293000000000000149,-2.362460133075015456
0.294000000000000150,-2.645372435906254704
0.295000000000000151,-2.921709842041321892
0.296000000000000152,-3.191531937993220769
0.297000000000000153,-3.454900528562268924
0.298000000000000154,-3.711879558375136945
0.299000000000000155,-3.962535025490955043
0.300000000000000155,-4.206934888090602342
0.301000000000000156,-4.445148965222462500
0.302000000000000157,-4.677248832533457801
0.303000000000000158,-4.903307713867005369
0.304000000000000159,-5.123400369562135737
0.305000000000000160,-5.337602982239110005
0.306000000000000161,-5.545993040808069097
0.307000000000000162,-5.748649223388214935
0.308000000000000163,-5.945651279776376086
0.309000000000000163,-6.137079914055648899
0.310000000000000164,-6.323016667887946696
0.311000000000000165,-6.503543804987802268
0.312000000000000166,-6.678744197230225055
0.313000000000000167,-6.848701212801867833
0.314000000000000168,-7.013498606762804677
0.315000000000000169,-7.173220414346170415
0.316000000000000170,-7.327950847284337321
0.317000000000000171,-7.477774193413513792
0.318000000000000171,-7.622774719773858010
0.319000000000000172,-7.763036579389361869
0.320000000000000173,-7.898643721880328705
0.321000000000000174,-8.029679808032195609
0.322000000000000175,-8.156228128417158274
0.323000000000000176,-8.278371526139308045
0.324000000000000177,-8.396192323750494069
0.325000000000000178,-8.509772254361763544
0.326000000000000179,-8.619192396955693170
0.327000000000000179,-8.724533115885488854
0.328000000000000180,-8.825874004530479766
0.329000000000000181,-8.923293833061945790
0.330000000000000182,-9.016870500259152266
0.331000000000000183,-9.106680989303459484
0.332000000000000184,-9.192801327466707306
0.333000000000000185,-9.275306549600642825
0.334000000000000186,-9.354270665325380207
0.335000000000000187,-9.429766629807440736
0.336000000000000187,-9.501866318011781942
0.337000000000000188,-9.570640502306384079
0.338000000000000189,-9.636158833294203419
0.339000000000000190,-9.698489823743456029
0.340000000000000191,-9.757700835484460100
0.341000000000000192,-9.813858069139717699
0.342000000000000193,-9.867026556552408678
0.343000000000000194,-9.917270155778250995
0.344000000000000195,-9.964651548505262468
0.345000000000000195,-10.009232239767380079
0.346000000000000196,-10.051072559818013730
0.347000000000000197,-10.090231668032092927
0.348000000000000198,-10.126767558706481154
0.349000000000000199,-10.160737068631263469
0.350000000000000200,-10.192195886307001018
0.351000000000000201,-10.221198562685927413
0.352000000000000202,-10.247798523318193631
0.353000000000000203,-10.272048081787703566
0.354000000000000203,-10.293998454325722136
0.355000000000000204,-10.313699775493775590
0.356000000000000205,-10.331201114831591426
0.357000000000000206,-10.346550494369651574
0.358000000000000207,-10.359794906909504775
0.359000000000000208,-10.370980334979654103
0.360000000000000209,-10.380151770378436282
0.361000000000000210,-10.387353234219450115
0.362000000000000210,-10.392627797399390133
0.363000000000000211,-10.396017601411751130
0.364000000000000212,-10.397563879434468248
0.365000000000000213,-10.397306977622799096
0.366000000000000214,-10.395286376543385387
0.367000000000000215,-10.391540712688584591
0.368000000000000216,-10.386107800014531932
0.369000000000000217,-10.379024651449489269
0.370000000000000218,-10.370327500323167413
0.371000000000000218,-10.360051821670626992
0.372000000000000219,-10.348232353368231884
0.373000000000000220,-10.334903117062093969
0.374000000000000221,-10.320097438852773308
0.375000000000000222,-10.303847969702824017
0.376000000000000223,-10.286186705537065933
0.377000000000000224,-10.267145007007993485
0.378000000000000225,-10.246753618901491834
0.379000000000000226,-10.225042689160678933
0.380000000000000226,-10.202041787508290938
0.381000000000000227,-10.177779923649952210
0.382000000000000228,-10.152285565043523974
0.383000000000000229,-10.125586654221367056
0.384000000000000230,-10.097710625654503502
0.385000000000000231,-10.068684422149894786
0.386000000000000232,-10.038534510773228448
0.387000000000000233,-10.007286898292040433
0.388000000000000234,-9.974967146134893881
0.389000000000000234,-9.941600384864464957
0.390000000000000235,-9.907211328163317177
0.391000000000000236,-9.871824286332724796
0.392000000000000237,-9.835463179306000114
0.393000000000000238,-9.798151549179014097
0.394000000000000239,-9.759912572261500330
0.395000000000000240,-9.720769070653886956
0.396000000000000241,-9.680743523355127778
0.397000000000000242,-9.639858076907845685
0.398000000000000242,-9.598134555588018202
0.399000000000000243,-9.555594471146772406
0.400000000000000244,-9.512259032112785562
0.401000000000000245,-9.468149152664199875
0.402000000000000246,-9.423285461079347058
0.403000000000000247,-9.377688307776187671
0.404000000000000248,-9.331377772950624205
0.405000000000000249,-9.284373673824230622
0.406000000000000250,-9.236695571512097303
0.407000000000000250,-9.188362777521925651
0.408000000000000251,-9.139394359895476327
0.409000000000000252,-9.089809149003736266
0.410000000000000253,-9.039625743007302816
0.411000000000000254,-8.988862512993401666
0.412000000000000255,-8.937537607801205652
0.413000000000000256,-8.885668958546958152
0.414000000000000257,-8.833274282860404725
0.415000000000000258,-8.780371088844139749
0.416000000000000258,-8.726976678767153217
0.417000000000000259,-8.673108152503997914
0.418000000000000260,-8.618782410730734256
0.419000000000000261,-8.564016157888739045
0.420000000000000262,-8.508825904927235229
0.421000000000000263,-8.453227971835442389
0.422000000000000264,-8.397238489974682807
0.423000000000000265,-8.340873404220953802
0.424000000000000266,-8.284148474928167971
0.425000000000000266,-8.227079279721774441
0.426000000000000267,-8.169681215132730046
0.427000000000000268,-8.111969498081100127
0.428000000000000269,-8.053959167218561532
0.429000000000000270,-7.995665084138908085
0.430000000000000271,-7.937101934465052189
0.431000000000000272,-7.878284228821219592
0.432000000000000273,-7.819226303698393110
0.433000000000000274,-7.759942322221057509
0.434000000000000274,-7.700446274822797754
0.435000000000000275,-7.640751979838327657
0.436000000000000276,-7.580873084019027708
0.437000000000000277,-7.520823062978808871
0.438000000000000278,-7.460615221577081790
0.439000000000000279,-7.400262694245118844
0.440000000000000280,-7.339778445261903705
0.441000000000000281,-7.279175268985348168
0.442000000000000282,-7.218465790044561459
0.443000000000000282,-7.157662463498320804
0.444000000000000283,-7.096777574965100754
0.445000000000000284,-7.035823240729369488
0.446000000000000285,-6.974811407828734211
0.447000000000000286,-6.913753854126606591
0.448000000000000287,-6.852662188374177177
0.449000000000000288,-6.791547850266008268
0.450000000000000289,-6.730422110492686905
0.451000000000000290,-6.669296070794231923
0.452000000000000290,-6.608180664017543116
0.453000000000000291,-6.547086654180870546
0.454000000000000292,-6.486024636548447297
0.455000000000000293,-6.425005037717733458
0.456000000000000294,-6.364038115722042477
0.457000000000000295,-6.303133960150804072
0.458000000000000296,-6.242302492289589999
0.459000000000000297,-6.181553465282074278
0.460000000000000298,-6.120896464315601193
0.461000000000000298,-6.060340906832216490
0.462000000000000299,-5.999896042766615700
0.463000000000000300,-5.939570954812392500
0.464000000000000301,-5.879374558717932686
0.465000000000000302,-5.819315603613048893
0.466000000000000303,-5.759402672367264664
0.467000000000000304,-5.699644181980756841
0.468000000000000305,-5.640048384008624183
0.469000000000000306,-5.580623365019119930
0.470000000000000306,-5.521377047086502898
0.471000000000000307,-5.462317188318685623
0.472000000000000308,-5.403451383420315501
0.473000000000000309,-5.344787064291283585
0.474000000000000310,-5.286331500660953253
0.475000000000000311,-5.228091800758032370
0.476000000000000312,-5.170074912016323410
0.477000000000000313,-5.112287621815919891
0.478000000000000314,-5.054736558259952162
0.479000000000000314,-4.997428190986574315
0.480000000000000315,-4.940368832015799683
0.481000000000000316,-4.883564636631017031
0.482000000000000317,-4.827021604294573720
0.483000000000000318,-4.770745579597125641
0.484000000000000319,-4.714742253240128633
0.485000000000000320,-4.659017163051011323
0.486000000000000321,-4.603575695030329484
0.487000000000000322,-4.548423084430361030
0.488000000000000322,-4.493564416864328948
0.489000000000000323,-4.439004629445749472
0.490000000000000324,-4.384748511956972905
0.491000000000000325,-4.330800708046257164
0.492000000000000326,-4.277165716452514310
0.493000000000000327,-4.223847892257029280
0.494000000000000328,-4.170851448161171149
0.495000000000000329,-4.118180455789389072
0.496000000000000330,-4.065838847016497226
0.497000000000000330,-4.013830415318500044
0.498000000000000331,-3.962158817145888801
0.499000000000000332,-3.910827573318773176
0.500000000000000333,-3.859840070442670079
0.501000000000000334,-3.809199562344178780
0.502000000000000335,-3.758909171525618653
0.503000000000000336,-3.708971890637700941
0.504000000000000337,-3.659390583969263311
0.505000000000000338,-3.610167988953231433
0.506000000000000338,-3.561306717687831913
0.507000000000000339,-3.512809258472147977
0.508000000000000340,-3.464677977355090199
0.509000000000000341,-3.416915119696990466
0.510000000000000342,-3.369522811742724944
0.511000000000000343,-3.322503062205663049
0.512000000000000344,-3.275857763861409921
0.513000000000000345,-3.229588695150581223
0.514000000000000346,-3.183697521789699447
0.515000000000000346,-3.138185798389339087
0.516000000000000347,-3.093054970078681354
0.517000000000000348,-3.048306374135760777
0.518000000000000349,-3.003941241622357428
0.519000000000000350,-2.959960699022997410
0.520000000000000351,-2.916365769887040660
0.521000000000000352,-2.873157376473271629
0.522000000000000353,-2.830336341396099353
0.523000000000000353,-2.787903389272634591
0.524000000000000354,-2.745859148370051628
0.525000000000000355,-2.704204152252306592
0.526000000000000356,-2.662938841425682490
0.527000000000000357,-2.622063564982455297
0.528000000000000358,-2.581578582241864428
0.529000000000000359,-2.541484064388018993
0.530000000000000360,-2.501780096103809026
0.531000000000000361,-2.462466677200430443
0.532000000000000361,-2.423543724241792319
0.533000000000000362,-2.385011072163312207
0.534000000000000363,-2.346868475884465788
0.535000000000000364,-2.309115611914592581
0.536000000000000365,-2.271752079951403935
0.537000000000000366,-2.234777404471707474
0.538000000000000367,-2.198191036313764890
0.539000000000000368,-2.161992354250988679
0.540000000000000369,-2.126180666556250820
0.541000000000000369,-2.090755212556646203
0.542000000000000370,-2.055715164178027798
0.543000000000000371,-2.021059627479063092
0.544000000000000372,-1.986787644174358380
0.545000000000000373,-1.952898193146279882
0.546000000000000374,-1.919390191945061996
0.547000000000000375,-1.886262498276928934
0.548000000000000376,-1.853513911479852894
0.549000000000000377,-1.821143173986639940
0.550000000000000377,-1.789148972774999180
0.551000000000000378,-1.757529940804383628
0.552000000000000379,-1.726284658439271258
0.553000000000000380,-1.695411654858642425
0.554000000000000381,-1.664909409451380329
0.555000000000000382,-1.634776353197461063
0.556000000000000383,-1.605010870034535797
0.557000000000000384,-1.575611298209918854
0.558000000000000385,-1.546575931617577560
0.559000000000000385,-1.517903021120110330
0.560000000000000386,-1.489590775855451854
0.561000000000000387,-1.461637364528178384
0.562000000000000388,-1.434040916685273448
0.563000000000000389,-1.406799523976222543
0.564000000000000390,-1.379911241397311805
0.565000000000000391,-1.353374088520023166
0.566000000000000392,-1.327186050703418330
0.567000000000000393,-1.301345080290484457
0.568000000000000393,-1.275849097788257946
0.569000000000000394,-1.250695993031742059
0.570000000000000395,-1.225883626331574217
0.571000000000000396,-1.201409829605292856
0.572000000000000397,-1.177272407492318873
0.573000000000000398,-1.153469138452451581
0.574000000000000399,-1.129997775848042396
0.575000000000000400,-1.106856049009649734
0.576000000000000401,-1.084041664285311457
0.577000000000000401,-1.061552306073415330
0.578000000000000402,-1.039385637839100651
0.579000000000000403,-1.017539303114282534
0.580000000000000404,-0.996010926481361025
0.581000000000000405,-0.974798114540527449
0.582000000000000406,-0.953898456860841515
0.583000000000000407,-0.933309526915029108
0.584000000000000408,-0.913028882998118130
0.585000000000000409,-0.893054069129936012
0.586000000000000409,-0.873382615941549645
0.587000000000000410,-0.854012041545729517
0.588000000000000411,-0.834939852391477499
0.589000000000000412,-0.816163544102768923
0.590000000000000413,-0.797680602301505615
0.591000000000000414,-0.779488503414851430
0.592000000000000415,-0.761584715467024664
0.593000000000000416,-0.743966698855609510
0.594000000000000417,-0.726631907112523123
0.595000000000000417,-0.709577787649823710
0.596000000000000418,-0.692801782490256923
0.597000000000000419,-0.676301328982947147
0.598000000000000420,-0.660073860504085785
0.599000000000000421,-0.644116807142929404
0.600000000000000422,-0.628427596373129616
0.601000000000000423,-0.613003653709569551
0.602000000000000424,-0.597842403350824392
0.603000000000000425,-0.582941268807385393
0.604000000000000425,-0.568297673515778201
0.605000000000000426,-0.553909041438709560
0.606000000000000427,-0.539772797651455916
0.607000000000000428,-0.525886368914441960
0.608000000000000429,-0.512247184232478281
0.609000000000000430,-0.498852675400410728
0.610000000000000431,-0.485700277535711211
0.611000000000000432,-0.472787429597884501
0.612000000000000433,-0.460111574894948361
