# CNT15-OH-4_GLY-JS
# h[nm],U(h)[kJ/mol]
0.149999999999999994,117.624504613097087713
0.150999999999999995,115.428140724719739296
0.151999999999999996,113.813148665748229860
0.152999999999999997,112.315867122410580237
0.153999999999999998,110.765387211901412456
0.154999999999999999,109.130647710623520652
0.156000000000000000,107.436558041710583211
0.157000000000000001,105.721328985520315769
0.158000000000000002,104.017451594632845513
0.159000000000000002,102.345494966513342661
0.160000000000000003,100.714243801644187215
0.161000000000000004,99.123458153470764387
0.162000000000000005,97.567250829221990216
0.163000000000000006,96.037108771006202801
0.164000000000000007,94.524179398669986085
0.165000000000000008,93.020764723816526498
0.166000000000000009,91.521122166666145858
0.167000000000000010,90.021730511996139512
0.168000000000000010,88.521185972115546292
0.169000000000000011,87.019873712987390491
0.170000000000000012,85.519530325220983968
0.171000000000000013,84.022781471287160571
0.172000000000000014,82.532710841118969824
0.173000000000000015,81.052493500485482514
0.174000000000000016,79.585109113468689657
0.175000000000000017,78.133137956700139171
0.176000000000000018,76.698634349771566576
0.177000000000000018,75.283067227074695893
0.178000000000000019,73.887315229020501306
0.179000000000000020,72.511703156690700212
0.180000000000000021,71.156067305153499092
0.181000000000000022,69.819838590047481830
0.182000000000000023,68.502134152426350511
0.183000000000000024,67.201850013157709895
0.184000000000000025,65.917749178215515826
0.185000000000000026,64.648541262547453812
0.186000000000000026,63.392951143967039229
0.187000000000000027,62.149775355902121987
0.188000000000000028,60.917925879112850396
0.189000000000000029,59.696461713543556016
0.190000000000000030,58.484609127285807517
0.191000000000000031,57.281771819624019315
0.192000000000000032,56.087532429856523208
0.193000000000000033,54.901646902493304481
0.194000000000000034,53.724033209550668744
0.195000000000000034,52.554755855811286835
0.196000000000000035,51.394007473416138509
0.197000000000000036,50.242088664811646481
0.198000000000000037,49.099387091381970549
0.199000000000000038,47.966356639534595274
0.200000000000000039,46.843497334426139389
0.201000000000000040,45.731336519505319416
0.202000000000000041,44.630411681342714303
0.203000000000000042,43.541255176030851715
0.204000000000000042,42.464381006796536155
0.205000000000000043,41.400273712493870448
0.206000000000000044,40.349379352786577613
0.207000000000000045,39.312098517065692249
0.208000000000000046,38.288781239159291658
0.209000000000000047,37.279723667172774526
0.210000000000000048,36.285166315781957280
0.211000000000000049,35.305293715414016731
0.212000000000000050,34.340235267480878179
0.213000000000000050,33.390067115765013739
0.214000000000000051,32.454814849898909301
0.215000000000000052,31.534456866475721881
0.216000000000000053,30.628928225658931694
0.217000000000000054,29.738124855348353037
0.218000000000000055,28.861907970266713619
0.219000000000000056,28.000108589142154614
0.220000000000000057,27.152532048971988132
0.221000000000000058,26.318962430777578021
0.222000000000000058,25.499166825982335638
0.223000000000000059,24.692899386355566804
0.224000000000000060,23.899905113199533702
0.225000000000000061,23.119923353025143342
0.226000000000000062,22.352690977312185794
0.227000000000000063,21.597945233073776450
0.228000000000000064,20.855426258863776212
0.229000000000000065,20.124879267622269197
0.230000000000000066,19.406056403415135492
0.231000000000000066,18.698718283759220071
0.232000000000000067,18.002635242922359282
0.233000000000000068,17.317588294432162854
0.234000000000000069,16.643369833110419620
0.235000000000000070,15.979784098359093747
0.236000000000000071,15.326647421246487824
0.237000000000000072,14.683788278258077753
0.238000000000000073,14.051047174466384959
0.239000000000000073,13.428276378408730451
0.240000000000000074,12.815339530203706531
0.241000000000000075,12.212111143452290207
0.242000000000000076,11.618476020305958940
0.243000000000000077,11.034328597791223103
0.244000000000000078,10.459572242100460215
0.245000000000000079,9.894118506126037715
0.246000000000000080,9.337886364062629951
0.247000000000000081,8.790801435453154511
0.248000000000000081,8.252795209632594720
0.249000000000000082,7.723804280145841972
0.250000000000000111,7.203769597395158542
0.251000000000000112,6.692635746521605533
0.252000000000000113,6.190350256348168934
0.253000000000000114,5.696862944120555383
0.254000000000000115,5.212125299771201092
0.255000000000000115,4.736089912511536326
0.256000000000000116,4.268709941721469114
0.257000000000000117,3.809938633355065996
0.258000000000000118,3.359728882415011331
0.259000000000000119,2.918032841460809212
0.260000000000000120,2.484801574604764696
0.261000000000000121,2.059984756011189688
0.262000000000000122,1.643530411542065028
0.263000000000000123,1.235384701883886827
0.264000000000000123,0.835491745238533867
0.265000000000000124,0.443793477462840091
0.266000000000000125,0.060229547390725571
0.267000000000000126,-0.315262755035382369
0.268000000000000127,-0.682748540266337689
0.269000000000000128,-1.042295332757697146
0.270000000000000129,-1.393973059171873308
0.271000000000000130,-1.737854013630713679
0.272000000000000131,-2.074012802433505165
0.273000000000000131,-2.402526270592703739
0.274000000000000132,-2.723473412460191589
0.275000000000000133,-3.036935268625076567
0.276000000000000134,-3.342994811161692503
0.277000000000000135,-3.641736819195369179
0.278000000000000136,-3.933247746638107056
0.279000000000000137,-4.217615583825602421
0.280000000000000138,-4.494929714664377407
0.281000000000000139,-4.765280770775087049
0.282000000000000139,-5.028760483994733299
0.283000000000000140,-5.285461538479816035
0.284000000000000141,-5.535477423533589736
0.285000000000000142,-5.778902288165628676
0.286000000000000143,-6.015830798280629388
0.287000000000000144,-6.246357997286522412
0.288000000000000145,-6.470579170810978553
0.289000000000000146,-6.688589716117935957
0.290000000000000147,-6.900485016725970588
0.291000000000000147,-7.106360322644162508
0.292000000000000148,-7.306310636562317384
0.293000000000000149,-7.500430606257820543
0.294000000000000150,-7.688814423413903754
0.295000000000000151,-7.871555728981059374
0.296000000000000152,-8.048747525156501936
0.297000000000000153,-8.220482094004566420
0.298000000000000154,-8.386850922694396360
0.299000000000000155,-8.547944635289351112
0.300000000000000155,-8.703852930985556569
0.301000000000000156,-8.854664528664198286
0.302000000000000157,-9.000467117593952793
0.303000000000000158,-9.141347314095204624
0.304000000000000159,-9.277390623957119331
0.305000000000000160,-9.408681410381042554
0.306000000000000161,-9.535302867209907163
0.307000000000000162,-9.657336997191936945
0.308000000000000163,-9.774864595018494029
0.309000000000000163,-9.887965234870124576
0.310000000000000164,-9.996717262201082477
0.311000000000000165,-10.101197789490987233
0.312000000000000166,-10.201482695692613234
0.313000000000000167,-10.297646629106592897
0.314000000000000168,-10.389763013417267601
0.315000000000000169,-10.477904056628437601
0.316000000000000170,-10.562140762643924319
0.317000000000000171,-10.642542945244116481
0.318000000000000171,-10.719179244217672320
0.319000000000000172,-10.792117143415859815
0.320000000000000173,-10.861422990505666064
0.321000000000000174,-10.927162018207368988
0.322000000000000175,-10.989398366812000774
0.323000000000000176,-11.048195107784028579
0.324000000000000177,-11.103614268264902165
0.325000000000000178,-11.155716856303101281
0.326000000000000179,-11.204562886647146058
0.327000000000000179,-11.250211406947764559
0.328000000000000180,-11.292720524225913437
0.329000000000000181,-11.332147431473520882
0.330000000000000182,-11.368548434263200164
0.331000000000000183,-11.401978977253575565
0.332000000000000184,-11.432493670485504467
0.333000000000000185,-11.460146315374249326
0.334000000000000186,-11.484989930311035877
0.335000000000000187,-11.507076775796196699
0.336000000000000187,-11.526458379034229651
0.337000000000000188,-11.543185557928739016
0.338000000000000189,-11.557308444422940141
0.339000000000000190,-11.568876507138474707
0.340000000000000191,-11.577938573271714162
0.341000000000000192,-11.584542849713585611
0.342000000000000193,-11.588736943364537524
0.343000000000000194,-11.590567880622241859
0.344000000000000195,-11.590082126024475073
0.345000000000000195,-11.587325600035187634
0.346000000000000196,-11.582343695965693797
0.347000000000000197,-11.575181296027629685
0.348000000000000198,-11.565882786518123737
0.349000000000000199,-11.554492072141083980
0.350000000000000200,-11.541052589472156953
0.351000000000000201,-11.525607319577549248
0.352000000000000202,-11.508198799799901124
0.353000000000000203,-11.488869134726742871
0.354000000000000203,-11.467660006359466252
0.355000000000000204,-11.444612683502249695
0.356000000000000205,-11.419768030392685176
0.357000000000000206,-11.393166514597062644
0.358000000000000207,-11.364848214194385179
0.359000000000000208,-11.334852824274756600
0.360000000000000209,-11.303219662778309029
0.361000000000000210,-11.269987675701782948
0.362000000000000210,-11.235195441700351893
0.363000000000000211,-11.198881176112788438
0.364000000000000212,-11.161082734438418029
0.365000000000000213,-11.121837615294214885
0.366000000000000214,-11.081182962880822274
0.367000000000000215,-11.039155568985801636
0.368000000000000216,-10.995791874552658385
0.369000000000000217,-10.951127970843502979
0.370000000000000218,-10.905199600223330236
0.371000000000000218,-10.858042156592967231
0.372000000000000219,-10.809690685497713503
0.373000000000000220,-10.760179883937867729
0.374000000000000221,-10.709544099906862513
0.375000000000000222,-10.657817331681894046
0.376000000000000223,-10.605033226891558584
0.377000000000000224,-10.551225081383989846
0.378000000000000225,-10.496425837918335944
0.379000000000000226,-10.440668084701608009
0.380000000000000226,-10.383984053792316260
0.381000000000000227,-10.326405619391026747
0.382000000000000228,-10.267964296037742855
0.383000000000000229,-10.208691236734670937
0.384000000000000230,-10.148617231012311279
0.385000000000000231,-10.087772702956025128
0.386000000000000232,-10.026187709209168020
0.387000000000000233,-9.963891936968307661
0.388000000000000234,-9.900914701984865118
0.389000000000000234,-9.837284946587153911
0.390000000000000235,-9.773031237735466448
0.391000000000000236,-9.708181765122512630
0.392000000000000237,-9.642764339330344825
0.393000000000000238,-9.576806390054496632
0.394000000000000239,-9.510334964404922431
0.395000000000000240,-9.443376725292955243
0.396000000000000241,-9.375957949912580247
0.397000000000000242,-9.308104528323545068
0.398000000000000242,-9.239841962143483300
0.399000000000000243,-9.171195363355195695
0.400000000000000244,-9.102189453234815986
0.401000000000000245,-9.032848561405991461
0.402000000000000246,-8.963196625024526298
0.403000000000000247,-8.893257188097342336
0.404000000000000248,-8.823053400939283364
0.405000000000000249,-8.752608019770512726
0.406000000000000250,-8.681943406456941403
0.407000000000000250,-8.611081528395521545
0.408000000000000251,-8.540043958545924241
0.409000000000000252,-8.468851875609550106
0.410000000000000253,-8.397526064356551245
0.411000000000000254,-8.326086916101045787
0.412000000000000255,-8.254554429324384657
0.413000000000000256,-8.182948210446065573
0.414000000000000257,-8.111287474741351033
0.415000000000000258,-8.039591047404666568
0.416000000000000258,-7.967877364757198322
0.417000000000000259,-7.896164475597212018
0.418000000000000260,-7.824470042691044291
0.419000000000000261,-7.752811344402748439
0.420000000000000262,-7.681205276459952991
0.421000000000000263,-7.609668353853526135
0.422000000000000264,-7.538216712868168301
0.423000000000000265,-7.466866113241126257
0.424000000000000266,-7.395631940446091512
0.425000000000000266,-7.324529208098928379
0.426000000000000267,-7.253572560482105303
0.427000000000000268,-7.182776275184322046
0.428000000000000269,-7.112154265851908796
0.429000000000000270,-7.041720085048451594
0.430000000000000271,-6.971486927218847995
0.431000000000000272,-6.901467631754293564
0.432000000000000273,-6.831674686154253884
0.433000000000000274,-6.762120229281786798
0.434000000000000274,-6.692816054708210061
0.435000000000000275,-6.623773614143455113
0.436000000000000276,-6.555004020948098642
0.437000000000000277,-6.486518053723235866
0.438000000000000278,-6.418326159974379053
0.439000000000000279,-6.350438459845483052
0.440000000000000280,-6.282864749919219172
0.441000000000000281,-6.215614507079743056
0.442000000000000282,-6.148696892434156958
0.443000000000000282,-6.082120755288806357
0.444000000000000283,-6.015894637176846693
0.445000000000000284,-5.950026775933296541
0.446000000000000285,-5.884525109813877108
0.447000000000000286,-5.819397281654319798
0.448000000000000287,-5.754650643066250737
0.449000000000000288,-5.690292258666549863
0.450000000000000289,-5.626328910336455991
0.451000000000000290,-5.562767101507312795
0.452000000000000290,-5.499613061469582398
0.453000000000000291,-5.436872749701866958
0.454000000000000292,-5.374551860216951304
0.455000000000000293,-5.312655825921627439
0.456000000000000294,-5.251189822987447187
0.457000000000000295,-5.190158775229440025
0.458000000000000296,-5.129567358489913964
0.459000000000000297,-5.069420005024683817
0.460000000000000298,-5.009720907888913999
0.461000000000000298,-4.950474025320097837
0.462000000000000299,-4.891683085115569263
0.463000000000000300,-4.833351589002107929
0.464000000000000301,-4.775482816995287649
0.465000000000000302,-4.718079831746350372
0.466000000000000303,-4.661145482874205825
0.467000000000000304,-4.604682411280647258
0.468000000000000305,-4.548693053446603685
0.469000000000000306,-4.493179645707450653
0.470000000000000306,-4.438144228505610300
0.471000000000000307,-4.383588650618413851
0.472000000000000308,-4.329514573359701579
0.473000000000000309,-4.275923474753324349
0.474000000000000310,-4.222816653677053722
0.475000000000000311,-4.170195233975273474
0.476000000000000312,-4.118060168539209975
0.477000000000000313,-4.066412243353012101
0.478000000000000314,-4.015252081504639747
0.479000000000000314,-3.964580147160209123
0.480000000000000315,-3.914396749500576256
0.481000000000000316,-3.864702046619175491
0.482000000000000317,-3.815496049379915711
0.483000000000000318,-3.766778625234280753
0.484000000000000319,-3.718549501996616158
0.485000000000000320,-3.670808271576833981
0.486000000000000321,-3.623554393669645712
0.487000000000000322,-3.576787199399647399
0.488000000000000322,-3.530505894921465604
0.489000000000000323,-3.484709564974514340
0.490000000000000324,-3.439397176391580047
0.491000000000000325,-3.394567581560839820
0.492000000000000326,-3.350219521840739567
0.493000000000000327,-3.306351630927407914
0.494000000000000328,-3.262962438174116464
0.495000000000000329,-3.220050371862515526
0.496000000000000330,-3.177613762425320676
0.497000000000000330,-3.135650845620227223
0.498000000000000331,-3.094159765654770577
0.499000000000000332,-3.053138578262105440
0.500000000000000333,-3.012585253727421364
0.501000000000000334,-2.972497679864972042
0.502000000000000335,-2.932873664945672587
0.503000000000000336,-2.893710940575241253
0.504000000000000337,-2.855007164522840757
0.505000000000000338,-2.816759923500341767
0.506000000000000338,-2.778966735892239637
0.507000000000000339,-2.741625054436322095
0.508000000000000340,-2.704732268855230881
0.509000000000000341,-2.668285708439129600
0.510000000000000342,-2.632282644579556408
0.511000000000000343,-2.596720293254776379
0.512000000000000344,-2.561595817466795211
0.513000000000000345,-2.526906329630342452
0.514000000000000346,-2.492648893914091168
0.515000000000000346,-2.458820528534389815
0.516000000000000347,-2.425418208001836717
0.517000000000000348,-2.392438865321108388
0.518000000000000349,-2.359879394144230869
0.519000000000000350,-2.327736650877867852
0.520000000000000351,-2.296007456744849407
0.521000000000000352,-2.264688599800455560
0.522000000000000353,-2.233776836903819341
0.523000000000000353,-2.203268895644851177
0.524000000000000354,-2.173161476227243760
0.525000000000000355,-2.143451253307863347
0.526000000000000356,-2.114134877793094169
0.527000000000000357,-2.085208978592616891
0.528000000000000358,-2.056670164330975492
0.529000000000000359,-2.028515025017647133
0.530000000000000360,-2.000740133675874777
0.531000000000000361,-1.973342047930971122
0.532000000000000361,-1.946317311558456442
0.533000000000000362,-1.919662455992677152
0.534000000000000363,-1.893374001796329864
0.535000000000000364,-1.867448460091473805
0.536000000000000365,-1.841882333952563844
0.537000000000000366,-1.816672119762032578
0.538000000000000367,-1.791814308528929089
0.539000000000000368,-1.767305387171270947
0.540000000000000369,-1.743141839762475387
0.541000000000000369,-1.719320148742615739
0.542000000000000370,-1.695836796094889909
0.543000000000000371,-1.672688264487935728
0.544000000000000372,-1.649871038384536082
0.545000000000000373,-1.627381605117245389
0.546000000000000374,-1.605216455931468333
0.547000000000000375,-1.583372086996585493
0.548000000000000376,-1.561845000385659876
0.549000000000000377,-1.540631705024248843
0.550000000000000377,-1.519728717608862523
0.551000000000000378,-1.499132563495659820
0.552000000000000379,-1.478839777559864510
0.553000000000000380,-1.458846905026483176
0.554000000000000381,-1.439150502272803278
0.555000000000000382,-1.419747137603301956
0.556000000000000383,-1.400633391997347932
0.557000000000000384,-1.381805859830386174
0.558000000000000385,-1.363261149568976816
0.559000000000000385,-1.344995884440312039
0.560000000000000386,-1.327006703076661465
0.561000000000000387,-1.309290260135286932
0.562000000000000388,-1.291843226894303642
0.563000000000000389,-1.274662291825021665
0.564000000000000390,-1.257744161141223227
0.565000000000000391,-1.241085559325890264
0.566000000000000392,-1.224683229635855852
0.567000000000000393,-1.208533934584877567
0.568000000000000393,-1.192634456405565313
0.569000000000000394,-1.176981597490674769
0.570000000000000395,-1.161572180814214983
0.571000000000000396,-1.146403050332801099
0.572000000000000397,-1.131471071367772474
0.573000000000000398,-1.116773130968416128
0.574000000000000399,-1.102306138256867296
0.575000000000000400,-1.088067024754986623
0.576000000000000401,-1.074052744693739792
0.577000000000000401,-1.060260275305488609
0.578000000000000402,-1.046686617099556571
0.579000000000000403,-1.033328794121512795
0.580000000000000404,-1.020183854196635265
0.581000000000000405,-1.007248869157837623
0.582000000000000406,-0.994520935058550437
0.583000000000000407,-0.981997172370898674
0.584000000000000408,-0.969674726169563628
0.585000000000000409,-0.957550766301708101
0.586000000000000409,-0.945622487543333334
0.587000000000000410,-0.933887109742432941
0.588000000000000411,-0.922341877949286015
0.589000000000000412,-0.910984062534275219
0.590000000000000413,-0.899810959293523061
0.591000000000000414,-0.888819889542732611
0.592000000000000415,-0.878008200199557054
0.593000000000000416,-0.867373263854791077
0.594000000000000417,-0.856912478832737690
0.595000000000000417,-0.846623269241101206
0.596000000000000418,-0.836503085010596559
0.597000000000000419,-0.826549401924743909
0.598000000000000420,-0.816759721639991221
0.599000000000000421,-0.807131571696571570
0.600000000000000422,-0.797662505520321585
0.601000000000000423,-0.788350102415762310
0.602000000000000424,-0.779191967550720510
0.603000000000000425,-0.770185731932757078
0.604000000000000425,-0.761329052377666127
0.605000000000000426,-0.752619611470298766
0.606000000000000427,-0.744055117518025777
0.607000000000000428,-0.735633304496929319
0.608000000000000429,-0.727351931991234713
0.609000000000000430,-0.719208785125891481
0.610000000000000431,-0.711201674492862645
0.611000000000000432,-0.703328436071110397
