# CNT15-OH-4_CS-1057-AC
# h[nm],U(h)[kJ/mol]
0.200000000000000011,69.492252115779237442
0.201000000000000012,68.927879215311804728
0.202000000000000013,67.774271591854528651
0.203000000000000014,66.363057408961608985
0.204000000000000015,64.877992018234579064
0.205000000000000016,63.410618233958267354
0.206000000000000016,61.997621695170167300
0.207000000000000017,60.645290754005237943
0.208000000000000018,59.345020911798670227
0.209000000000000019,58.082708048595577566
0.210000000000000020,56.844062312292066963
0.211000000000000021,55.617276253208203229
0.212000000000000022,54.394043541659016228
0.213000000000000023,53.169607874993062069
0.214000000000000024,51.942294638080497293
0.215000000000000024,50.712817156962564979
0.216000000000000025,49.483537336707328791
0.217000000000000026,48.257783845416270196
0.218000000000000027,47.039279889615627894
0.219000000000000028,45.831699662609437951
0.220000000000000029,44.638352308227659648
0.221000000000000030,43.461980756075767829
0.222000000000000031,42.304657172932984111
0.223000000000000032,41.167754976950682533
0.224000000000000032,40.051977920967743785
0.225000000000000033,38.957428658583708625
0.226000000000000034,37.883701776830811525
0.227000000000000035,36.829989062353760687
0.228000000000000036,35.795187481197082491
0.229000000000000037,34.778002830156225400
0.230000000000000038,33.777044175251418778
0.231000000000000039,32.790905999105248725
0.232000000000000040,31.818236437280127404
0.233000000000000040,30.857791118298326438
0.234000000000000041,29.908472968871386399
0.235000000000000042,28.969358945487829970
0.236000000000000043,28.039715047313343632
0.237000000000000044,27.119001192721903237
0.238000000000000045,26.206867638530034981
0.239000000000000046,25.303144618675709410
0.240000000000000047,24.407826804612142269
0.241000000000000048,23.521054065559866331
0.242000000000000048,22.643089851265887802
0.243000000000000049,21.774298347589226665
0.244000000000000050,20.915121377301097993
0.245000000000000051,20.066055843354682509
0.246000000000000052,19.227632345595914387
0.247000000000000053,18.400395448543008570
0.248000000000000054,17.584885940002457971
0.249000000000000055,16.781625299217786562
0.250000000000000056,15.991102489330652148
0.251000000000000056,15.213763101831537128
0.252000000000000057,14.450000809549257141
0.253000000000000058,13.700151028391863051
0.254000000000000059,12.964486645111085394
0.255000000000000060,12.243215637318121125
0.256000000000000061,11.536480391294803738
0.257000000000000062,10.844358511316126936
0.258000000000000063,10.166864909789989468
0.259000000000000064,9.503954969189264190
0.260000000000000064,8.855528573275694981
0.261000000000000065,8.221434815398314555
0.262000000000000066,7.601477204718126934
0.263000000000000067,6.995419206227937892
0.264000000000000068,6.402989966677289146
0.265000000000000069,5.823890095373410070
0.266000000000000070,5.257797385811051605
0.267000000000000071,4.704372380780625917
0.268000000000000071,4.163263699699679243
0.269000000000000072,3.634113062162332763
0.270000000000000073,3.116559955929329551
0.271000000000000074,2.610245910666399993
0.272000000000000075,2.114818350607041708
0.273000000000000076,1.629934009935283923
0.274000000000000077,1.155261904051757327
0.275000000000000078,0.690485858028501376
0.276000000000000079,0.235306600519413267
0.277000000000000079,-0.210556562766848199
0.278000000000000080,-0.647364477131332827
0.279000000000000081,-1.075357245764719805
0.280000000000000082,-1.494753689782720052
0.281000000000000083,-1.905751133620172677
0.282000000000000084,-2.308525486563245188
0.283000000000000085,-2.703231590405859031
0.284000000000000086,-3.090003802972910218
0.285000000000000087,-3.468956787479560600
0.286000000000000087,-3.840186478323830421
0.287000000000000088,-4.203771194868541450
0.288000000000000089,-4.559772875997959218
0.289000000000000090,-4.908238409677768921
0.290000000000000091,-5.249201033351925005
0.291000000000000092,-5.582681782733655673
0.292000000000000093,-5.908690968347140249
0.293000000000000094,-6.227229661018265361
0.294000000000000095,-6.538291169365524347
0.295000000000000095,-6.841862494180844578
0.296000000000000096,-7.137925746391010406
0.297000000000000097,-7.426459517037559799
0.298000000000000098,-7.707440189389754615
0.299000000000000099,-7.980843184901402765
0.300000000000000100,-8.246644136227738286
0.301000000000000101,-8.504819981928211092
0.302000000000000102,-8.755349978788753873
0.303000000000000103,-8.998216628903248804
0.304000000000000103,-9.233406519754135289
0.305000000000000104,-9.460911076530750918
0.306000000000000105,-9.680727226820039277
0.307000000000000106,-9.892857978601716340
0.308000000000000107,-10.097312913182554084
0.309000000000000108,-10.294108595315162091
0.310000000000000109,-10.483268903272000117
0.311000000000000110,-10.664825282087498692
0.312000000000000111,-10.838816923549329019
0.313000000000000111,-11.005290876814772361
0.314000000000000112,-11.164302093759314261
0.315000000000000113,-11.315913413334843796
0.316000000000000114,-11.460195489330638807
0.317000000000000115,-11.597226665996412720
0.318000000000000116,-11.727092806008773351
0.319000000000000117,-11.849887075244289747
0.320000000000000118,-11.965709688769823771
0.321000000000000119,-12.074667622377436516
0.322000000000000119,-12.176874293881390088
0.323000000000000120,-12.272449218262305948
0.324000000000000121,-12.361517640592760259
0.325000000000000122,-12.444210150511363366
0.326000000000000123,-12.520662281833331519
0.327000000000000124,-12.591014100696446221
0.328000000000000125,-12.655409785445439041
0.329000000000000126,-12.713997201256713510
0.330000000000000127,-12.766927472301981439
0.331000000000000127,-12.814354554044887990
0.332000000000000128,-12.856434808061214525
0.333000000000000129,-12.893326581571994183
0.334000000000000130,-12.925189793680980088
0.335000000000000131,-12.952185530115125189
0.336000000000000132,-12.974475648078890089
0.337000000000000133,-12.992222392652152507
0.338000000000000134,-13.005588025987441014
0.339000000000000135,-13.014734470395111998
0.340000000000000135,-13.019822966246788809
0.341000000000000136,-13.021013745476391676
0.342000000000000137,-13.018465721316072603
0.343000000000000138,-13.012336194770501407
0.344000000000000139,-13.002780578208012585
0.345000000000000140,-12.989952136330364496
0.346000000000000141,-12.974001744674652059
0.347000000000000142,-12.955077665701159262
0.348000000000000143,-12.933325342429180083
0.349000000000000143,-12.908887209499031457
0.350000000000000144,-12.881902521462389899
0.351000000000000145,-12.852507198034345492
0.352000000000000146,-12.820833685979064143
0.353000000000000147,-12.787010837246143069
0.354000000000000148,-12.751163802926495094
0.355000000000000149,-12.713413942554506519
0.356000000000000150,-12.673878748246977466
0.357000000000000151,-12.632671783138624377
0.358000000000000151,-12.589902633548311073
0.359000000000000152,-12.545676874289407365
0.360000000000000153,-12.500096046521623094
0.361000000000000154,-12.453257647529405006
0.362000000000000155,-12.405255131803951230
0.363000000000000156,-12.356177922801341751
0.364000000000000157,-12.306111434747773359
0.365000000000000158,-12.255137103864917947
0.366000000000000159,-12.203332428392377196
0.367000000000000159,-12.150771016791438228
0.368000000000000160,-12.097522643523157981
0.369000000000000161,-12.043653311804899175
0.370000000000000162,-11.989225322762198545
0.371000000000000163,-11.934297350407177873
0.372000000000000164,-11.878924521890164456
0.373000000000000165,-11.823158502488229971
0.374000000000000166,-11.767047584811800576
0.375000000000000167,-11.710636781729110822
0.376000000000000167,-11.653967922527581180
0.377000000000000168,-11.597079751850605689
0.378000000000000169,-11.540008030968511576
0.379000000000000170,-11.482785640962671181
0.380000000000000171,-11.425442687422073362
0.381000000000000172,-11.368006606272475167
0.382000000000000173,-11.310502270378121281
0.383000000000000174,-11.252952096577086394
0.384000000000000175,-11.195376152830579741
0.385000000000000175,-11.137792265186963192
0.386000000000000176,-11.080216124280488188
0.387000000000000177,-11.022661391103689255
0.388000000000000178,-10.965139801811471187
0.389000000000000179,-10.907661271332546704
0.390000000000000180,-10.850233995582080126
0.391000000000000181,-10.792864552086118834
0.392000000000000182,-10.735557998845262517
0.393000000000000183,-10.678317971280817389
0.394000000000000183,-10.621146777122177696
0.395000000000000184,-10.564045489108965015
0.396000000000000185,-10.507014035395561891
0.397000000000000186,-10.450051287559276147
0.398000000000000187,-10.393155146126364485
0.399000000000000188,-10.336322623542253396
0.400000000000000189,-10.279549924524260973
0.401000000000000190,-10.222832523745942979
0.402000000000000191,-10.166165240812896187
0.403000000000000191,-10.109542312499472771
0.404000000000000192,-10.052957462225501573
0.405000000000000193,-9.996403966760407656
0.406000000000000194,-9.939874720150744025
0.407000000000000195,-9.883362294874444842
0.408000000000000196,-9.826859000232314401
0.409000000000000197,-9.770356937993915025
0.410000000000000198,-9.713848055321097519
0.411000000000000199,-9.657324194997830347
0.412000000000000199,-9.600777143000492231
0.413000000000000200,-9.544198673447194636
0.414000000000000201,-9.487580590969168171
0.415000000000000202,-9.430914770550993254
0.416000000000000203,-9.374193194890121816
0.417000000000000204,-9.317407989329074880
0.418000000000000205,-9.260551454416511064
0.419000000000000206,-9.203616096155972315
0.420000000000000207,-9.146594654002836222
0.421000000000000207,-9.089480126672338400
0.422000000000000208,-9.032265795822409515
0.423000000000000209,-8.974945247677000637
0.424000000000000210,-8.917512392656012921
0.425000000000000211,-8.859961483079006328
0.426000000000000212,-8.802287129010355926
0.427000000000000213,-8.744484312313696606
0.428000000000000214,-8.686548398983909181
0.429000000000000214,-8.628475149824529566
0.430000000000000215,-8.570260729538478728
0.431000000000000216,-8.511901714299588306
0.432000000000000217,-8.453395097871762687
0.433000000000000218,-8.394738296342090678
0.434000000000000219,-8.335929151533424175
0.435000000000000220,-8.276965933161056554
0.436000000000000221,-8.217847339797048178
0.437000000000000222,-8.158572498704861786
0.438000000000000222,-8.099140964605670234
0.439000000000000223,-8.039552717436510676
0.440000000000000224,-7.979808159159196279
0.441000000000000225,-7.919908109677433750
0.442000000000000226,-7.859853801918468719
0.443000000000000227,-7.799646876133730089
0.444000000000000228,-7.739289373471857303
0.445000000000000229,-7.678783728875781200
0.446000000000000230,-7.618132763353952619
0.447000000000000230,-7.557339675674503710
0.448000000000000231,-7.496408033529329273
0.449000000000000232,-7.435341764213534432
0.450000000000000233,-7.374145144864348467
0.451000000000000234,-7.312822792301656882
0.452000000000000235,-7.251379652511147356
0.453000000000000236,-7.189820989809038387
0.454000000000000237,-7.128152375726401146
0.455000000000000238,-7.066379677648828128
0.456000000000000238,-7.004509047246396669
0.457000000000000239,-6.942546908726792587
0.458000000000000240,-6.880499946943433365
0.459000000000000241,-6.818375095388508278
0.460000000000000242,-6.756179524099970024
0.461000000000000243,-6.693920627509508670
0.462000000000000244,-6.631606012257785565
0.463000000000000245,-6.569243485001122096
0.464000000000000246,-6.506841040233370066
0.465000000000000246,-6.444406848144597966
0.466000000000000247,-6.381949242537578115
0.467000000000000248,-6.319476708821389010
0.468000000000000249,-6.256997872100676261
0.469000000000000250,-6.194521485377554093
0.470000000000000251,-6.132056417882334465
0.471000000000000252,-6.069611643547921709
0.472000000000000253,-6.007196229641965424
0.473000000000000254,-5.944819325569462798
0.474000000000000254,-5.882490151857884264
0.475000000000000255,-5.820217989335682240
0.476000000000000256,-5.758012168514287765
0.477000000000000257,-5.695882059182776125
0.478000000000000258,-5.633837060223419790
0.479000000000000259,-5.571886589655781208
0.480000000000000260,-5.510040074915973918
0.481000000000000261,-5.448306943377045464
0.482000000000000262,-5.386696613115843135
0.483000000000000262,-5.325218483930854063
0.484000000000000263,-5.263881928614939198
0.485000000000000264,-5.202696284486289180
0.486000000000000265,-5.141670845180279059
0.487000000000000266,-5.080814852704321538
0.488000000000000267,-5.020137489757340532
0.489000000000000268,-4.959647872314945971
0.490000000000000269,-4.899355042480835642
0.491000000000000270,-4.839267961604669210
0.492000000000000270,-4.779395503665960554
0.493000000000000271,-4.719746448923417326
0.494000000000000272,-4.660329477828552669
0.495000000000000273,-4.601153165202072515
0.496000000000000274,-4.542225974671358912
0.497000000000000275,-4.483556253366791644
0.498000000000000276,-4.425152226874562444
0.499000000000000277,-4.367021994443303967
0.500000000000000222,-4.309173524441482606
0.501000000000000334,-4.251614650062473189
0.502000000000000224,-4.194353065273852543
0.503000000000000336,-4.137396321007220656
0.504000000000000226,-4.080751821584938099
0.505000000000000338,-4.024426821379497810
0.506000000000000227,-3.968428421701799547
0.507000000000000339,-3.912763567913602802
0.508000000000000229,-3.857439046760186674
0.509000000000000341,-3.802461483918305074
0.510000000000000231,-3.747837341755269058
0.511000000000000343,-3.693572917293942659
0.512000000000000233,-3.639674340379381423
0.513000000000000345,-3.586147572041818332
0.514000000000000234,-3.532998403051577530
0.515000000000000346,-3.480232452660427356
0.516000000000000236,-3.427855167524970881
0.517000000000000348,-3.375871820806590762
0.518000000000000238,-3.324287511443317467
0.519000000000000350,-3.273107163588282020
0.520000000000000240,-3.222335526210002854
0.521000000000000352,-3.171977172849302917
0.522000000000000242,-3.122036501527985397
0.523000000000000353,-3.072517734804171674
0.524000000000000243,-3.023424919969481373
0.525000000000000355,-2.974761929383002546
0.526000000000000245,-2.926532460937337543
0.527000000000000357,-2.878740038651636191
0.528000000000000247,-2.831388013387159841
0.529000000000000359,-2.784479563680285708
0.530000000000000249,-2.738017696688568314
0.531000000000000361,-2.692005249244994847
0.532000000000000250,-2.646444889016105417
0.533000000000000362,-2.601339115759219389
0.534000000000000252,-2.556690262674611969
0.535000000000000364,-2.512500497848045633
0.536000000000000254,-2.468771825779608076
0.537000000000000366,-2.425506088994360709
0.538000000000000256,-2.382704969731039402
0.539000000000000368,-2.340369991704341679
0.540000000000000258,-2.298502521937266785
0.541000000000000369,-2.257103772659168506
0.542000000000000259,-2.216174803266175442
0.543000000000000371,-2.175716522339850023
0.544000000000000261,-2.135729689720748503
0.545000000000000373,-2.096214918633154234
0.546000000000000263,-2.057172677857660226
0.547000000000000375,-2.018603293947994093
0.548000000000000265,-1.980506953489167499
0.549000000000000377,-1.942883705393291249
0.550000000000000266,-1.905733463230341540
0.551000000000000378,-1.869056007590555568
0.552000000000000268,-1.832850988475685172
0.553000000000000380,-1.797117927716113783
0.554000000000000270,-1.761856221411212120
0.555000000000000382,-1.727065142390013408
0.556000000000000272,-1.692743842689881761
0.557000000000000384,-1.658891356050327115
0.558000000000000274,-1.625506600419833303
0.559000000000000385,-1.592588380473035636
0.560000000000000275,-1.560135390136221378
0.561000000000000387,-1.528146215118737716
0.562000000000000277,-1.496619335448314825
0.563000000000000389,-1.465553128008156181
0.564000000000000279,-1.434945869073902536
0.565000000000000391,-1.404795736848474030
0.566000000000000281,-1.375100813993045179
0.567000000000000393,-1.345859090152295323
0.568000000000000282,-1.317068464472396450
0.569000000000000394,-1.288726748109898290
0.570000000000000284,-1.260831666730214851
0.571000000000000396,-1.233380862993978422
0.572000000000000286,-1.206371899030085570
0.573000000000000398,-1.179802258893823952
0.574000000000000288,-1.153669351009016575
0.575000000000000400,-1.127970510592812392
0.576000000000000290,-1.102703002062003224
0.577000000000000401,-1.077864021419730589
0.578000000000000291,-1.053450698621571702
0.579000000000000403,-1.029460099919918381
0.580000000000000293,-1.005889230185834649
0.581000000000000405,-0.982735035207332297
0.582000000000000295,-0.959994403963410958
0.583000000000000407,-0.937664170872892777
0.584000000000000297,-0.915741118017451505
0.585000000000000409,-0.894221977338041540
0.586000000000000298,-0.873103432804171020
0.587000000000000410,-0.852382122555309651
0.588000000000000300,-0.832054641013994511
0.589000000000000412,-0.812117540969980900
0.590000000000000302,-0.792567335635091963
0.591000000000000414,-0.773400500668256052
0.592000000000000304,-0.754613476170350239
0.593000000000000416,-0.736202668648474501
0.594000000000000306,-0.718164452949400678
0.595000000000000417,-0.700495174161809953
0.596000000000000307,-0.683191149487135219
0.597000000000000419,-0.666248670078753102
0.598000000000000309,-0.649664002849375644
0.599000000000000421,-0.633433392246395499
0.600000000000000311,-0.617553061995175012
0.601000000000000423,-0.602019216810046109
0.602000000000000313,-0.586828044073091304
0.603000000000000425,-0.571975715480462443
0.604000000000000314,-0.557458388656466797
0.605000000000000426,-0.543272208735142592
0.606000000000000316,-0.529413309909598340
0.607000000000000428,-0.515877816948956736
0.608000000000000318,-0.502661846683139180
0.609000000000000430,-0.489761509455432009
0.610000000000000320,-0.477172910543066764
0.611000000000000432,-0.464892151545831023
0.612000000000000322,-0.452915331742946736
0.613000000000000433,-0.441238549418295711
0.614000000000000323,-0.429857903154236609
0.615000000000000435,-0.418769493094152678
0.616000000000000325,-0.407969422173970309
0.617000000000000437,-0.397453797322841751
0.618000000000000327,-0.387218730633267338
0.619000000000000439,-0.377260340500831182
0.620000000000000329,-0.367574752733894172
0.621000000000000441,-0.358158101633448245
0.622000000000000330,-0.349006531043441148
0.623000000000000442,-0.340116195371843510
0.624000000000000332,-0.331483260582776995
0.625000000000000444,-0.323103905159995985
0.626000000000000334,-0.314974321042034711
0.627000000000000446,-0.307090714529362263
0.628000000000000336,-0.299449307163846101
0.629000000000000448,-0.292046336580882748
0.630000000000000338,-0.284878057334541190
0.631000000000000449,-0.277940741696034166
0.632000000000000339,-0.271230680425911919
0.633000000000000451,-0.264744183520301157
0.634000000000000341,-0.258477580931571915
0.635000000000000453,-0.252427223263800682
0.636000000000000343,-0.246589482443351438
0.637000000000000455,-0.240960752365030173
0.638000000000000345,-0.235537449514107516
0.639000000000000457,-0.230316013564617339
0.640000000000000346,-0.225292907954326077
0.641000000000000458,-0.220464620436716580
0.642000000000000348,-0.215827663610396236
0.643000000000000460,-0.211378575426287629
0.644000000000000350,-0.207113919673010821
0.645000000000000462,-0.203030286440810365
0.646000000000000352,-0.199124292564431704
0.647000000000000464,-0.195392582045303159
0.648000000000000353,-0.191831826453451898
0.649000000000000465,-0.188438725309467092
0.650000000000000355,-0.185210006446959813
0.651000000000000467,-0.182142426355837911
0.652000000000000357,-0.179232770506819350
0.653000000000000469,-0.176477853657525718
0.654000000000000359,-0.173874520140561067
0.655000000000000471,-0.171419644133900706
0.656000000000000361,-0.169110129914022467
0.657000000000000473,-0.166942912092085033
0.658000000000000362,-0.164914955833567412
0.659000000000000474,-0.163023257061687549
0.660000000000000364,-0.161264842645009121
0.661000000000000476,-0.159636770569544811
