# CNT15-OH-4_CS-8953-AC
# h[nm],U(h)[kJ/mol]
0.149999999999999994,117.966430064773845743
0.150999999999999995,117.179769805118709769
0.151999999999999996,115.111615906094172601
0.152999999999999997,112.816331563865304588
0.153999999999999998,110.668358342026778018
0.154999999999999999,108.728457645540444787
0.156000000000000000,106.939003141237620298
0.157000000000000001,105.219532914142035906
0.158000000000000002,103.506669297707162514
0.159000000000000002,101.765015332487337218
0.160000000000000003,99.984524904154568503
0.161000000000000004,98.172933395943189794
0.162000000000000005,96.347652864584688359
0.163000000000000006,94.529094595256239586
0.164000000000000007,92.736030315024436277
0.165000000000000008,90.982915429803128404
0.166000000000000009,89.278799533590472493
0.167000000000000010,87.627368462503611113
0.168000000000000010,86.027692229981852279
0.169000000000000011,84.475331317643750140
0.170000000000000012,82.963544485803808470
0.171000000000000013,81.484426033774497000
0.172000000000000014,80.029871062241312529
0.173000000000000015,78.592321436094721321
0.174000000000000016,77.165283627255078613
0.175000000000000017,75.743634710752502315
0.176000000000000018,74.323747254468955248
0.177000000000000018,72.903470386409338744
0.178000000000000019,71.482005321114485241
0.179000000000000020,70.059711029208415312
0.180000000000000021,68.637871054643682101
0.181000000000000022,67.218446839204020193
0.182000000000000023,65.803837083013121401
0.183000000000000024,64.396657162605009717
0.184000000000000025,62.999547746200960319
0.185000000000000026,61.615017637936034589
0.186000000000000026,60.245322590135231167
0.187000000000000027,58.892379315300807718
0.188000000000000028,57.557712133609811644
0.189000000000000029,56.242428510686735876
0.190000000000000030,54.947219068901425487
0.191000000000000031,53.672377389378048917
0.192000000000000032,52.417834964696986333
0.193000000000000033,51.183206928322633189
0.194000000000000034,49.967844603102115286
0.195000000000000034,48.770891417624717690
0.196000000000000035,47.591339287957097781
0.197000000000000036,46.428083116590372015
0.198000000000000037,45.279971593418466114
0.199000000000000038,44.145852976570125747
0.200000000000000039,43.024614972099747945
0.201000000000000040,41.915218214510886696
0.202000000000000041,40.816723172656331542
0.203000000000000042,39.728310568698333327
0.204000000000000042,38.649295604719469566
0.205000000000000043,37.579136446958322892
0.206000000000000044,36.517437527094735117
0.207000000000000045,35.463948289564335425
0.208000000000000046,34.418558049637589136
0.209000000000000047,33.381287634874162507
0.210000000000000048,32.352278468107087406
0.211000000000000049,31.331779718388844458
0.212000000000000050,30.320134101852243447
0.213000000000000050,29.317762861143712882
0.214000000000000051,28.325150393324143749
0.215000000000000052,27.342828934708869326
0.216000000000000053,26.371363649314968569
0.217000000000000054,25.411338407208635459
0.218000000000000055,24.463342481487917013
0.219000000000000056,23.527958338914157110
0.220000000000000057,22.605750650015600911
0.221000000000000058,21.697256600270172555
0.222000000000000058,20.802977544929074583
0.223000000000000059,19.923372016213477309
0.224000000000000060,19.058850062882562781
0.225000000000000061,18.209768878318911334
0.226000000000000062,17.376429654007679915
0.227000000000000063,16.559075580244687842
0.228000000000000064,15.757890904710398772
0.229000000000000065,14.973000951782927004
0.230000000000000066,14.204473000729555210
0.231000000000000066,13.452317918805666963
0.232000000000000067,12.716492445420461976
0.233000000000000068,11.996902025530774338
0.234000000000000069,11.293404093960520029
0.235000000000000070,10.605811717100651848
0.236000000000000071,9.933897504142134238
0.237000000000000072,9.277397706378559761
0.238000000000000073,8.636016429966343111
0.239000000000000073,8.009429894655669457
0.240000000000000074,7.397290678235319383
0.241000000000000075,6.799231893636678237
0.242000000000000076,6.214871252694399217
0.243000000000000077,5.643814977372809238
0.244000000000000078,5.085661525763875090
0.245000000000000079,4.540005106286264080
0.246000000000000080,4.006438959226934493
0.247000000000000081,3.484558390035908282
0.248000000000000081,2.973963543598955095
0.249000000000000082,2.474261913063489526
0.250000000000000111,1.985070580682709362
0.251000000000000112,1.506018191582078725
0.252000000000000113,1.036746664352724112
0.253000000000000114,0.576912644962122911
0.254000000000000115,0.126188712658890478
0.255000000000000115,-0.315735651632362835
0.256000000000000116,-0.749153322457733806
0.257000000000000117,-1.174338999397553263
0.258000000000000118,-1.591548875054594525
0.259000000000000119,-2.001020486870186854
0.260000000000000120,-2.402972737801058578
0.261000000000000121,-2.797606070727058025
0.262000000000000122,-3.185102781481720324
0.263000000000000123,-3.565627455577045968
0.264000000000000123,-3.939327514011436104
0.265000000000000124,-4.306333853981437088
0.266000000000000125,-4.666761570846614582
0.267000000000000126,-5.020710748302612991
0.268000000000000127,-5.368267304385951455
0.269000000000000128,-5.709503881647702173
0.270000000000000129,-6.044480770581261098
0.271000000000000130,-6.373246856158770512
0.272000000000000131,-6.695840578110017205
0.273000000000000131,-7.012290896359623105
0.274000000000000132,-7.322618253812793299
0.275000000000000133,-7.626835529441899908
0.276000000000000134,-7.924948975368684145
0.277000000000000135,-8.216959132354507034
0.278000000000000136,-8.502861718802581237
0.279000000000000137,-8.782648489034729167
0.280000000000000138,-9.056308057230857855
0.281000000000000139,-9.323826684010144916
0.282000000000000139,-9.585189023186201140
0.283000000000000140,-9.840378826745341811
0.284000000000000141,-10.089379606575878512
0.285000000000000142,-10.332175251918140901
0.286000000000000143,-10.568750601909712827
0.287000000000000144,-10.799091972968735575
0.288000000000000145,-11.023187641092393463
0.289000000000000146,-11.241028279446243943
0.290000000000000147,-11.452607351888165255
0.291000000000000147,-11.657921463305720877
0.292000000000000148,-11.856970667852895218
0.293000000000000149,-12.049758736349833299
0.294000000000000150,-12.236293384262081574
0.295000000000000151,-12.416586461803099439
0.296000000000000152,-12.590654107808720852
0.297000000000000153,-12.758516869115792858
0.298000000000000154,-12.920199787241335443
0.299000000000000155,-13.075732454204691990
0.300000000000000155,-13.225149039364998416
0.301000000000000156,-13.368488289160913141
0.302000000000000157,-13.505793501641823795
0.303000000000000158,-13.637112477668491550
0.304000000000000159,-13.762497450640699626
0.305000000000000160,-13.882004996578368505
0.306000000000000161,-13.995695926344286164
0.307000000000000162,-14.103635161750350591
0.308000000000000163,-14.205891597237258139
0.309000000000000163,-14.302537948760335240
0.310000000000000164,-14.393650591452793464
0.311000000000000165,-14.479309387572509848
0.312000000000000166,-14.559597506171112258
0.313000000000000167,-14.634601235854143297
0.314000000000000168,-14.704409791930164175
0.315000000000000169,-14.769115119174765383
0.316000000000000170,-14.828811691363393166
0.317000000000000171,-14.883596308654428952
0.318000000000000171,-14.933567893832906393
0.319000000000000172,-14.978827288354519709
0.320000000000000173,-15.019477049060094842
0.321000000000000174,-15.055621246362980159
0.322000000000000175,-15.087365264645686835
0.323000000000000176,-15.114815605537859966
0.324000000000000177,-15.138079694685831811
0.325000000000000178,-15.157265692563688830
0.326000000000000179,-15.172482309819093516
0.327000000000000179,-15.183838627591317305
0.328000000000000180,-15.191443923186833231
0.329000000000000181,-15.195407501448011445
0.330000000000000182,-15.195838532102376561
0.331000000000000183,-15.192845893335993779
0.332000000000000184,-15.186538021791344377
0.333000000000000185,-15.177022769151019332
0.334000000000000186,-15.164407265430941862
0.335000000000000187,-15.148797789072109055
0.336000000000000187,-15.130299643887742178
0.337000000000000188,-15.109017042892144644
0.338000000000000189,-15.085052999010496677
0.339000000000000190,-15.058509222642783243
0.340000000000000191,-15.029486026031724677
0.341000000000000192,-14.998082234363433685
0.342000000000000193,-14.964395103509790630
0.343000000000000194,-14.928520244304337439
0.344000000000000195,-14.890551553227330928
0.345000000000000195,-14.850581149362142241
0.346000000000000196,-14.808699317472138191
0.347000000000000197,-14.764994457036838327
0.348000000000000198,-14.719553037076460456
0.349000000000000199,-14.672459556585867091
0.350000000000000200,-14.623796510392406134
0.351000000000000201,-14.573644360246245100
0.352000000000000202,-14.522081510947534966
0.353000000000000203,-14.469184291311375290
0.354000000000000203,-14.415026939769017389
0.355000000000000204,-14.359681594402099236
0.356000000000000205,-14.303218287206325599
0.357000000000000206,-14.245704942380891467
0.358000000000000207,-14.187207378440486849
0.359000000000000208,-14.127789313948577288
0.360000000000000209,-14.067512376672388186
0.361000000000000210,-14.006436115962426214
0.362000000000000210,-13.944618018162671547
0.363000000000000211,-13.882113524860656639
0.364000000000000212,-13.818976053790791525
0.365000000000000213,-13.755257022208038364
0.366000000000000214,-13.691005872553835943
0.367000000000000215,-13.626270100240446936
0.368000000000000216,-13.561095283385231625
0.369000000000000217,-13.495525114331027083
0.370000000000000218,-13.429601432794262550
0.371000000000000218,-13.363364260487609059
0.372000000000000219,-13.296851837069571189
0.373000000000000220,-13.230100657278802245
0.374000000000000221,-13.163145509116446874
0.375000000000000222,-13.096019512945327179
0.376000000000000223,-13.028754161380613041
0.377000000000000224,-12.961379359851722626
0.378000000000000225,-12.893923467721094767
0.379000000000000226,-12.826413339850526896
0.380000000000000226,-12.758874368511726516
0.381000000000000227,-12.691330525542245056
0.382000000000000228,-12.623804404654006106
0.383000000000000229,-12.556317263806166196
0.384000000000000230,-12.488889067559240331
0.385000000000000231,-12.421538529332581291
0.386000000000000232,-12.354283153491589786
0.387000000000000233,-12.287139277196230225
0.388000000000000234,-12.220122111946430721
0.389000000000000234,-12.153245784764887816
0.390000000000000235,-12.086523378961540942
0.391000000000000236,-12.019966974428497153
0.392000000000000237,-11.953587687417883245
0.393000000000000238,-11.887395709759227103
0.394000000000000239,-11.821400347476279435
0.395000000000000240,-11.755610058767214099
0.396000000000000241,-11.690032491315129448
0.397000000000000242,-11.624674518899265507
0.398000000000000242,-11.559542277280517197
0.399000000000000243,-11.494641199337614523
0.400000000000000244,-11.429976049433383523
0.401000000000000245,-11.365550956993200060
0.402000000000000246,-11.301369449280191049
0.403000000000000247,-11.237434483354325820
0.404000000000000248,-11.173748477204918927
0.405000000000000249,-11.110313340048088904
0.406000000000000250,-11.047130501782978840
0.407000000000000250,-10.984200941602393797
0.408000000000000251,-10.921525215755440996
0.409000000000000252,-10.859103484461481770
0.410000000000000253,-10.796935537976290576
0.411000000000000254,-10.735020821812904401
0.412000000000000255,-10.673358461121036811
0.413000000000000256,-10.611947284230335953
0.414000000000000257,-10.550785845363808590
0.415000000000000258,-10.489872446529208361
0.416000000000000258,-10.429205158596856151
0.417000000000000259,-10.368781841573655456
0.418000000000000260,-10.308600164083824069
0.419000000000000261,-10.248657622067611328
0.420000000000000262,-10.188951556710209800
0.421000000000000263,-10.129479171613587241
0.422000000000000264,-10.070237549224575702
0.423000000000000265,-10.011223666533190624
0.424000000000000266,-9.952434410055634117
0.425000000000000266,-9.893866590116697779
0.426000000000000267,-9.835516954446855920
0.427000000000000268,-9.777382201109576343
0.428000000000000269,-9.719458990774542784
0.429000000000000270,-9.661743958352969841
0.430000000000000271,-9.604233724010999396
0.431000000000000272,-9.546924903577718169
0.432000000000000273,-9.489814118364014561
0.433000000000000274,-9.432898004408970749
0.434000000000000274,-9.376173221170116534
0.435000000000000275,-9.319636459674203621
0.436000000000000276,-9.263284450144920967
0.437000000000000277,-9.207113969123875918
0.438000000000000278,-9.151121846101371915
0.439000000000000279,-9.095304969672977080
0.440000000000000280,-9.039660293238114264
0.441000000000000281,-8.984184840256457250
0.442000000000000282,-8.928875709078075928
0.443000000000000282,-8.873730077362589341
0.444000000000000283,-8.818745206103001166
0.445000000000000284,-8.763918443269078651
0.446000000000000285,-8.709247227085224807
0.447000000000000286,-8.654729088957646255
0.448000000000000287,-8.600361656064862359
0.449000000000000288,-8.546142653626043639
0.450000000000000289,-8.492069906860709949
0.451000000000000290,-8.438141342653473487
0.452000000000000290,-8.384354990937115559
0.453000000000000291,-8.330708985806861477
0.454000000000000292,-8.277201566378611375
0.455000000000000293,-8.223831077403419343
0.456000000000000294,-8.170595969650339185
0.457000000000000295,-8.117494800069358973
0.458000000000000296,-8.064526231745805518
0.459000000000000297,-8.011689033657507508
0.460000000000000298,-7.958982080245334600
0.461000000000000298,-7.906404350807799020
0.462000000000000299,-7.853954928729828922
0.463000000000000300,-7.801633000555585618
0.464000000000000301,-7.749437854915027124
0.465000000000000302,-7.697368881313392031
0.466000000000000303,-7.645425568792650672
0.467000000000000304,-7.593607504473588676
0.468000000000000305,-7.541914371986935706
0.469000000000000306,-7.490345949801610281
0.470000000000000306,-7.438902109458018330
0.471000000000000307,-7.387582813713711616
0.472000000000000308,-7.336388114608960898
0.473000000000000309,-7.285318151458969105
0.474000000000000310,-7.234373148779637219
0.475000000000000311,-7.183553414153176497
0.476000000000000312,-7.132859336039983233
0.477000000000000313,-7.082291381542456854
0.478000000000000314,-7.031850094126665951
0.479000000000000314,-6.981536091307285474
0.480000000000000315,-6.931350062300888126
0.481000000000000316,-6.881292765652821330
0.482000000000000317,-6.831365026842189714
0.483000000000000318,-6.781567735869654889
0.484000000000000319,-6.731901844832302473
0.485000000000000320,-6.682368365489769424
0.486000000000000321,-6.632968366825458872
0.487000000000000322,-6.583702972606656267
0.488000000000000322,-6.534573358946976107
0.489000000000000323,-6.485580751874620020
0.490000000000000324,-6.436726424909496203
0.491000000000000325,-6.388011696652235116
0.492000000000000326,-6.339437928387878785
0.493000000000000327,-6.291006521707002364
0.494000000000000328,-6.242718916146626995
0.495000000000000329,-6.194576586853379752
0.496000000000000330,-6.146581042271000328
0.497000000000000330,-6.098733821854361636
0.498000000000000331,-6.051036493811705164
0.499000000000000332,-6.003490652877179201
0.500000000000000333,-5.956097918115023759
0.501000000000000334,-5.908859930757069279
0.502000000000000335,-5.861778352074972886
0.503000000000000336,-5.814854861288415222
0.504000000000000337,-5.768091153510472857
0.505000000000000338,-5.721488937731194824
0.506000000000000338,-5.675049934840432186
0.507000000000000339,-5.628775875690697816
0.508000000000000340,-5.582668499200861945
0.509000000000000341,-5.536729550501465091
0.510000000000000342,-5.490960779122072921
0.511000000000000343,-5.445363937221356920
0.512000000000000344,-5.399940777860215313
0.513000000000000345,-5.354693053318380969
0.514000000000000346,-5.309622513454820947
0.515000000000000346,-5.264730904112029819
0.516000000000000347,-5.220019965564515196
0.517000000000000348,-5.175491431011551846
0.518000000000000349,-5.131147025114117355
0.519000000000000350,-5.086988462576192305
0.520000000000000351,-5.043017446770166501
0.521000000000000352,-4.999235668406388555
0.522000000000000353,-4.955644804246594148
0.523000000000000353,-4.912246515860991813
0.524000000000000354,-4.869042448428896108
0.525000000000000355,-4.826034229582409907
0.526000000000000356,-4.783223468292982616
0.527000000000000357,-4.740611753800460626
0.528000000000000358,-4.698200654584108626
0.529000000000000359,-4.655991717375388639
0.530000000000000360,-4.613986466211818183
0.531000000000000361,-4.572186401531604716
0.532000000000000361,-4.530592999308428404
0.533000000000000362,-4.489207710225917580
0.534000000000000363,-4.448031958891233373
0.535000000000000364,-4.407067143087204819
0.536000000000000365,-4.366314633062408745
0.537000000000000366,-4.325775770858651725
0.538000000000000367,-4.285451869675109826
0.539000000000000368,-4.245344213268711364
0.540000000000000369,-4.205454055389821200
0.541000000000000369,-4.165782619252901497
0.542000000000000370,-4.126331097041220808
0.543000000000000371,-4.087100649445083889
0.544000000000000372,-4.048092405232871727
0.545000000000000373,-4.009307460854223848
0.546000000000000374,-3.970746880074614182
0.547000000000000375,-3.932411693640700978
0.548000000000000376,-3.894302898975760652
0.549000000000000377,-3.856421459904451066
0.550000000000000377,-3.818768306406228330
0.551000000000000378,-3.781344334396764317
0.552000000000000379,-3.744150405536620152
0.553000000000000380,-3.707187347066519756
0.554000000000000381,-3.670455951668453842
0.555000000000000382,-3.633956977352082340
0.556000000000000383,-3.597691147365530639
0.557000000000000384,-3.561659150130125795
0.558000000000000385,-3.525861639198197395
0.559000000000000385,-3.490299233233414178
0.560000000000000386,-3.454972516012913442
0.561000000000000387,-3.419882036450582863
0.562000000000000388,-3.385028308640823269
0.563000000000000389,-3.350411811922194172
0.564000000000000390,-3.316032990960228855
0.565000000000000391,-3.281892255848835926
0.566000000000000392,-3.247989982229641193
0.567000000000000393,-3.214326511428677868
0.568000000000000393,-3.180902150609755896
0.569000000000000394,-3.147717172943957920
0.570000000000000395,-3.114771817794693476
0.571000000000000396,-3.082066290917616858
0.572000000000000397,-3.049600764674988085
0.573000000000000398,-3.017375378263757568
0.574000000000000399,-2.985390237956958348
0.575000000000000400,-2.953645417357718905
0.576000000000000401,-2.922140957665474215
0.577000000000000401,-2.890876867953825702
0.578000000000000402,-2.859853125459447476
0.579000000000000403,-2.829069675881628054
0.580000000000000404,-2.798526433691933768
0.581000000000000405,-2.768223282453444511
0.582000000000000406,-2.738160075149164818
0.583000000000000407,-2.708336634519060926
0.584000000000000408,-2.678752753405347242
0.585000000000000409,-2.649408195105511510
0.586000000000000409,-2.620302693732653232
0.587000000000000410,-2.591435954582749890
0.588000000000000411,-2.562807654508349575
0.589000000000000412,-2.534417442298386725
0.590000000000000413,-2.506264939063606256
0.591000000000000414,-2.478349738627293686
0.592000000000000415,-2.450671407920931522
0.593000000000000416,-2.423229487384318315
0.594000000000000417,-2.396023491369889236
0.595000000000000417,-2.369052908550903336
0.596000000000000418,-2.342317202332978354
0.597000000000000419,-2.315815811268912228
0.598000000000000420,-2.289548149476213545
0.599000000000000421,-2.263513607057194399
0.600000000000000422,-2.237711550521235715
0.601000000000000423,-2.212141323208972388
0.602000000000000424,-2.186802245718078463
0.603000000000000425,-2.161693616330396139
0.604000000000000425,-2.136814711440128356
0.605000000000000426,-2.112164785982813875
0.606000000000000427,-2.087743073864923637
0.607000000000000428,-2.063548788393616995
0.608000000000000429,-2.039581122706748850
0.609000000000000430,-2.015839250202521526
0.610000000000000431,-1.992322324968907932
