# CNT15-OH-4_CS-12814-AC
# h[nm],U(h)[kJ/mol]
0.200000000000000011,89.510510655992419515
0.201000000000000012,89.085154389825007115
0.202000000000000013,87.781933845645909287
0.203000000000000014,86.096111031811005887
0.204000000000000015,84.304445153319605311
0.205000000000000016,82.545947658817439674
0.206000000000000016,80.876617602620925140
0.207000000000000017,79.305692414273750046
0.208000000000000018,77.818940987294169531
0.209000000000000019,76.393019587537295934
0.210000000000000020,75.003787162242005593
0.211000000000000021,73.630643216760262248
0.212000000000000022,72.258337755483893261
0.213000000000000023,70.877254573233969381
0.214000000000000024,69.482844918849778537
0.215000000000000024,68.074656593033267882
0.216000000000000025,66.655239863938078315
0.217000000000000026,65.229098024183798543
0.218000000000000027,63.801773307001781177
0.219000000000000028,62.379108002234943342
0.220000000000000029,60.966688362073000462
0.221000000000000030,59.569459649462714879
0.222000000000000031,58.191490351379840718
0.223000000000000032,56.835859178279370951
0.224000000000000032,55.504637869669771533
0.225000000000000033,54.198944521764495619
0.226000000000000034,52.919045107411569973
0.227000000000000035,51.664484369941064301
0.228000000000000036,50.434230884285739194
0.229000000000000037,49.226824507779625151
0.230000000000000038,48.040517528330852315
0.231000000000000039,46.873403481620314892
0.232000000000000040,45.723529829576044392
0.233000000000000040,44.588992483014038726
0.234000000000000041,43.468011546542761891
0.235000000000000042,42.358988709295445574
0.236000000000000043,41.260547450868436670
0.237000000000000044,40.171557728049478442
0.238000000000000045,39.091147101729433189
0.239000000000000046,38.018700397607865682
0.240000000000000047,36.953850006527133587
0.241000000000000048,35.896458852709670850
0.242000000000000048,34.846597917754571938
0.243000000000000049,33.804520027003945870
0.244000000000000050,32.770631400436634806
0.245000000000000051,31.745462256310474913
0.246000000000000052,30.729637542778686310
0.247000000000000053,29.723848668242386140
0.248000000000000054,28.728826910573332043
0.249000000000000055,27.745319011959743705
0.250000000000000056,26.774065311924438504
0.251000000000000056,25.815780636805669701
0.252000000000000057,24.871138049573879414
0.253000000000000058,23.940755468536856654
0.254000000000000059,23.025185086065590667
0.255000000000000060,22.124905457472898718
0.256000000000000061,21.240316083940260938
0.257000000000000062,20.371734280193031452
0.258000000000000063,19.519394095744118545
0.259000000000000064,18.683447046292240401
0.260000000000000064,17.863964407694759018
0.261000000000000065,17.060940827377720552
0.262000000000000066,16.274299015765720355
0.263000000000000067,15.503895292128248684
0.264000000000000068,14.749525774096127861
0.265000000000000069,14.010933017093483599
0.266000000000000070,13.287812928281500291
0.267000000000000071,12.579821798661226850
0.268000000000000071,11.886583316196464466
0.269000000000000072,11.207695441750795240
0.270000000000000073,10.542737047939318984
0.271000000000000074,9.891274238407074648
0.272000000000000075,9.252866281364170220
0.273000000000000076,8.627071106296645198
0.274000000000000077,8.013450326544019120
0.275000000000000078,7.411573762846993318
0.276000000000000079,6.821023454014250476
0.277000000000000079,6.241397150553005702
0.278000000000000080,5.672311295501719641
0.279000000000000081,5.113403503848823917
0.280000000000000082,4.564334557896851940
0.281000000000000083,4.024789940814096134
0.282000000000000084,3.494480934496112745
0.283000000000000085,2.973145310825432652
0.284000000000000086,2.460547647559802709
0.285000000000000087,1.956479301490118727
0.286000000000000087,1.460758072271263641
0.287000000000000088,0.973227590529916808
0.288000000000000089,0.493756463569834547
0.289000000000000090,0.022237211301205505
0.290000000000000091,-0.441414976013107752
0.291000000000000092,-0.897263627915741324
0.292000000000000093,-1.345352503072072103
0.293000000000000094,-1.785707190704822978
0.294000000000000095,-2.218336778930505293
0.295000000000000095,-2.643235566691656935
0.296000000000000096,-3.060384797933094703
0.297000000000000097,-3.469754398641543780
0.298000000000000098,-3.871304699326504561
0.299000000000000099,-4.264988127445791477
0.300000000000000100,-4.650750856150779988
0.301000000000000101,-5.028534397531432276
0.302000000000000102,-5.398277130263537948
0.303000000000000103,-5.759915753195903321
0.304000000000000103,-6.113386657950414360
0.305000000000000104,-6.458627215043710734
0.306000000000000105,-6.795576969369093945
0.307000000000000106,-7.124178742100983008
0.308000000000000107,-7.444379637202833244
0.309000000000000108,-7.756131951732244900
0.310000000000000109,-8.059393990049050771
0.311000000000000110,-8.354130782842924319
0.312000000000000111,-8.640314712615401405
0.313000000000000111,-8.917926047875701201
0.314000000000000112,-9.186953388850117364
0.315000000000000113,-9.447394027963055052
0.316000000000000114,-9.699254228730435301
0.317000000000000115,-9.942549427017972619
0.318000000000000116,-10.177304358863709766
0.319000000000000117,-10.403553119250707582
0.320000000000000118,-10.621339156347753274
0.321000000000000119,-10.830715205818375324
0.322000000000000119,-11.031743169835838358
0.323000000000000120,-11.224493945439075304
0.324000000000000121,-11.409047206826979703
0.325000000000000122,-11.585491146118869210
0.326000000000000123,-11.753922177012437800
0.327000000000000124,-11.914444605650793108
0.328000000000000125,-12.067170272870450631
0.329000000000000126,-12.212218171845426795
0.330000000000000127,-12.349714044973000071
0.331000000000000127,-12.479789963665572472
0.332000000000000128,-12.602583894524148178
0.333000000000000129,-12.718239255173955371
0.334000000000000130,-12.826904462843419452
0.335000000000000131,-12.928732478567445341
0.336000000000000132,-13.023880349693801151
0.337000000000000133,-13.112508753171786324
0.338000000000000134,-13.194781541904720967
0.339000000000000135,-13.270865296252797094
0.340000000000000135,-13.340928882584316639
0.341000000000000136,-13.405143020588047520
0.342000000000000137,-13.463679860881867967
0.343000000000000138,-13.516712574280770554
0.344000000000000139,-13.564414953923360940
0.345000000000000140,-13.606961031298407505
0.346000000000000141,-13.644524707064102031
0.347000000000000142,-13.677279397410959660
0.348000000000000143,-13.705397696586214096
0.349000000000000143,-13.729051056072012926
0.350000000000000144,-13.748409480792526338
0.351000000000000145,-13.763641242615728189
0.352000000000000146,-13.774912611314197974
0.353000000000000147,-13.782387603055497038
0.354000000000000148,-13.786227746406463979
0.355000000000000149,-13.786591865756790298
0.356000000000000150,-13.783635881995360606
0.357000000000000151,-13.777512630207869648
0.358000000000000151,-13.768371694105491443
0.359000000000000152,-13.756359256842102923
0.360000000000000153,-13.741617967831473379
0.361000000000000154,-13.724286825134626611
0.362000000000000155,-13.704501072952666618
0.363000000000000156,-13.682392113729775929
0.364000000000000157,-13.658087434345489442
0.365000000000000158,-13.631710545854559768
0.366000000000000159,-13.603380936215149433
0.367000000000000159,-13.573214035433528224
0.368000000000000160,-13.541321192543625429
0.369000000000000161,-13.507809663833498348
0.370000000000000162,-13.472782611727813773
0.371000000000000163,-13.436339113734979023
0.372000000000000164,-13.398574180869397665
0.373000000000000165,-13.359578784964435627
0.374000000000000166,-13.319439894297650184
0.375000000000000167,-13.278240516958513595
0.376000000000000167,-13.236059751399102069
0.377000000000000168,-13.192972843619610757
0.378000000000000169,-13.149051250453595685
0.379000000000000170,-13.104362708431873230
0.380000000000000171,-13.058971307719058785
0.381000000000000172,-13.012937570632564288
0.382000000000000173,-12.966318534270294904
0.383000000000000174,-12.919167836790816040
0.384000000000000175,-12.871535806906772237
0.385000000000000175,-12.823469556170540073
0.386000000000000176,-12.775013073649354567
0.387000000000000177,-12.726207322604860650
0.388000000000000178,-12.677090338811058956
0.389000000000000179,-12.627697330162243716
0.390000000000000180,-12.578060777241088175
0.391000000000000181,-12.528210534534938603
0.392000000000000182,-12.478173932006132674
0.393000000000000183,-12.427975876739703054
0.394000000000000183,-12.377638954409027505
0.395000000000000184,-12.327183530316871085
0.396000000000000185,-12.276627849785569424
0.397000000000000186,-12.225988137686357504
0.398000000000000187,-12.175278696913176546
0.399000000000000188,-12.124512005621649990
0.400000000000000189,-12.073698813068252989
0.401000000000000190,-12.022848233899086523
0.402000000000000191,-11.971967840751155165
0.403000000000000191,-11.921063755042005994
0.404000000000000192,-11.870140735836425705
0.405000000000000193,-11.819202266690583158
0.406000000000000194,-11.768250640385753414
0.407000000000000195,-11.717287041474676812
0.408000000000000196,-11.666311626573843796
0.409000000000000197,-11.615323602345208442
0.410000000000000198,-11.564321301120086716
0.411000000000000199,-11.513302254126838164
0.412000000000000199,-11.462263262292452737
0.413000000000000200,-11.411200464596030102
0.414000000000000201,-11.360109403959658181
0.415000000000000202,-11.308985090668928208
0.416000000000000203,-11.257822063322270978
0.417000000000000204,-11.206614447313949512
0.418000000000000205,-11.155356010861574134
0.419000000000000206,-11.104040218594073863
0.420000000000000207,-11.052660282720868423
0.421000000000000207,-11.001209211807843502
0.422000000000000208,-10.949679857189192234
0.423000000000000209,-10.898064957048729795
0.424000000000000210,-10.846357178207144401
0.425000000000000211,-10.794549155654873829
0.426000000000000212,-10.742633529873449660
0.427000000000000213,-10.690602981990064535
0.428000000000000214,-10.638450266812970568
0.429000000000000214,-10.586168243796720390
0.430000000000000215,-10.533749905988408102
0.431000000000000216,-10.481188407007369534
0.432000000000000217,-10.428477086111891836
0.433000000000000218,-10.375609491407832508
0.434000000000000219,-10.322579401254653675
0.435000000000000220,-10.269380843925089764
0.436000000000000221,-10.216008115575181847
0.437000000000000222,-10.162455796581554068
0.438000000000000222,-10.108718766303226744
0.439000000000000223,-10.054792216324983656
0.440000000000000224,-10.000671662239394522
0.441000000000000225,-9.946352954024098025
0.442000000000000226,-9.891832285071000541
0.443000000000000227,-9.837106199922947880
0.444000000000000228,-9.782171600773557074
0.445000000000000229,-9.727025752784646428
0.446000000000000230,-9.671666288275215351
0.447000000000000230,-9.616091209835236242
0.448000000000000231,-9.560298892416339456
0.449000000000000232,-9.504288084450669416
0.450000000000000233,-9.448057908048349773
0.451000000000000234,-9.391607858322569058
0.452000000000000235,-9.334937801890680120
0.453000000000000236,-9.278047974598081282
0.454000000000000237,-9.220938978511025397
0.455000000000000238,-9.163611778222799487
0.456000000000000238,-9.106067696516920051
0.457000000000000239,-9.048308409429552057
0.458000000000000240,-8.990335940752229860
0.459000000000000241,-8.932152656014539005
0.460000000000000242,-8.873761255985527896
0.461000000000000243,-8.815164769730861494
0.462000000000000244,-8.756366547262100397
0.463000000000000245,-8.697370251812419184
0.464000000000000246,-8.638179851772836315
0.465000000000000246,-8.578799612320860746
0.466000000000000247,-8.519234086772829784
0.467000000000000248,-8.459488107689731251
0.468000000000000249,-8.399566777765260284
0.469000000000000250,-8.339475460523503969
0.470000000000000251,-8.279219770852657589
0.471000000000000252,-8.218805565399803115
0.472000000000000253,-8.158238932851066494
0.473000000000000254,-8.097526184119747228
0.474000000000000254,-8.036673842464569617
0.475000000000000255,-7.975688633558640106
0.476000000000000256,-7.914577475528989048
0.477000000000000257,-7.853347468985404589
0.478000000000000258,-7.792005887056231650
0.479000000000000259,-7.730560165448042476
0.480000000000000260,-7.669017892544952808
0.481000000000000261,-7.607386799562486424
0.482000000000000262,-7.545674750770080763
0.483000000000000262,-7.483889733795469290
0.484000000000000263,-7.422039850023113949
0.485000000000000264,-7.360133305098427670
0.486000000000000265,-7.298178399548423734
0.487000000000000266,-7.236183519528791130
0.488000000000000267,-7.174157127706716430
0.489000000000000268,-7.112107754288009787
0.490000000000000269,-7.050043988196337708
0.491000000000000270,-6.987974468411934481
0.492000000000000270,-6.925907875476208453
0.493000000000000271,-6.863852923168403564
0.494000000000000272,-6.801818350359650545
0.495000000000000273,-6.739812913049196830
0.496000000000000274,-6.677845376587287163
0.497000000000000275,-6.615924508088339095
0.498000000000000276,-6.554059069037836416
0.499000000000000277,-6.492257808095766691
0.500000000000000222,-6.430529454098916631
0.501000000000000334,-6.368882709264149788
0.502000000000000224,-6.307326242594156085
0.503000000000000336,-6.245868683486757611
0.504000000000000226,-6.184518615548865839
0.505000000000000338,-6.123284570615173728
0.506000000000000227,-6.062175022972179583
0.507000000000000339,-6.001198383786897850
0.508000000000000229,-5.940362995740244401
0.509000000000000341,-5.879677127863908837
0.510000000000000231,-5.819148970580219959
0.511000000000000343,-5.758786630943222740
0.512000000000000233,-5.698598128079969349
0.513000000000000345,-5.638591388829896189
0.514000000000000234,-5.578774243580901349
0.515000000000000346,-5.519154422299426876
0.516000000000000236,-5.459739550752926718
0.517000000000000348,-5.400537146921744025
0.518000000000000238,-5.341554617598322174
0.519000000000000350,-5.282799255170592900
0.520000000000000240,-5.224278234587086622
0.521000000000000352,-5.165998610500587951
0.522000000000000242,-5.107967314587426699
0.523000000000000353,-5.050191153039098602
0.524000000000000243,-4.992676804223181719
0.525000000000000355,-4.935430816510061547
0.526000000000000245,-4.878459606262266490
0.527000000000000357,-4.821769455982726882
0.528000000000000247,-4.765366512618827599
0.529000000000000359,-4.709256786018321428
0.530000000000000249,-4.653446147533911059
0.531000000000000361,-4.597940328772568641
0.532000000000000250,-4.542744920486312843
0.533000000000000362,-4.487865371600445741
0.534000000000000252,-4.433306988375930402
0.535000000000000364,-4.379074933701989636
0.536000000000000254,-4.325174226515537512
0.537000000000000366,-4.271609741343427302
0.538000000000000256,-4.218386207964361034
0.539000000000000368,-4.165508211186291554
0.540000000000000258,-4.112980190736250208
0.541000000000000369,-4.060806441258469235
0.542000000000000259,-4.008991112417788827
0.543000000000000371,-3.957538209104290328
0.544000000000000261,-3.906451591736067375
0.545000000000000373,-3.855734976656393087
0.546000000000000263,-3.805391936622096516
0.547000000000000375,-3.755425901379363829
0.548000000000000265,-3.705840158324237965
0.549000000000000377,-3.656637853243772440
0.550000000000000266,-3.607821991135263140
0.551000000000000378,-3.559395437099846848
0.552000000000000268,-3.511360917307619012
0.553000000000000380,-3.463721020030971598
0.554000000000000270,-3.416478196743289342
0.555000000000000382,-3.369634763279724332
0.556000000000000272,-3.323192901057480775
0.557000000000000384,-3.277154658352290362
0.558000000000000274,-3.231521951628688161
0.559000000000000385,-3.186296566920877815
0.560000000000000275,-3.141480161261887449
0.561000000000000387,-3.097074264157996026
0.562000000000000277,-3.053080279106091144
0.563000000000000389,-3.009499485151260423
0.564000000000000279,-2.966333038482241502
0.565000000000000391,-2.923581974062209987
0.566000000000000281,-2.881247207292650714
0.567000000000000393,-2.839329535707871610
0.568000000000000282,-2.797829640698136888
0.569000000000000394,-2.756748089258906909
0.570000000000000284,-2.716085335764452768
0.571000000000000396,-2.675841723763394686
0.572000000000000286,-2.636017487794511727
0.573000000000000398,-2.596612755220512270
0.574000000000000288,-2.557627548078218904
0.575000000000000400,-2.519061784943053883
0.576000000000000290,-2.480915282806239297
0.577000000000000401,-2.443187758962830358
0.578000000000000291,-2.405878832909054132
0.579000000000000403,-2.368988028247194677
0.580000000000000293,-2.332514774596632368
0.581000000000000405,-2.296458409509294807
0.582000000000000295,-2.260818180388348253
0.583000000000000407,-2.225593246408430481
0.584000000000000297,-2.190782680436303309
0.585000000000000409,-2.156385470950443750
0.586000000000000298,-2.122400523958483110
0.587000000000000410,-2.088826664911077380
0.588000000000000300,-2.055662640611281677
0.589000000000000412,-2.022907121118062701
0.590000000000000302,-1.990558701643097450
0.591000000000000414,-1.958615904439694022
0.592000000000000304,-1.927077180682905233
0.593000000000000416,-1.895940912339829865
0.594000000000000306,-1.865205414029335262
0.595000000000000417,-1.834868934870162338
0.596000000000000307,-1.804929660316750617
0.597000000000000419,-1.775385713981889824
0.598000000000000309,-1.746235159445555185
0.599000000000000421,-1.717476002049084682
0.600000000000000311,-1.689106190674213748
0.601000000000000423,-1.661123619506108540
0.602000000000000313,-1.633526129780064506
0.603000000000000425,-1.606311511510968959
0.604000000000000314,-1.579477505205398202
0.605000000000000426,-1.553021803555420410
0.606000000000000316,-1.526942053114015874
0.607000000000000428,-1.501235855951361442
0.608000000000000318,-1.475900771291829283
0.609000000000000430,-1.450934317131068907
0.610000000000000320,-1.426333971833067427
0.611000000000000432,-1.402097175706608745
0.612000000000000322,-1.378221332561052836
0.613000000000000433,-1.354703811240980160
0.614000000000000323,-1.331541947139573301
0.615000000000000435,-1.308733043690420317
0.616000000000000325,-1.286274373837591911
0.617000000000000437,-1.264163181483750620
0.618000000000000327,-1.242396682916207862
0.619000000000000439,-1.220972068210669281
0.620000000000000329,-1.199886502612671713
0.621000000000000441,-1.179137127896521031
0.622000000000000330,-1.158721063701681597
0.623000000000000442,-1.138635408846519592
0.624000000000000332,-1.118877242619408241
0.625000000000000444,-1.099443626047085232
0.626000000000000334,-1.080331603140317842
0.627000000000000446,-1.061538202116806495
0.628000000000000336,-1.043060436601398910
0.629000000000000448,-1.024895306803585759
0.630000000000000338,-1.007039800672390850
0.631000000000000449,-0.989490895028607098
0.632000000000000339,-0.972245556674551592
0.633000000000000451,-0.955300743481330983
0.634000000000000341,-0.938653405453774070
0.635000000000000453,-0.922300485773078771
0.636000000000000343,-0.906238921817307364
0.637000000000000455,-0.890465646159855906
0.638000000000000345,-0.874977587546040381
0.639000000000000457,-0.859771671847857410
0.640000000000000346,-0.844844822997215972
0.641000000000000458,-0.830193963897624343
0.642000000000000348,-0.815816017314654474
0.643000000000000460,-0.801707906745211973
0.644000000000000350,-0.787866557265927026
0.645000000000000462,-0.774288896360716405
0.646000000000000352,-0.760971854727838681
0.647000000000000464,-0.747912367066489114
0.648000000000000353,-0.735107372843329943
0.649000000000000465,-0.722553817038927737
0.650000000000000355,-0.710248650874552023
0.651000000000000467,-0.698188832519335723
0.652000000000000357,-0.686371327778187434
0.653000000000000469,-0.674793110760552151
0.654000000000000359,-0.663451164530354354
0.655000000000000471,-0.652342481737240965
0.656000000000000361,-0.641464065229491065
0.657000000000000473,-0.630812928648677551
0.658000000000000362,-0.620386097006473736
0.659000000000000474,-0.610180607243704265
0.660000000000000364,-0.600193508772011608
