# CNT15-OH-4_CS-8373112-AC
# h[nm],U(h)[kJ/mol]
0.149999999999999994,121.042477366617021062
0.150999999999999995,118.414631172562621941
0.151999999999999996,116.806810700031633132
0.152999999999999997,115.421254895965788023
0.153999999999999998,113.962496063539219904
0.154999999999999999,112.372817501661273809
0.156000000000000000,110.688723045063994732
0.157000000000000001,108.968901487537095818
0.158000000000000002,107.262721031642215053
0.159000000000000002,105.600358038360496948
0.160000000000000003,103.993394816868359953
0.161000000000000004,102.439578051731061237
0.162000000000000005,100.928406516846138175
0.163000000000000006,99.445982506062790662
0.164000000000000007,97.978561235495163828
0.165000000000000008,96.514759496117491722
0.166000000000000009,95.046629292891140040
0.167000000000000010,93.569885360730381763
0.168000000000000010,92.083572842090504196
0.169000000000000011,90.589418688602847851
0.170000000000000012,89.091053918486480256
0.171000000000000013,87.593238018038135806
0.172000000000000014,86.101168398438375107
0.173000000000000015,84.619919421498792644
0.174000000000000016,83.154027180714734868
0.175000000000000017,81.707216843578876819
0.176000000000000018,80.282257314539947401
0.177000000000000018,78.880921576235678572
0.178000000000000019,77.504028761702500105
0.179000000000000020,76.151544491947021243
0.180000000000000021,74.822718235328267156
0.181000000000000022,73.516239612827405381
0.182000000000000023,72.230399111663700751
0.183000000000000024,70.963242185710214471
0.184000000000000025,69.712708964930556021
0.185000000000000026,68.476754626202279042
0.186000000000000026,67.253447831734348483
0.187000000000000027,66.041046510614592080
0.188000000000000028,64.838051671065528581
0.189000000000000029,63.643240933994604802
0.190000000000000030,62.455684131120548841
0.191000000000000031,61.274743675134551779
0.192000000000000032,60.100062544941877718
0.193000000000000033,58.931542691013554247
0.194000000000000034,57.769316502638545785
0.195000000000000034,56.613713731460720169
0.196000000000000035,55.465225967846564004
0.197000000000000036,54.324470445163456134
0.198000000000000037,53.192154622519481677
0.199000000000000038,52.069042684033810531
0.200000000000000039,50.955924802784352323
0.201000000000000040,49.853589756926403709
0.202000000000000041,48.762801257783380038
0.203000000000000042,47.684278156313546049
0.204000000000000042,46.618678534825349402
0.205000000000000043,45.566587563464153732
0.206000000000000044,44.528508903278350317
0.207000000000000045,43.504859366535853837
0.208000000000000046,42.495966497077432678
0.209000000000000047,41.502068705479089772
0.210000000000000048,40.523317582348866495
0.211000000000000049,39.559782015095386498
0.212000000000000050,38.611453746109468455
0.213000000000000050,37.678254030941516817
0.214000000000000051,36.760041081473815439
0.215000000000000052,35.856618009348771636
0.216000000000000053,34.967741017382437008
0.217000000000000054,34.093127620023295776
0.218000000000000055,33.232464707022380423
0.219000000000000056,32.385416296516225998
0.220000000000000057,31.551630854044553587
0.221000000000000058,30.730748082176496894
0.222000000000000058,29.922405111087602592
0.223000000000000059,29.126242043446545438
0.224000000000000060,28.341906827255570533
0.225000000000000061,27.569059447857689804
0.226000000000000062,26.807375445254375990
0.227000000000000063,26.056548775296715093
0.228000000000000064,25.316294043385390466
0.229000000000000065,24.586348147227617744
0.230000000000000066,23.866471371156418257
0.231000000000000066,23.156447978725740455
0.232000000000000067,22.456086352966519115
0.233000000000000068,21.765218735024760122
0.234000000000000069,21.083700612101235805
0.235000000000000070,20.411409804855971117
0.236000000000000071,19.748245302902049048
0.237000000000000072,19.094125894845603852
0.238000000000000073,18.448988636676791231
0.239000000000000073,17.812787199305017083
0.240000000000000074,17.185490132768471483
0.241000000000000075,16.567079081235625893
0.242000000000000076,15.957546979432638778
0.243000000000000077,15.356896257646733162
0.244000000000000078,14.765137079032218281
0.245000000000000079,14.182285629626116830
0.246000000000000080,13.608362478306705867
0.247000000000000081,13.043391020924611112
0.248000000000000081,12.487396020028473487
0.249000000000000082,11.940402249007094682
0.250000000000000111,11.402433247087138568
0.251000000000000112,10.873510189464600018
0.252000000000000113,10.353650874906795920
0.253000000000000114,9.842868831440432231
0.254000000000000115,9.341172539227653004
0.255000000000000115,8.848564768423475613
0.256000000000000116,8.365042028689979148
0.257000000000000117,7.890594126105267669
0.258000000000000118,7.425203822437008050
0.259000000000000119,6.968846591135846147
0.260000000000000120,6.521490463932197557
0.261000000000000121,6.083095961577312139
0.262000000000000122,5.653616102041789659
0.263000000000000123,5.232996479361327502
0.264000000000000123,4.821175406286123177
0.265000000000000124,4.418084113937379875
0.266000000000000125,4.023647001789404598
0.267000000000000126,3.637781931469626695
0.268000000000000127,3.260400558090803536
0.269000000000000128,2.891408693092893500
0.270000000000000129,2.530706692866325547
0.271000000000000130,2.178189867747609476
0.272000000000000131,1.833748906316328142
0.273000000000000131,1.497270310272001081
0.274000000000000132,1.168636835526854600
0.275000000000000133,0.847727935509770547
0.276000000000000134,0.534420203034861041
0.277000000000000135,0.228587807441962360
0.278000000000000136,-0.069897075939058029
0.279000000000000137,-0.361163846612590489
0.280000000000000138,-0.645343072319594313
0.281000000000000139,-0.922566096998954643
0.282000000000000139,-1.192964664994556667
0.283000000000000140,-1.456670562917685485
0.284000000000000141,-1.713815280313192968
0.285000000000000142,-1.964529690034722220
0.286000000000000143,-2.208943749007988622
0.287000000000000144,-2.447186219852438782
0.288000000000000145,-2.679384413640752971
0.289000000000000146,-2.905663953900419205
0.290000000000000147,-3.126148561804774850
0.291000000000000147,-3.340959862358176657
0.292000000000000148,-3.550217211254456551
0.293000000000000149,-3.754037541975324022
0.294000000000000150,-3.952535232598448633
0.295000000000000151,-4.145821991700179510
0.296000000000000152,-4.334006762666271939
0.297000000000000153,-4.517195645663622194
0.298000000000000154,-4.695491836477017067
0.299000000000000155,-4.868995581375612502
0.300000000000000155,-5.037804147144184341
0.301000000000000156,-5.202011805392841026
0.302000000000000157,-5.361709830245777297
0.303000000000000158,-5.516986508503094022
0.304000000000000159,-5.667927161369996192
0.305000000000000160,-5.814614176853533323
0.306000000000000161,-5.957127051938014617
0.307000000000000162,-6.095542443665886267
0.308000000000000163,-6.229934228270108676
0.309000000000000163,-6.360373567527103589
0.310000000000000164,-6.486928981525243110
0.311000000000000165,-6.609666427071891448
0.312000000000000166,-6.728649380992607121
0.313000000000000167,-6.843938927607884359
0.314000000000000168,-6.955593849706090737
0.315000000000000169,-7.063670722365491983
0.316000000000000170,-7.168224009013104414
0.317000000000000171,-7.269306159143122059
0.318000000000000171,-7.366967707153145639
0.319000000000000172,-7.461257371791665705
0.320000000000000173,-7.552222155744980903
0.321000000000000174,-7.639907444926255842
0.322000000000000175,-7.724357107063285710
0.323000000000000176,-7.805613589214416947
0.324000000000000177,-7.883718013874402963
0.325000000000000178,-7.958710273362873622
0.326000000000000179,-8.030629122218652327
0.327000000000000179,-8.099512267351702377
0.328000000000000180,-8.165396455732578218
0.329000000000000181,-8.228317559425899930
0.330000000000000182,-8.288310657799419445
0.331000000000000183,-8.345410116764856667
0.332000000000000184,-8.399649664928954707
0.333000000000000185,-8.451062466555217867
0.334000000000000186,-8.499681191256774682
0.335000000000000187,-8.545538080359950328
0.336000000000000187,-8.588665009896054414
0.337000000000000188,-8.629093550195015894
0.338000000000000189,-8.666855022070448555
0.339000000000000190,-8.701980549599575454
0.340000000000000191,-8.734501109514493322
0.341000000000000192,-8.764447577233575259
0.342000000000000193,-8.791850769572418400
0.343000000000000194,-8.816741484184024813
0.344000000000000195,-8.839150535786384211
0.345000000000000195,-8.859108789244363180
0.346000000000000196,-8.876647189579276898
0.347000000000000197,-8.891796788986310318
0.348000000000000198,-8.904588770945339959
0.349000000000000199,-8.915054471515370338
0.350000000000000200,-8.923225397907126322
0.351000000000000201,-8.929133244431485039
0.352000000000000202,-8.932809905924317562
0.353000000000000203,-8.934287488750545236
0.354000000000000203,-8.933598319491835582
0.355000000000000204,-8.930774951423289920
0.356000000000000205,-8.925850168885503422
0.357000000000000206,-8.918856989658413781
0.358000000000000207,-8.909828665442944384
0.359000000000000208,-8.898798680556456731
0.360000000000000209,-8.885800748946660832
0.361000000000000210,-8.870868809627641127
0.362000000000000210,-8.854037020640252109
0.363000000000000211,-8.835339751637281580
0.364000000000000212,-8.814811575192070592
0.365000000000000213,-8.792487256926857953
0.366000000000000214,-8.768401744555140098
0.367000000000000215,-8.742590155929589102
0.368000000000000216,-8.715087766184790752
0.369000000000000217,-8.685929994061043047
0.370000000000000218,-8.655152387493036059
0.371000000000000218,-8.622790608543960289
0.372000000000000219,-8.588880417763091302
0.373000000000000220,-8.553457658041619283
0.374000000000000221,-8.516558238038669515
0.375000000000000222,-8.478218115246267672
0.376000000000000223,-8.438473278759285989
0.377000000000000224,-8.397359731813040185
0.378000000000000225,-8.354913474148403907
0.379000000000000226,-8.311170484261293012
0.380000000000000226,-8.266166701590456967
0.381000000000000227,-8.219938008694366971
0.382000000000000228,-8.172520213465563899
0.383000000000000229,-8.123949031427539325
0.384000000000000230,-8.074260068156686287
0.385000000000000231,-8.023488801869298470
0.386000000000000232,-7.971670566210536713
0.387000000000000233,-7.918840533280222083
0.388000000000000234,-7.865033696927254070
0.389000000000000234,-7.810284856342660120
0.390000000000000235,-7.754628599978244274
0.391000000000000236,-7.698099289816150659
0.392000000000000237,-7.640731046011976169
0.393000000000000238,-7.582557731932264566
0.394000000000000239,-7.523612939604964467
0.395000000000000240,-7.463929975599612021
0.396000000000000241,-7.403541847352092198
0.397000000000000242,-7.342481249946837707
0.398000000000000242,-7.280780553367995012
0.399000000000000243,-7.218471790229027185
0.400000000000000244,-7.155586643988849360
0.401000000000000245,-7.092156437661211399
0.402000000000000246,-7.028212123022330005
0.403000000000000247,-6.963784270320678260
0.404000000000000248,-6.898903058491486995
0.405000000000000249,-6.833598265877276035
0.406000000000000250,-6.767899261454618731
0.407000000000000250,-6.701834996566333302
0.408000000000000251,-6.635433997157187846
0.409000000000000252,-6.568724356510389661
0.410000000000000253,-6.501733728481136509
0.411000000000000254,-6.434489321222775615
0.412000000000000255,-6.367017891400329255
0.413000000000000256,-6.299345738885465451
0.414000000000000257,-6.231498701926224015
0.415000000000000258,-6.163502152784476884
0.416000000000000258,-6.095380993833222405
0.417000000000000259,-6.027159654105574305
0.418000000000000260,-5.958862086286743853
0.419000000000000261,-5.890511764139894524
0.420000000000000262,-5.822131680356429584
0.421000000000000263,-5.753744344820936440
0.422000000000000264,-5.685371783280658953
0.423000000000000265,-5.617035536409192176
0.424000000000000266,-5.548756659253939461
0.425000000000000266,-5.480555721056437513
0.426000000000000267,-5.412452805434815772
0.427000000000000268,-5.344467510917317199
0.428000000000000269,-5.276618951815752467
0.429000000000000270,-5.208925759427868840
0.430000000000000271,-5.141406083557200191
0.431000000000000272,-5.074077594339374997
0.432000000000000273,-5.006957484363526945
0.433000000000000274,-4.940062471077703243
0.434000000000000274,-4.873408799466993457
0.435000000000000275,-4.807012244993406291
0.436000000000000276,-4.740888116786417861
0.437000000000000277,-4.675051261073209119
0.438000000000000278,-4.609516064837880123
0.439000000000000279,-4.544296459698903945
0.440000000000000280,-4.479405925994194959
0.441000000000000281,-4.414857497063455760
0.442000000000000282,-4.350663763717529164
0.443000000000000282,-4.286836878884581203
0.444000000000000283,-4.223388562423300741
0.445000000000000284,-4.160330106093310221
0.446000000000000285,-4.097672378673152593
0.447000000000000286,-4.035425831216728376
0.448000000000000287,-3.973600502438704218
0.449000000000000288,-3.912206024220246547
0.450000000000000289,-3.851251627226060403
0.451000000000000290,-3.790746146624376145
0.452000000000000290,-3.730698027901492075
0.453000000000000291,-3.671115332762737715
0.454000000000000292,-3.612005745112041755
0.455000000000000293,-3.553376577102332678
0.456000000000000294,-3.495234775249411285
0.457000000000000295,-3.437586926602038684
0.458000000000000296,-3.380439264961163648
0.459000000000000297,-3.323797677141636875
0.460000000000000298,-3.267667709269659326
0.461000000000000298,-3.212054573109798472
0.462000000000000299,-3.156963152415312557
0.463000000000000300,-3.102398009295866288
0.464000000000000301,-3.048363390596997569
0.465000000000000302,-2.994863234285813025
0.466000000000000303,-2.941901175837551285
0.467000000000000304,-2.889480554618026442
0.468000000000000305,-2.837604420257033411
0.469000000000000306,-2.786275539007980306
0.470000000000000306,-2.735496400089409086
0.471000000000000307,-2.685269222003887624
0.472000000000000308,-2.635595958830418528
0.473000000000000309,-2.586478306486233336
0.474000000000000310,-2.537917708954410489
0.475000000000000311,-2.489915364473579640
0.476000000000000312,-2.442472231686600992
0.477000000000000313,-2.395589035744673190
0.478000000000000314,-2.349266274364099516
0.479000000000000314,-2.303504223832746778
0.480000000000000315,-2.258302944963394676
0.481000000000000316,-2.213662288991580240
0.482000000000000317,-2.169581903415351398
0.483000000000000318,-2.126061237774804269
0.484000000000000319,-2.083099549369177073
0.485000000000000320,-2.040695908909618161
0.486000000000000321,-1.998849206105689280
0.487000000000000322,-1.957558155183964477
0.488000000000000322,-1.916821300337036460
0.489000000000000323,-1.876637021101629887
0.490000000000000324,-1.837003537664301689
0.491000000000000325,-1.797918916093618424
0.492000000000000326,-1.759381073497612080
0.493000000000000327,-1.721387783105586822
0.494000000000000328,-1.683936679273307035
0.495000000000000329,-1.647025262410792390
0.496000000000000330,-1.610650903831997383
0.497000000000000330,-1.574810850525795836
0.498000000000000331,-1.539502229847665049
0.499000000000000332,-1.504722054131774955
0.500000000000000333,-1.470467225222984453
0.501000000000000334,-1.436734538928534866
0.502000000000000335,-1.403520689389260667
0.503000000000000336,-1.370822273370180477
0.504000000000000337,-1.338635794470381724
0.505000000000000338,-1.306957667252266031
0.506000000000000338,-1.275784221290219511
0.507000000000000339,-1.245111705138810532
0.508000000000000340,-1.214936290220756998
0.509000000000000341,-1.185254074634943366
0.510000000000000342,-1.156061086884711653
0.511000000000000343,-1.127353289526869862
0.512000000000000344,-1.099126582741767111
0.513000000000000345,-1.071376807824931721
0.514000000000000346,-1.044099750600758103
0.515000000000000346,-1.017291144758758925
0.516000000000000347,-0.990946675112957975
0.517000000000000348,-0.965061980785123952
0.518000000000000349,-0.939632658312326563
0.519000000000000350,-0.914654264679666817
0.520000000000000351,-0.890122320278771029
0.521000000000000352,-0.866032311792855003
0.522000000000000353,-0.842379695009094043
0.523000000000000353,-0.819159897559064154
0.524000000000000354,-0.796368321588149630
0.525000000000000355,-0.774000346354642987
0.526000000000000356,-0.752051330759456294
0.527000000000000357,-0.730516615807345948
0.528000000000000358,-0.709391527000388322
0.529000000000000359,-0.688671376664838908
0.530000000000000360,-0.668351466212049661
0.531000000000000361,-0.648427088334564417
0.532000000000000361,-0.628893529138193630
0.533000000000000362,-0.609746070211118485
0.534000000000000363,-0.590979990630903229
0.535000000000000364,-0.572590568910421704
0.536000000000000365,-0.554573084883653200
0.537000000000000366,-0.536922821532338057
0.538000000000000367,-0.519635066754413399
0.539000000000000368,-0.502705115075328002
0.540000000000000369,-0.486128269303057192
0.541000000000000369,-0.469899842127966927
0.542000000000000370,-0.454015157668389957
0.543000000000000371,-0.438469552962945097
0.544000000000000372,-0.423258379410601293
0.545000000000000373,-0.408377004159436396
0.546000000000000374,-0.393820811445059982
0.547000000000000375,-0.379585203879707844
0.548000000000000376,-0.365665603692978958
0.549000000000000377,-0.352057453925141206
0.550000000000000377,-0.338756219573989659
0.551000000000000378,-0.325757388696235051
0.552000000000000379,-0.313056473464328411
0.553000000000000380,-0.300649011179704773
0.554000000000000381,-0.288530565243332260
0.555000000000000382,-0.276696726084566358
0.556000000000000383,-0.265143112049127994
0.557000000000000384,-0.253865370247238764
0.558000000000000385,-0.242859177362686834
0.559000000000000385,-0.232120240423831309
0.560000000000000386,-0.221644297537345103
0.561000000000000387,-0.211427118585621271
0.562000000000000388,-0.201464505888676204
0.563000000000000389,-0.191752294831433356
0.564000000000000390,-0.182286354457201039
0.565000000000000391,-0.173062588028202791
0.566000000000000392,-0.164076933553958998
0.567000000000000393,-0.155325364288371043
0.568000000000000393,-0.146803889196256365
0.569000000000000394,-0.138508553390166655
0.570000000000000395,-0.130435438538254400
0.571000000000000396,-0.122580663243935017
0.572000000000000397,-0.114940383398161566
0.573000000000000398,-0.107510792504952851
0.574000000000000399,-0.100288121981038980
0.575000000000000400,-0.093268641430213614
0.576000000000000401,-0.086448658893194599
0.577000000000000401,-0.079824521073675311
0.578000000000000402,-0.073392613541215401
0.579000000000000403,-0.067149360911658990
0.580000000000000404,-0.061091227005798873
0.581000000000000405,-0.055214714986846158
0.582000000000000406,-0.049516367477417868
0.583000000000000407,-0.043992766656640557
0.584000000000000408,-0.038640534337982695
0.585000000000000409,-0.033456332028429694
0.586000000000000409,-0.028436860969606181
0.587000000000000410,-0.023578862161403164
0.588000000000000411,-0.018879116368690212
0.589000000000000412,-0.014334444111697342
0.590000000000000413,-0.009941705640562676
0.591000000000000414,-0.005697800894631655
0.592000000000000415,-0.001599669447020863
0.593000000000000416,0.002355709565064018
0.594000000000000417,0.006171317523719344
0.595000000000000417,0.009850096426940496
0.596000000000000418,0.013394948998013845
0.597000000000000419,0.016808738807118594
0.598000000000000420,0.020094290404789605
0.599000000000000421,0.023254389466702254
0.600000000000000422,0.026291782949383658
0.601000000000000423,0.029209179256412754
0.602000000000000424,0.032009248414672085
0.603000000000000425,0.034694622260246298
0.604000000000000425,0.037267894633574924
0.605000000000000426,0.039731621583464868
0.606000000000000427,0.042088321579526376
0.607000000000000428,0.044340475732803322
0.608000000000000429,0.046490528023989765
0.609000000000000430,0.048540885539179748
0.610000000000000431,0.050493918712507899
0.611000000000000432,0.052351961575554551
0.612000000000000433,0.054117312013106302
0.613000000000000433,0.055792232024907518
