# CNT15-OH-4_FURAN-AC
# h[nm],U(h)[kJ/mol]
0.200000000000000011,66.312320314687013934
0.201000000000000012,65.109983207980221209
0.202000000000000013,63.867885989548724979
0.203000000000000014,62.623749170795250052
0.204000000000000015,61.391236984948740485
0.205000000000000016,60.171980538718663922
0.206000000000000016,58.962719963913990284
0.207000000000000017,57.759255134961485112
0.208000000000000018,56.558376222003673206
0.209000000000000019,55.358572086207331608
0.210000000000000020,54.160048461103166062
0.211000000000000021,52.964400521508721909
0.212000000000000022,51.774154473798901677
0.213000000000000023,50.592304286571433636
0.214000000000000024,49.421910809278287502
0.215000000000000024,48.265792593261650723
0.216000000000000025,47.126314365085683278
0.217000000000000026,46.005265684439372365
0.218000000000000027,44.903815528314979133
0.219000000000000028,43.822526023393535866
0.220000000000000029,42.761408651735500541
0.221000000000000030,41.720007849718342641
0.222000000000000031,40.697499248574423802
0.223000000000000032,39.692792375237345937
0.224000000000000032,38.704630140550378314
0.225000000000000033,37.731679714139410464
0.226000000000000034,36.772611335174893554
0.227000000000000035,35.826163207241471298
0.228000000000000036,34.891191881172048284
0.229000000000000037,33.966708470729955138
0.230000000000000038,33.051901712095386188
0.231000000000000039,32.146149312954904076
0.232000000000000040,31.249019284025315812
0.233000000000000040,30.360263045528750325
0.234000000000000041,29.479802089543873933
0.235000000000000042,28.607709887339318300
0.236000000000000043,27.744190584685867407
0.237000000000000044,26.889555848815813732
0.238000000000000045,26.044201034784151716
0.239000000000000046,25.208581639227809035
0.240000000000000047,24.383190815304324417
0.241000000000000048,23.568538540534792247
0.242000000000000048,22.765132863701861510
0.243000000000000049,21.973463510378454799
0.244000000000000050,21.193988000196927857
0.245000000000000051,20.427120322642061012
0.246000000000000052,19.673222131240652999
0.247000000000000053,18.932596347243933366
0.248000000000000054,18.205483011643213587
0.249000000000000055,17.492057186810143321
0.250000000000000056,16.792428684318899457
0.251000000000000056,16.106643381708167340
0.252000000000000057,15.434685886265574695
0.253000000000000058,14.776483306675959994
0.254000000000000059,14.131909902015669545
0.255000000000000060,13.500792390713282742
0.256000000000000061,12.882915718506790625
0.257000000000000062,12.278029103053519577
0.258000000000000063,11.685852192791596593
0.259000000000000064,11.106081198162440771
0.260000000000000064,10.538394873770679183
0.261000000000000065,9.982460249993964752
0.262000000000000066,9.437938031582023157
0.263000000000000067,8.904487598624003297
0.264000000000000068,8.381771561716963248
0.265000000000000069,7.869459838110770988
0.266000000000000070,7.367233228970265557
0.267000000000000071,6.874786489664003852
0.268000000000000071,6.391830895184159367
0.269000000000000072,5.918096311473290960
0.270000000000000073,5.453332790658261153
0.271000000000000074,4.997311714060630905
0.272000000000000075,4.549826511470099533
0.273000000000000076,4.110692988645384460
0.274000000000000077,3.679749297457675539
0.275000000000000078,3.256855584631829004
0.276000000000000079,2.841893355781512032
0.277000000000000079,2.434764591484023910
0.278000000000000080,2.035390651604309209
0.279000000000000081,1.643711003048306862
0.280000000000000082,1.259681804696403562
0.281000000000000083,0.883274381517173746
0.282000000000000084,0.514473617865953026
0.283000000000000085,0.153276297797312833
0.284000000000000086,-0.200310582076505261
0.285000000000000087,-0.546271504014093523
0.286000000000000087,-0.884584104084427336
0.287000000000000088,-1.215220812218724689
0.288000000000000089,-1.538150441307939431
0.289000000000000090,-1.853339711540067380
0.290000000000000091,-2.160754698338203106
0.291000000000000092,-2.460362194318625129
0.292000000000000093,-2.752130977622579522
0.293000000000000094,-3.036032980778885282
0.294000000000000095,-3.312044355919748106
0.295000000000000095,-3.580146433697311004
0.296000000000000096,-3.840326574630847922
0.297000000000000097,-4.092578912857339546
0.298000000000000098,-4.336904993362651339
0.299000000000000099,-4.573314304742035041
0.300000000000000100,-4.801824710381496608
0.301000000000000101,-5.022462781673303844
0.302000000000000102,-5.235264037484315125
0.303000000000000103,-5.440273094595012182
0.304000000000000103,-5.637543734224435887
0.305000000000000104,-5.827138890062502519
0.306000000000000105,-6.009130563452036000
0.307000000000000106,-6.183599671506939011
0.308000000000000107,-6.350635834027936966
0.309000000000000108,-6.510337105089815779
0.310000000000000109,-6.662809655132424957
0.311000000000000110,-6.808167409296666861
0.312000000000000111,-6.946531647615463712
0.313000000000000111,-7.078030572501066153
0.314000000000000112,-7.202798848772443918
0.315000000000000113,-7.320977121243414487
0.316000000000000114,-7.432711514649172457
0.317000000000000115,-7.538153120430031606
0.318000000000000116,-7.637457474620873654
0.319000000000000117,-7.730784030816375108
0.320000000000000118,-7.818295631898787512
0.321000000000000119,-7.900157983930407468
0.322000000000000119,-7.976539135328346575
0.323000000000000120,-8.047608964158209588
0.324000000000000121,-8.113538676107335590
0.325000000000000122,-8.174500315428680608
0.326000000000000123,-8.230666290885285008
0.327000000000000124,-8.282208918473406456
0.328000000000000125,-8.329299982460963037
0.329000000000000126,-8.372110316047416845
0.330000000000000127,-8.410809402732670748
0.331000000000000127,-8.445564999275971374
0.332000000000000128,-8.476542780931755061
0.333000000000000129,-8.503906009467957716
0.334000000000000130,-8.527815224303241237
0.335000000000000131,-8.548427956943692507
0.336000000000000132,-8.565898468755168693
0.337000000000000133,-8.580377511976184479
0.338000000000000134,-8.592012113756215541
0.339000000000000135,-8.600945382895892166
0.340000000000000135,-8.607316338868658434
0.341000000000000136,-8.611259762616668922
0.342000000000000137,-8.612906068537606430
0.343000000000000138,-8.612381197012428657
0.344000000000000139,-8.609806526766826451
0.345000000000000140,-8.605298806310504034
0.346000000000000141,-8.598970103657874731
0.347000000000000142,-8.590927773501141118
0.348000000000000143,-8.581274440980976692
0.349000000000000143,-8.570108001181088397
0.350000000000000144,-8.557521633460137167
0.351000000000000145,-8.543603829727079102
0.352000000000000146,-8.528438435764254422
0.353000000000000147,-8.512104704704915648
0.354000000000000148,-8.494677361779052305
0.355000000000000149,-8.476226679451961843
0.356000000000000150,-8.456818562094388980
0.357000000000000151,-8.436514639340201072
0.358000000000000151,-8.415372367307632828
0.359000000000000152,-8.393445136882277779
0.360000000000000153,-8.370782388284551345
0.361000000000000154,-8.347429731170162626
0.362000000000000155,-8.323429069539752589
0.363000000000000156,-8.298818730762466345
0.364000000000000157,-8.273633598047620552
0.365000000000000158,-8.247905245729302948
0.366000000000000159,-8.221662076758907034
0.367000000000000159,-8.194929461832145989
0.368000000000000160,-8.167729879608019772
0.369000000000000161,-8.140083057508302744
0.370000000000000162,-8.112006112617166309
0.371000000000000163,-8.083513692231202086
0.372000000000000164,-8.054618113640099608
0.373000000000000165,-8.025329502748267174
0.374000000000000166,-7.995655931176420594
0.375000000000000167,-7.965603551510666236
0.376000000000000167,-7.935176730394276845
0.377000000000000168,-7.904378179183987996
0.378000000000000169,-7.873209081918608021
0.379000000000000170,-7.841669220372845750
0.380000000000000171,-7.809757095993032472
0.381000000000000172,-7.777470048534889102
0.382000000000000173,-7.744804371245098018
0.383000000000000174,-7.711755422450093711
0.384000000000000175,-7.678317733435065406
0.385000000000000175,-7.644485112515570613
0.386000000000000176,-7.610250745222208124
0.387000000000000177,-7.575607290535662841
0.388000000000000178,-7.540546973125948682
0.389000000000000179,-7.505061671564360992
0.390000000000000180,-7.469143002491215100
0.391000000000000181,-7.432782400735464812
0.392000000000000182,-7.395971195394807296
0.393000000000000183,-7.358700681896185536
0.394000000000000183,-7.320962190067388242
0.395000000000000184,-7.282747148260058978
0.396000000000000185,-7.244047143573524750
0.397000000000000186,-7.204853978236974044
0.398000000000000187,-7.165159722215027394
0.399000000000000188,-7.124956762108442199
0.400000000000000189,-7.084237846427794416
0.401000000000000190,-7.042996127323325695
0.402000000000000191,-7.001225198859043708
0.403000000000000191,-6.958919131923194001
0.404000000000000192,-6.916072505871033727
0.405000000000000193,-6.872680436998737541
0.406000000000000194,-6.828738603950069042
0.407000000000000195,-6.784243270159455719
0.408000000000000196,-6.739191303436737890
0.409000000000000197,-6.693580192800230755
0.410000000000000198,-6.647408062665644657
0.411000000000000199,-6.600673684498630678
0.412000000000000199,-6.553376486039246274
0.413000000000000200,-6.505516558206247524
0.414000000000000201,-6.457094659788746860
0.415000000000000202,-6.408112220031978445
0.416000000000000203,-6.358571339223118457
0.417000000000000204,-6.308474787381704196
0.418000000000000205,-6.257826001157942741
0.419000000000000206,-6.206629079040618002
0.420000000000000207,-6.154888774974334176
0.421000000000000207,-6.102610490484332573
0.422000000000000208,-6.049800265404524424
0.423000000000000209,-5.996464767302780885
0.424000000000000210,-5.942611279694825832
0.425000000000000211,-5.888247689135862828
0.426000000000000212,-5.833382471276746806
0.427000000000000213,-5.778024675968694623
0.428000000000000214,-5.722183911498333053
0.429000000000000214,-5.665870328031955339
0.430000000000000215,-5.609094600345384762
0.431000000000000216,-5.551867909913228871
0.432000000000000217,-5.494201926428386784
0.433000000000000218,-5.436108788820272153
0.434000000000000219,-5.377601085837317996
0.435000000000000220,-5.318691836256816963
0.436000000000000221,-5.259394468782305765
0.437000000000000222,-5.199722801686207596
0.438000000000000222,-5.139691022252804053
0.439000000000000223,-5.079313666073979050
0.440000000000000224,-5.018605596247644129
0.441000000000000225,-4.957581982526235720
0.442000000000000226,-4.896258280460333623
0.443000000000000227,-4.834650210579776619
0.444000000000000228,-4.772773737652554971
0.445000000000000229,-4.710645050059293126
0.446000000000000230,-4.648280539318824900
0.447000000000000230,-4.585696779798388079
0.448000000000000231,-4.522910508639565563
0.449000000000000232,-4.459938605929090194
0.450000000000000233,-4.396798075141780338
0.451000000000000234,-4.333506023880572933
0.452000000000000235,-4.270079644937075258
0.453000000000000236,-4.206536197693899304
0.454000000000000237,-4.142892989888542488
0.455000000000000238,-4.079167359756628031
0.456000000000000238,-4.015376658570852797
0.457000000000000239,-3.951538233590234483
0.458000000000000240,-3.887669411432944422
0.459000000000000241,-3.823787481884190154
0.460000000000000242,-3.759909682149699339
0.461000000000000243,-3.696053181563466072
0.462000000000000244,-3.632235066757671937
0.463000000000000245,-3.568472327300907576
0.464000000000000246,-3.504781841810227228
0.465000000000000246,-3.441180364540985526
0.466000000000000247,-3.377684512457602040
0.467000000000000248,-3.314310752787275050
0.468000000000000249,-3.251075391057861363
0.469000000000000250,-3.187994559620006108
0.470000000000000251,-3.125084206653006902
0.471000000000000252,-3.062360085652847896
0.472000000000000253,-2.999837745400371514
0.473000000000000254,-2.937532520406512582
0.474000000000000254,-2.875459521831168708
0.475000000000000255,-2.813633628871420989
0.476000000000000256,-2.752069480614377728
0.477000000000000257,-2.690781468349373373
0.478000000000000258,-2.629783728333602077
0.479000000000000259,-2.569090135005049014
0.480000000000000260,-2.508714294635937758
0.481000000000000261,-2.448669539419602525
0.482000000000000262,-2.388968921983407157
0.483000000000000262,-2.329625210319885564
0.484000000000000263,-2.270650883128041642
0.485000000000000264,-2.212058125556499721
0.486000000000000265,-2.153858825339940886
0.487000000000000266,-2.096064569320014392
0.488000000000000267,-2.038686640341794032
0.489000000000000268,-1.981736014516689792
0.490000000000000269,-1.925223358842462984
0.491000000000000270,-1.869159029171123532
0.492000000000000270,-1.813553068515093569
0.493000000000000271,-1.758415205682249294
0.494000000000000272,-1.703754854230186355
0.495000000000000273,-1.649581111730052285
0.496000000000000274,-1.595902759330468212
0.497000000000000275,-1.542728261611719942
0.498000000000000276,-1.490065766720726659
0.499000000000000277,-1.437923106777188709
0.500000000000000222,-1.386307798541272840
0.501000000000000334,-1.335227044333470392
0.502000000000000224,-1.284687733197154680
0.503000000000000336,-1.234696442294398455
0.504000000000000226,-1.185259438526018450
0.505000000000000338,-1.136382680366364362
0.506000000000000227,-1.088071819904193216
0.507000000000000339,-1.040332205080262584
0.508000000000000229,-0.993168882113228846
0.509000000000000341,-0.946586598104782295
0.510000000000000231,-0.900589803815876500
0.511000000000000343,-0.855182656605197322
0.512000000000000233,-0.810369023522007792
0.513000000000000345,-0.766152484544913359
0.514000000000000234,-0.722536335958936515
0.515000000000000346,-0.679523593862689013
0.516000000000000236,-0.637116997798427009
0.517000000000000348,-0.595319014497149079
0.518000000000000238,-0.554131841731719033
0.519000000000000350,-0.513557412270617020
0.520000000000000240,-0.473597397925585195
0.521000000000000352,-0.434253213686185302
0.522000000000000242,-0.395526021934781369
0.523000000000000353,-0.357416736735365170
0.524000000000000243,-0.319926028190089140
0.525000000000000355,-0.283054326857256400
0.526000000000000245,-0.246801828225004710
0.527000000000000357,-0.211168497234711788
0.528000000000000247,-0.176154072848801191
0.529000000000000359,-0.141758072657258566
0.530000000000000249,-0.107979797517861714
0.531000000000000361,-0.074818336224849791
0.532000000000000250,-0.042272570201311796
0.533000000000000362,-0.010341178210351899
0.534000000000000252,0.020977358919338392
0.535000000000000364,0.051684753558098359
0.536000000000000254,0.081782906534177802
0.537000000000000366,0.111273902391199345
0.538000000000000256,0.140160004647863101
0.539000000000000368,0.168443651063979127
0.540000000000000258,0.196127448916162628
0.541000000000000369,0.223214170286981706
0.542000000000000259,0.249706747370595311
0.543000000000000371,0.275608267798344186
0.544000000000000261,0.300921969987157478
0.545000000000000373,0.325651238513816277
0.546000000000000263,0.349799599517752080
0.547000000000000375,0.373370716135187464
0.548000000000000265,0.396368383966908100
0.549000000000000377,0.418796526582326856
0.550000000000000266,0.440659191061887778
0.551000000000000378,0.461960543580106020
0.552000000000000268,0.482704865031194086
0.553000000000000380,0.502896546699263092
0.554000000000000270,0.522540085974811719
0.555000000000000382,0.541640082119330901
0.556000000000000272,0.560201232079460043
0.557000000000000384,0.578228326352357880
0.558000000000000274,0.595726244903493241
0.559000000000000385,0.612699953138334918
0.560000000000000275,0.629154497928959389
0.561000000000000387,0.645095003696825708
0.562000000000000277,0.660526668552649854
0.563000000000000389,0.675454760494345274
0.564000000000000279,0.689884613663854784
0.565000000000000391,0.703821624663659273
0.566000000000000281,0.717271248933650907
0.567000000000000393,0.730238997188977002
0.568000000000000282,0.742730431919367051
0.569000000000000394,0.754751163950493797
0.570000000000000284,0.766306849067668105
0.571000000000000396,0.777403184702297412
0.572000000000000286,0.788045906681281827
0.573000000000000398,0.798240786039689065
0.574000000000000288,0.807993625896743395
0.575000000000000400,0.817310258395278821
0.576000000000000290,0.826196541704724674
0.577000000000000401,0.834658357087571523
0.578000000000000291,0.842701606029278016
0.579000000000000403,0.850332207431546694
0.580000000000000293,0.857556094868763830
0.581000000000000405,0.864379213907455424
0.582000000000000295,0.870807519488512427
0.583000000000000407,0.876846973371907423
0.584000000000000297,0.882503541643610112
0.585000000000000409,0.887783192284322453
0.586000000000000298,0.892691892799703957
0.587000000000000410,0.897235607911616162
0.588000000000000300,0.901420297309995844
0.589000000000000412,0.905251913464858227
0.590000000000000302,0.908736399497944269
0.591000000000000414,0.911879687113446580
0.592000000000000304,0.914687694587350775
0.593000000000000416,0.917166324814728262
0.594000000000000306,0.919321463414438655
0.595000000000000417,0.921158976890607994
0.596000000000000307,0.922684710850288803
0.597000000000000419,0.923904488276583002
0.598000000000000309,0.924824107856607958
0.599000000000000421,0.925449342363651284
0.600000000000000311,0.925785937092734712
0.601000000000000423,0.925839608348965948
0.602000000000000313,0.925616041987890603
0.603000000000000425,0.925120892007191720
0.604000000000000314,0.924359779188886010
0.605000000000000426,0.923338289791389100
0.606000000000000316,0.922061974290601105
0.607000000000000428,0.920536346169303243
0.608000000000000318,0.918766880754069648
0.609000000000000430,0.916759014098918357
0.610000000000000320,0.914518141914959393
0.611000000000000432,0.912049618545190954
0.612000000000000322,0.909358755983743494
0.613000000000000433,0.906450822938700163
0.614000000000000323,0.903331043937771860
0.615000000000000435,0.900004598475984574
0.616000000000000325,0.896476620204649022
0.617000000000000437,0.892752196160753853
0.618000000000000327,0.888836366036057535
0.619000000000000439,0.884734121485056813
0.620000000000000329,0.880450405471058573
0.621000000000000441,0.875990111649566416
0.622000000000000330,0.871358083788223325
0.623000000000000442,0.866559115222505283
0.624000000000000332,0.861597948346438991
0.625000000000000444,0.856479274137507907
0.626000000000000334,0.851207731715087901
0.627000000000000446,0.845787907931531135
0.628000000000000336,0.840224336995269327
0.629000000000000448,0.834521500125098958
0.630000000000000338,0.828683825234971083
0.631000000000000449,0.822715686648497702
0.632000000000000339,0.816621404842522325
0.633000000000000451,0.810405246218949493
0.634000000000000341,0.804071422904213073
0.635000000000000453,0.797624092575567767
0.636000000000000343,0.791067358313666480
0.637000000000000455,0.784405268480533158
0.638000000000000345,0.777641816622453241
0.639000000000000457,0.770780941396945196
0.640000000000000346,0.763826526523274207
0.641000000000000458,0.756782400755743989
0.642000000000000348,0.749652337879227693
0.643000000000000460,0.742440056726193509
0.644000000000000350,0.735149221214694948
0.645000000000000462,0.727783440406610471
0.646000000000000352,0.720346268585617122
0.647000000000000464,0.712841205354200924
0.648000000000000353,0.705271695749201788
0.649000000000000465,0.697641130375213359
0.650000000000000355,0.689952845555367622
0.651000000000000467,0.682210123498840137
0.652000000000000357,0.674416192484592503
0.653000000000000469,0.666574227060755531
0.654000000000000359,0.658687348259151095
0.655000000000000471,0.650758623824404081
0.656000000000000361,0.642791068457134074
0.657000000000000473,0.634787644070697543
0.658000000000000362,0.626751260061015114
0.659000000000000474,0.618684773588965342
0.660000000000000364,0.610590989874870038
0.661000000000000476,0.602472662504583312
0.662000000000000366,0.594332493746774881
0.663000000000000478,0.586173134880859537
0.664000000000000368,0.577997186535237240
0.665000000000000480,0.569807199035293088
0.666000000000000369,0.561605672760844943
