# CNT15-OH-4_THYMINE
# h[nm],U(h)[kJ/mol]
0.200000000000000011,70.458676319178678682
0.201000000000000012,70.008880248022535397
0.202000000000000013,68.721359469172426770
0.203000000000000014,67.078348719800828803
0.204000000000000015,65.346282043870061784
0.205000000000000016,63.656289189457787359
0.206000000000000016,62.058620955261041274
0.207000000000000017,60.558570611975731879
0.208000000000000018,59.139441226025027731
0.209000000000000019,57.776594947835235416
0.210000000000000020,56.445490620370890156
0.211000000000000021,55.125778212798913103
0.212000000000000022,53.802901611333297183
0.213000000000000023,52.468210718322687569
0.214000000000000024,51.118257924065645170
0.215000000000000024,49.753721022834064058
0.216000000000000025,48.378230384953631926
0.217000000000000026,46.997264394220970019
0.218000000000000027,45.617200056188337953
0.219000000000000028,44.244554978098960873
0.220000000000000029,42.885424953561525285
0.221000000000000030,41.545102496548750537
0.222000000000000031,40.227851717877754822
0.223000000000000032,38.936810921464257262
0.224000000000000032,37.673994069137954455
0.225000000000000033,36.440364307582022718
0.226000000000000034,35.235956022469530069
0.227000000000000035,34.060025678118726944
0.228000000000000036,32.911215557693566325
0.229000000000000037,31.787718156676127990
0.230000000000000038,30.687432241707377045
0.231000000000000039,29.608104392954409434
0.232000000000000040,28.547452181982748698
0.233000000000000040,27.503267015408464857
0.234000000000000041,26.473496135256215922
0.235000000000000042,25.456304358909186192
0.236000000000000043,24.450116917960279750
0.237000000000000044,23.453645269029014031
0.238000000000000045,22.465898050448128487
0.239000000000000046,21.486179491702863231
0.240000000000000047,20.514077587182207196
0.241000000000000048,19.549444256061587311
0.242000000000000048,18.592369554322498715
0.243000000000000049,17.643151806232889811
0.244000000000000050,16.702265299639382334
0.245000000000000051,15.770326956650460914
0.246000000000000052,14.848063159736772931
0.247000000000000053,13.936277690989147260
0.248000000000000054,13.035821534886508744
0.249000000000000055,12.147565106074731389
0.250000000000000056,11.272373295415047068
0.251000000000000056,10.411083580767776624
0.252000000000000057,9.564487323547073316
0.253000000000000058,8.733314267245805951
0.254000000000000059,7.918220168631840750
0.255000000000000060,7.119777424597050874
0.256000000000000061,6.338468505942957520
0.257000000000000062,5.574681971882632148
0.258000000000000063,4.828710813887451714
0.259000000000000064,4.100752862925614473
0.260000000000000064,3.390912988435489162
0.261000000000000065,2.699206818982593958
0.262000000000000066,2.025565722029045279
0.263000000000000067,1.369842792318872071
0.264000000000000068,0.731819613910926092
0.265000000000000069,0.111213578884406236
0.266000000000000070,-0.492314434649098853
0.267000000000000071,-1.079152202091694601
0.268000000000000071,-1.649728265529448068
0.269000000000000072,-2.204504155989097214
0.270000000000000073,-2.743966840223676762
0.271000000000000074,-3.268621488337484671
0.272000000000000075,-3.778984640545198115
0.273000000000000076,-4.275577834620386319
0.274000000000000077,-4.758921740232962883
0.275000000000000078,-5.229530832460445922
0.276000000000000079,-5.687908624303545935
0.277000000000000079,-6.134543467032232300
0.278000000000000080,-6.569904917592592319
0.279000000000000081,-6.994440664064583757
0.280000000000000082,-7.408573993199757624
0.281000000000000083,-7.812701778306609057
0.282000000000000084,-8.207192961096819062
0.283000000000000085,-8.592387497466006607
0.284000000000000086,-8.968595734462583735
0.285000000000000087,-9.336098183799739658
0.286000000000000087,-9.695145656100205400
0.287000000000000088,-10.045959719537203014
0.288000000000000089,-10.388733446565229457
0.289000000000000090,-10.723632412939910097
0.290000000000000091,-11.050795914131111175
0.291000000000000092,-11.370338365471241104
0.292000000000000093,-11.682350853884729602
0.293000000000000094,-11.986902810760108551
0.294000000000000095,-12.284043777399904940
0.295000000000000095,-12.573805236470958491
0.296000000000000096,-12.856202484936190444
0.297000000000000097,-13.131236526045251267
0.298000000000000098,-13.398895960062777277
0.299000000000000099,-13.659158855494883511
0.300000000000000100,-13.911994584612909165
0.301000000000000101,-14.157365609052302347
0.302000000000000102,-14.395229203165659015
0.303000000000000103,-14.625539104624621700
0.304000000000000103,-14.848247083481705744
0.305000000000000104,-15.063304422517834524
0.306000000000000105,-15.270663303206996275
0.307000000000000106,-15.470278093024557364
0.308000000000000107,-15.662106531109461827
0.309000000000000108,-15.846110810462500140
0.310000000000000109,-16.022258555926136125
0.311000000000000110,-16.190523698145732112
0.312000000000000111,-16.350887244565647904
0.313000000000000111,-16.503337949264473394
0.314000000000000112,-16.647872884092414836
0.315000000000000113,-16.784497914140434460
0.316000000000000114,-16.913228081054271001
0.317000000000000115,-17.034087898109198989
0.318000000000000116,-17.147111561291573878
0.319000000000000117,-17.252343080894270599
0.320000000000000118,-17.349836338331847685
0.321000000000000119,-17.439655073022557019
0.322000000000000119,-17.521872804273378676
0.323000000000000120,-17.596572693146292465
0.324000000000000121,-17.663847349284282018
0.325000000000000122,-17.723798587637851654
0.326000000000000123,-17.776537139962460543
0.327000000000000124,-17.822182325857927054
0.328000000000000125,-17.860861687996749225
0.329000000000000126,-17.892710596042711302
0.330000000000000127,-17.917871823597895542
0.331000000000000127,-17.936495102338259500
0.332000000000000128,-17.948736657308185016
0.333000000000000129,-17.954758727145677000
0.334000000000000130,-17.954729072803871759
0.335000000000000131,-17.948820478125284694
0.336000000000000132,-17.937210245411595366
0.337000000000000133,-17.920079688919109628
0.338000000000000134,-17.897613628997284252
0.339000000000000135,-17.869999889376870783
0.340000000000000135,-17.837428799907819155
0.341000000000000136,-17.800092706843969381
0.342000000000000137,-17.758185492574511954
0.343000000000000138,-17.711902106510880373
0.344000000000000139,-17.661438108653353396
0.345000000000000140,-17.606989227184577373
0.346000000000000141,-17.548750931267097286
0.347000000000000142,-17.486918020060890910
0.348000000000000143,-17.421684228823352214
0.349000000000000143,-17.353241852808565682
0.350000000000000144,-17.281781389546644334
0.351000000000000145,-17.207491199954965566
0.352000000000000146,-17.130557188613472874
0.353000000000000147,-17.051162503424311723
0.354000000000000148,-16.969487254772467111
0.355000000000000149,-16.885708254208445567
0.356000000000000150,-16.799998772585823303
0.357000000000000151,-16.712528317506603059
0.358000000000000151,-16.623462429853269384
0.359000000000000152,-16.532962499121044431
0.360000000000000153,-16.441185597203787694
0.361000000000000154,-16.348284330233990858
0.362000000000000155,-16.254406708030355588
0.363000000000000156,-16.159696030664996158
0.364000000000000157,-16.064290791626714139
0.365000000000000158,-15.968324597026086309
0.366000000000000159,-15.871926100262319537
0.367000000000000159,-15.775218951550604274
0.368000000000000160,-15.678321761691929481
0.369000000000000161,-15.581348079454084399
0.370000000000000162,-15.484406381923349727
0.371000000000000163,-15.387600077180650260
0.372000000000000164,-15.291027518652830608
0.373000000000000165,-15.194782030490122438
0.374000000000000166,-15.098951943323422498
0.375000000000000167,-15.003620639760157474
0.376000000000000167,-14.908866608984840951
0.377000000000000168,-14.814763509839579569
0.378000000000000169,-14.721380241770756214
0.379000000000000170,-14.628781023040755116
0.380000000000000171,-14.537025475617188164
0.381000000000000172,-14.446168716167573365
0.382000000000000173,-14.356261452602947060
0.383000000000000174,-14.267350085631452572
0.384000000000000175,-14.179476814800159090
0.385000000000000175,-14.092679748521907968
0.386000000000000176,-14.006993017602747287
0.387000000000000177,-13.922446891804435509
0.388000000000000178,-13.839067898996265882
0.389000000000000179,-13.756878946469569769
0.390000000000000180,-13.675899444008184247
0.391000000000000181,-13.596145428327654159
0.392000000000000182,-13.517629688515498287
0.393000000000000183,-13.440361892124141008
0.394000000000000183,-13.364348711587391350
0.395000000000000184,-13.289593950650194998
0.396000000000000185,-13.216098670519855318
0.397000000000000186,-13.143861315465304784
0.398000000000000187,-13.072877837608714913
0.399000000000000188,-13.003141820671089590
0.400000000000000189,-12.934644602450543260
0.401000000000000190,-12.867375395828309692
0.402000000000000191,-12.801321408113514266
0.403000000000000191,-12.736467958553200575
0.404000000000000192,-12.672798593848936477
0.405000000000000193,-12.610295201535770104
0.406000000000000194,-12.548938121093065945
0.407000000000000195,-12.488706252670093377
0.408000000000000196,-12.429577163321791744
0.409000000000000197,-12.371527190662487072
0.410000000000000198,-12.314531543856938711
0.411000000000000199,-12.258564401878839334
0.412000000000000199,-12.203599008977949580
0.413000000000000200,-12.149607767306573436
0.414000000000000201,-12.096562326665820208
0.415000000000000202,-12.044433671340836867
0.416000000000000203,-11.993192204002966150
0.417000000000000204,-11.942807826664321169
0.418000000000000205,-11.893250018678113378
0.419000000000000206,-11.844487911784881362
0.420000000000000207,-11.796490362211235592
0.421000000000000207,-11.749226019834253520
0.422000000000000208,-11.702663394429698940
0.423000000000000209,-11.656770919028144107
0.424000000000000210,-11.611517010407577999
0.425000000000000211,-11.566870126755590675
0.426000000000000212,-11.522798822538602437
0.427000000000000213,-11.479271800618974453
0.428000000000000214,-11.436257961664692218
0.429000000000000214,-11.393726450899105629
0.430000000000000215,-11.351646702241092513
0.431000000000000216,-11.309988479888691160
0.432000000000000217,-11.268721917401141042
0.433000000000000218,-11.227817554336487760
0.434000000000000219,-11.187246370503507009
0.435000000000000220,-11.146979817888219344
0.436000000000000221,-11.106989850316363544
0.437000000000000222,-11.067248950914329697
0.438000000000000222,-11.027730157431893332
0.439000000000000223,-10.988407085490635495
0.440000000000000224,-10.949253949822352894
0.441000000000000225,-10.910245583562112159
0.442000000000000226,-10.871357455660794145
0.443000000000000227,-10.832565686481618883
0.444000000000000228,-10.793847061645490015
0.445000000000000229,-10.755179044189201676
0.446000000000000230,-10.716539785100410498
0.447000000000000230,-10.677908132292788679
0.448000000000000231,-10.639263638084010211
0.449000000000000232,-10.600586565238513614
0.450000000000000233,-10.561857891636407203
0.451000000000000234,-10.523059313628687406
0.452000000000000235,-10.484173248138315415
0.453000000000000236,-10.445182833565379354
0.454000000000000237,-10.406071929553883493
0.455000000000000238,-10.366825115676203239
0.456000000000000238,-10.327427689090374230
0.457000000000000239,-10.287865661224035563
0.458000000000000240,-10.248125753537784988
0.459000000000000241,-10.208195392419142422
0.460000000000000242,-10.168062703257477963
0.461000000000000243,-10.127716503748468213
0.462000000000000244,-10.087146296475873797
0.463000000000000245,-10.046342260816420122
0.464000000000000246,-10.005295244213044725
0.465000000000000246,-9.963996752859660688
0.466000000000000247,-9.922438941839798687
0.467000000000000248,-9.880614604759816899
0.468000000000000249,-9.838517162916252445
0.469000000000000250,-9.796140654035372819
0.470000000000000251,-9.753479720621820448
0.471000000000000252,-9.710529597951721215
0.472000000000000253,-9.667286101744741345
0.473000000000000254,-9.623745615547655063
0.474000000000000254,-9.579905077861431195
0.475000000000000255,-9.535761969041953279
0.476000000000000256,-9.491314298003768357
0.477000000000000257,-9.446560588754696397
0.478000000000000258,-9.401499866788098458
0.479000000000000259,-9.356131645358487958
0.480000000000000260,-9.310455911664805129
0.481000000000000261,-9.264473112964809687
0.482000000000000262,-9.218184142642778411
0.483000000000000262,-9.171590326251717329
0.484000000000000263,-9.124693407550129365
0.485000000000000264,-9.077495534552552314
0.486000000000000265,-9.029999245611923797
0.487000000000000266,-8.982207455550849318
0.488000000000000267,-8.934123441858076831
0.489000000000000268,-8.885750830965452707
0.490000000000000269,-8.837093584619626796
0.491000000000000270,-8.788155986362252037
0.492000000000000270,-8.738942628131134427
0.493000000000000271,-8.689458396994453437
0.494000000000000272,-8.639708462028995228
0.495000000000000273,-8.589698261352804565
0.496000000000000274,-8.539433489321913484
0.497000000000000275,-8.488920083899950342
0.498000000000000276,-8.438164214208999425
0.499000000000000277,-8.387172268269170061
0.500000000000000222,-8.335950840933868733
0.501000000000000334,-8.284506722027108694
0.502000000000000224,-8.232846884688633793
0.503000000000000336,-8.180978473931912021
0.504000000000000226,-8.128908795419935274
0.505000000000000338,-8.076645304462552133
0.506000000000000227,-8.024195595239451251
0.507000000000000339,-7.971567390251502516
0.508000000000000229,-7.918768530003559292
0.509000000000000341,-7.865806962920673939
0.510000000000000231,-7.812690735499967509
0.511000000000000343,-7.759427982699223847
0.512000000000000233,-7.706026918563696704
0.513000000000000345,-7.652495827091541969
0.514000000000000234,-7.598843053338676157
0.515000000000000346,-7.545076994762688116
0.516000000000000236,-7.491206092806069528
0.517000000000000348,-7.437238824717857355
0.518000000000000238,-7.383183695613292130
0.519000000000000350,-7.329049230770088741
0.520000000000000240,-7.274843968160420005
0.521000000000000352,-7.220576451216837555
0.522000000000000242,-7.166255221830631683
0.523000000000000353,-7.111888813580550917
0.524000000000000243,-7.057485745189933546
0.525000000000000355,-7.003054514209888559
0.526000000000000245,-6.948603590926225593
0.527000000000000357,-6.894141412487305054
0.528000000000000247,-6.839676377250462735
0.529000000000000359,-6.785216839343769735
0.530000000000000249,-6.730771103440488901
0.531000000000000361,-6.676347419742900691
0.532000000000000250,-6.621953979172571003
0.533000000000000362,-6.567598908763535803
0.534000000000000252,-6.513290267255297472
0.535000000000000364,-6.459036040882014440
0.536000000000000254,-6.404844139354660015
0.537000000000000366,-6.350722392032190022
0.538000000000000256,-6.296678544278708323
0.539000000000000368,-6.242720254002365188
0.540000000000000258,-6.188855088372939406
0.541000000000000369,-6.135090520713800011
0.542000000000000259,-6.081433927565113251
0.543000000000000371,-6.027892585914022661
0.544000000000000261,-5.974473670588459129
0.545000000000000373,-5.921184251810543309
0.546000000000000263,-5.868031292906045415
0.547000000000000375,-5.815021648165787482
0.548000000000000265,-5.762162060855787971
0.549000000000000377,-5.709459161371715830
0.550000000000000266,-5.656919465534576474
0.551000000000000378,-5.604549373023385961
0.552000000000000268,-5.552355165941516013
0.553000000000000380,-5.500343007512769056
0.554000000000000270,-5.448518940903778862
0.555000000000000382,-5.396888888168843046
0.556000000000000272,-5.345458649313959754
0.557000000000000384,-5.294233901476092186
0.558000000000000274,-5.243220198214634031
0.559000000000000385,-5.192422968911119874
0.560000000000000275,-5.141847518274208717
0.561000000000000387,-5.091499025946156998
0.562000000000000277,-5.041382546207763049
0.563000000000000389,-4.991503007778244516
0.564000000000000279,-4.941865213707005822
0.565000000000000391,-4.892473841353917940
0.566000000000000281,-4.843333442455129756
0.567000000000000393,-4.794448443271152271
0.568000000000000282,-4.745823144814375283
0.569000000000000394,-4.697461723152754232
0.570000000000000284,-4.649368229787067541
0.571000000000000396,-4.601546592098495481
0.572000000000000286,-4.554000613864082503
0.573000000000000398,-4.506733975836882955
0.574000000000000288,-4.459750236388495992
0.575000000000000400,-4.413052832210990317
0.576000000000000290,-4.366645079075853531
0.577000000000000401,-4.320530172647205625
0.578000000000000291,-4.274711189347004670
0.579000000000000403,-4.229191087269564164
0.580000000000000293,-4.183972707143273517
0.581000000000000405,-4.139058773336851793
0.582000000000000295,-4.094451894908269551
0.583000000000000407,-4.050154566693701774
0.584000000000000297,-4.006169170434706217
0.585000000000000409,-3.962497975941231765
0.586000000000000298,-3.919143142288674220
0.587000000000000410,-3.876106719046661819
0.588000000000000300,-3.833390647537979312
0.589000000000000412,-3.790996762125361297
0.590000000000000302,-3.748926791524642255
0.591000000000000414,-3.707182360142231570
0.592000000000000304,-3.665764989435330357
0.593000000000000416,-3.624676099293024034
0.594000000000000306,-3.583917009436837109
0.595000000000000417,-3.543488940838911194
0.596000000000000307,-3.503393017156460676
0.597000000000000419,-3.463630266180840689
0.598000000000000309,-3.424201621299940879
0.599000000000000421,-3.385107922972310668
0.600000000000000311,-3.346349920211860507
0.601000000000000423,-3.307928272081581245
0.602000000000000313,-3.269843549195302845
0.603000000000000425,-3.232096235225898617
0.604000000000000314,-3.194686728419168009
0.605000000000000426,-3.157615343111787265
0.606000000000000316,-3.120882311252685337
0.607000000000000428,-3.084487783926353366
0.608000000000000318,-3.048431832877422032
0.609000000000000430,-3.012714452035198054
0.610000000000000320,-2.977335559037505242
0.611000000000000432,-2.942294996752623515
0.612000000000000322,-2.907592534798714379
0.613000000000000433,-2.873227871059655492
0.614000000000000323,-2.839200633196657719
0.615000000000000435,-2.805510380154741856
0.616000000000000325,-2.772156603663451513
0.617000000000000437,-2.739138729730968169
0.618000000000000327,-2.706456120131085274
0.619000000000000439,-2.674108073882216274
0.620000000000000329,-2.642093828718001358
0.621000000000000441,-2.610412562548769522
0.622000000000000330,-2.579063394913394092
0.623000000000000442,-2.548045388420893786
0.624000000000000332,-2.517357550181422265
0.625000000000000444,-2.486998833225991579
0.626000000000000334,-2.456968137914617767
0.627000000000000446,-2.427264313332337053
0.628000000000000336,-2.397886158672767998
0.629000000000000448,-2.368832424608760867
0.630000000000000338,-2.340101814649876655
0.631000000000000449,-2.311692986486179269
0.632000000000000339,-2.283604553318221431
0.633000000000000451,-2.255835085172743781
0.634000000000000341,-2.228383110203963291
0.635000000000000453,-2.201247115980044633
0.636000000000000343,-2.174425550754633285
0.637000000000000455,-2.147916824723133278
0.638000000000000345,-2.121719311263632779
0.639000000000000457,-2.095831348162114249
0.640000000000000346,-2.070251238822021556
0.641000000000000458,-2.044977253457749278
0.642000000000000348,-2.020007630272190546
0.643000000000000460,-1.995340576617954609
0.644000000000000350,-1.970974270142406670
0.645000000000000462,-1.946906859916157417
0.646000000000000352,-1.923136467545206063
0.647000000000000464,-1.899661188266363210
0.648000000000000353,-1.876479092026234641
0.649000000000000465,-1.853588224543342378
0.650000000000000355,-1.830986608353739387
0.651000000000000467,-1.808672243839736238
0.652000000000000357,-1.786643110242027932
0.653000000000000469,-1.764897166654973759
0.654000000000000359,-1.743432353005259561
0.655000000000000471,-1.722246591013739003
0.656000000000000361,-1.701337785140714987
0.657000000000000473,-1.680703823514452910
0.658000000000000362,-1.660342578843208683
0.659000000000000474,-1.640251909310611822
