# CNT15-OH-4_TANNIC-ARM-NEUTRAL-AC
# h[nm],U(h)[kJ/mol]
0.149999999999999994,128.545585623718039869
0.150999999999999995,127.609056688740821528
0.151999999999999996,124.874581445086761278
0.152999999999999997,121.840784364541903528
0.153999999999999998,119.031269904171651319
0.154999999999999999,116.524150322765279952
0.156000000000000000,114.232489067389991533
0.157000000000000001,112.040158925486451835
0.158000000000000002,109.857585101857779364
0.159000000000000002,107.636079533489962046
0.160000000000000003,105.363172998102839983
0.161000000000000004,103.051259350383588753
0.162000000000000005,100.725789926465068902
0.163000000000000006,98.415734407597113886
0.164000000000000007,96.147093366661152913
0.165000000000000008,93.939279952646444372
0.166000000000000009,91.803781909039841480
0.167000000000000010,89.744418282388181751
0.168000000000000010,87.758563777303649545
0.169000000000000011,85.838837098464324527
0.170000000000000012,83.974887225879868424
0.171000000000000013,82.155037588923363501
0.172000000000000014,80.367651500381356300
0.173000000000000015,78.602160332879819293
0.174000000000000016,76.849750510165392825
0.175000000000000017,75.103740164511620492
0.176000000000000018,73.359695571919075974
0.177000000000000018,71.615345325717200353
0.178000000000000019,69.870350204778517877
0.179000000000000020,68.125981716471230243
0.180000000000000021,66.384754556017057325
0.181000000000000022,64.650049330983776485
0.182000000000000023,62.925752957305441271
0.183000000000000024,61.215935847056542229
0.184000000000000025,59.524577780226785251
0.185000000000000026,57.855348364275073436
0.186000000000000026,56.211443264868194092
0.187000000000000027,54.595473868326891420
0.188000000000000028,53.009405581663862961
0.189000000000000029,51.454538431481978478
0.190000000000000030,49.931522821917283750
0.191000000000000031,48.440403093280835378
0.192000000000000032,46.980681740057740114
0.193000000000000033,45.551397670953925001
0.194000000000000034,44.151212616558986213
0.195000000000000034,42.778500623952609772
0.196000000000000035,41.431436453221451188
0.197000000000000036,40.108079556352336681
0.198000000000000037,38.806451136982197170
0.199000000000000038,37.524602534974647483
0.200000000000000039,36.260673837712104728
0.201000000000000040,35.012942183178651590
0.202000000000000041,33.779859687216202246
0.203000000000000042,32.560081302019817429
0.204000000000000042,31.352483201304984561
0.205000000000000043,30.156172497903391161
0.206000000000000044,28.970489241174153250
0.207000000000000045,27.795001724325686610
0.208000000000000046,26.629496165206795411
0.209000000000000047,25.473961817571701971
0.210000000000000048,24.328572531790747746
0.211000000000000049,23.193665722162766230
0.212000000000000050,22.069719619161016766
0.213000000000000050,20.957329594958977736
0.214000000000000051,19.857184254350450203
0.215000000000000052,18.770041884760651385
0.216000000000000053,17.696707761690806393
0.217000000000000054,16.638012712182121078
0.218000000000000055,15.594793250618824487
0.219000000000000056,14.567873519760912160
0.220000000000000057,13.558049196170893325
0.221000000000000058,12.566073453670629334
0.222000000000000058,11.592645021280873152
0.223000000000000059,10.638398323182347127
0.224000000000000060,9.703895647291783888
0.225000000000000061,8.789621255640701847
0.226000000000000062,7.895977323336003550
0.227000000000000063,7.023281572861682420
0.228000000000000064,6.171766456205513229
0.229000000000000065,5.341579728098725610
0.230000000000000066,4.532786248892167080
0.231000000000000066,3.745370854617046774
0.232000000000000067,2.979242133996098385
0.233000000000000068,2.234236957012820657
0.234000000000000069,1.510125606597293890
0.235000000000000070,0.806617373574268881
0.236000000000000071,0.123366484822702877
0.237000000000000072,-0.540021754759642980
0.238000000000000073,-1.183984714729050536
0.239000000000000073,-1.808996182845683309
0.240000000000000074,-2.415560185537680926
0.241000000000000075,-3.004204959305030620
0.242000000000000076,-3.575477136433470093
0.243000000000000077,-4.129936198014746651
0.244000000000000078,-4.668149237473803836
0.245000000000000079,-5.190686068659234209
0.246000000000000080,-5.698114704107267059
0.247000000000000081,-6.190997221374005655
0.248000000000000081,-6.669886028354005347
0.249000000000000082,-7.135320532266982596
0.250000000000000111,-7.587824211484145209
0.251000000000000112,-8.027902084558098394
0.252000000000000113,-8.456038566687620772
0.253000000000000114,-8.872695700350321957
0.254000000000000115,-9.278311743939918088
0.255000000000000115,-9.673300099899382332
0.256000000000000116,-10.058048562009664906
0.257000000000000117,-10.432918860126344285
0.258000000000000118,-10.798246479709714407
0.259000000000000119,-11.154340732924811874
0.260000000000000120,-11.501485057852349314
0.261000000000000121,-11.839937522407934622
0.262000000000000122,-12.169931509878889386
0.263000000000000123,-12.491676563515145659
0.264000000000000123,-12.805359368322337232
0.265000000000000124,-13.111144849066599605
0.266000000000000125,-13.409177364484966333
0.267000000000000126,-13.699581978773924362
0.268000000000000127,-13.982465792580182296
0.269000000000000128,-14.257919316917242014
0.270000000000000129,-14.526017874662727536
0.271000000000000130,-14.786823015536578296
0.272000000000000131,-15.040383931703217968
0.273000000000000131,-15.286738862371212377
0.274000000000000132,-15.525916476968793845
0.275000000000000133,-15.757937227645196998
0.276000000000000134,-15.982814662977613551
0.277000000000000135,-16.200556695845513389
0.278000000000000136,-16.411166819464590105
0.279000000000000137,-16.614645266546098412
0.280000000000000138,-16.810990107462430387
0.281000000000000139,-17.000198284155437989
0.282000000000000139,-17.182266577316841705
0.283000000000000140,-17.357192505103448354
0.284000000000000141,-17.524975152321211169
0.285000000000000142,-17.685615929624152187
0.286000000000000143,-17.839119262828180723
0.287000000000000144,-17.985493212936308538
0.288000000000000145,-18.124750027915638384
0.289000000000000146,-18.256906627656011466
0.290000000000000147,-18.381985023882599251
0.291000000000000147,-18.500012677088570001
0.292000000000000148,-18.611022792804892134
0.293000000000000149,-18.715054559733111716
0.294000000000000150,-18.812153332438391828
0.295000000000000151,-18.902370761434870161
0.296000000000000152,-18.985764873598444780
0.297000000000000153,-19.062400105914047543
0.298000000000000154,-19.132347295609953619
0.299000000000000155,-19.195683629751862043
0.300000000000000155,-19.252492557367098414
0.301000000000000156,-19.302863667147381221
0.302000000000000157,-19.346892533738767384
0.303000000000000158,-19.384680535571597204
0.304000000000000159,-19.416334647114304346
0.305000000000000160,-19.441967208353762686
0.306000000000000161,-19.461695674214134044
0.307000000000000162,-19.475642346526718995
0.308000000000000163,-19.483934091056873683
0.309000000000000163,-19.486702041982663758
0.310000000000000164,-19.484081296103799019
0.311000000000000165,-19.476210598940348007
0.312000000000000166,-19.463232024759978600
0.313000000000000167,-19.445290652450161417
0.314000000000000168,-19.422534239029822345
0.315000000000000169,-19.395112892473125754
0.316000000000000170,-19.363178745397977565
0.317000000000000171,-19.326885631053023928
0.318000000000000171,-19.286388762921131246
0.319000000000000172,-19.241844419144054967
0.320000000000000173,-19.193409632862795888
0.321000000000000174,-19.141241889461930725
0.322000000000000175,-19.085498831603359804
0.323000000000000176,-19.026337972836572021
0.324000000000000177,-18.963916420477865188
0.325000000000000178,-18.898390608360958964
0.326000000000000179,-18.829916039976051678
0.327000000000000179,-18.758647042432944119
0.328000000000000180,-18.684736531607033072
0.329000000000000181,-18.608335788755486107
0.330000000000000182,-18.529594248822178315
0.331000000000000183,-18.448659300587561205
0.332000000000000184,-18.365676098760030044
0.333000000000000185,-18.280787388050779185
0.334000000000000186,-18.194133339223522938
0.335000000000000187,-18.105851397063712938
0.336000000000000187,-18.016076140169211328
0.337000000000000188,-17.924939152425203304
0.338000000000000189,-17.832568905990992647
0.339000000000000190,-17.739090655594100809
0.340000000000000191,-17.644626343898426768
0.341000000000000192,-17.549294517688132089
0.342000000000000193,-17.453210254585709293
0.343000000000000194,-17.356485100003773425
0.344000000000000195,-17.259227014012463286
0.345000000000000195,-17.161540327790405058
0.346000000000000196,-17.063525709314784962
0.347000000000000197,-16.965280137936385785
0.348000000000000198,-16.866896887477697220
0.349000000000000199,-16.768465517486202288
0.350000000000000200,-16.670071872271368107
0.351000000000000201,-16.571798087350931183
0.352000000000000202,-16.473722602931900383
0.353000000000000203,-16.375920184051881989
0.354000000000000203,-16.278461947008505462
0.355000000000000204,-16.181415391707727025
0.356000000000000205,-16.084844439566101215
0.357000000000000206,-15.988809476607238835
0.358000000000000207,-15.893367401398595717
0.359000000000000208,-15.798571677481785258
0.360000000000000209,-15.704472389957036427
0.361000000000000210,-15.611116305890401890
0.362000000000000210,-15.518546938221323472
0.363000000000000211,-15.426804612856784615
0.364000000000000212,-15.335926538648442019
0.365000000000000213,-15.245946879958159670
0.366000000000000214,-15.156896831528257508
0.367000000000000215,-15.068804695382297609
0.368000000000000216,-14.981695959493446679
0.369000000000000217,-14.895593377967205839
0.370000000000000218,-14.810517052496638968
0.371000000000000218,-14.726484514858185548
0.372000000000000219,-14.643510810227265750
0.373000000000000220,-14.561608581103101301
0.374000000000000221,-14.480788151642750350
0.375000000000000222,-14.401057612214668069
0.376000000000000223,-14.322422903992343635
0.377000000000000224,-14.244887903418524289
0.378000000000000225,-14.168454506380465219
0.379000000000000226,-14.093122711946216796
0.380000000000000226,-14.018890705521595663
0.381000000000000227,-13.945754941296295115
0.382000000000000228,-13.873710223857068868
0.383000000000000229,-13.802749788854210777
0.384000000000000230,-13.732865382616163075
0.385000000000000231,-13.664047340615464776
0.386000000000000232,-13.596284664696691280
0.387000000000000233,-13.529565098985239402
0.388000000000000234,-13.463875204402688368
0.389000000000000234,-13.399200431721968840
0.390000000000000235,-13.335525193101897656
0.391000000000000236,-13.272832932047752053
0.392000000000000237,-13.211106191750115357
0.393000000000000238,-13.150326681760926562
0.394000000000000239,-13.090475342970620432
0.395000000000000240,-13.031532410856303983
0.396000000000000241,-12.973477476975698863
0.397000000000000242,-12.916289548686540556
0.398000000000000242,-12.859947107075901940
0.399000000000000243,-12.804428163088127590
0.400000000000000244,-12.749710311844271615
0.401000000000000245,-12.695770785149985471
0.402000000000000246,-12.642586502192173725
0.403000000000000247,-12.590134118428416343
0.404000000000000248,-12.538390072676389053
0.405000000000000249,-12.487330632413380371
0.406000000000000250,-12.436931937298885131
0.407000000000000250,-12.387170040935970405
0.408000000000000251,-12.338020950889287519
0.409000000000000252,-12.289460666980165371
0.410000000000000253,-12.241465217880918459
0.411000000000000254,-12.194010696032696828
0.412000000000000255,-12.147073290912722143
0.413000000000000256,-12.100629320678478962
0.414000000000000257,-12.054655262217634615
0.415000000000000258,-12.009127779634031441
0.416000000000000258,-11.964023751200887347
0.417000000000000259,-11.919320294813658734
0.418000000000000260,-11.874994791975709063
0.419000000000000261,-11.831024910350683044
0.420000000000000262,-11.787388624916282254
0.421000000000000263,-11.744064237754649582
0.422000000000000264,-11.701030396514710219
0.423000000000000265,-11.658266111582694435
0.424000000000000266,-11.615750771996960822
0.425000000000000266,-11.573464160143378976
0.426000000000000267,-11.531386465267967623
0.427000000000000268,-11.489498295843114661
0.428000000000000269,-11.447780690823931238
0.429000000000000270,-11.406215129831089428
0.430000000000000271,-11.364783542296223118
0.431000000000000272,-11.323468315606021406
0.432000000000000273,-11.282252302280463496
0.433000000000000274,-11.241118826220745319
0.434000000000000274,-11.200051688061705590
0.435000000000000275,-11.159035169663408027
0.436000000000000276,-11.118054037775957354
0.437000000000000277,-11.077093546911124022
0.438000000000000278,-11.036139441453952870
0.439000000000000279,-10.995177957046909256
0.440000000000000280,-10.954195821278471357
0.441000000000000281,-10.913180253707654543
0.442000000000000282,-10.872118965255291201
0.443000000000000282,-10.831000156992027783
0.444000000000000283,-10.789812518352857040
0.445000000000000284,-10.748545224806749232
0.446000000000000285,-10.707187935009713442
0.447000000000000286,-10.665730787468888252
0.448000000000000287,-10.624164396744230743
0.449000000000000288,-10.582479849214230683
0.450000000000000289,-10.540668698430867067
0.451000000000000290,-10.498722960088644029
0.452000000000000290,-10.456635106631823717
0.453000000000000291,-10.414398061523030492
0.454000000000000292,-10.372005193196049078
0.455000000000000293,-10.329450308714672957
0.456000000000000294,-10.286727647158924626
0.457000000000000295,-10.243831872759233903
0.458000000000000296,-10.200758067798426865
0.459000000000000297,-10.157501725300862816
0.460000000000000298,-10.114058741527182761
0.461000000000000298,-10.070425408292660308
0.462000000000000299,-10.026598405126419422
0.463000000000000300,-9.982574791288049809
0.464000000000000301,-9.938351997657777659
0.465000000000000302,-9.893927818515440009
0.466000000000000303,-9.849300403223097078
0.467000000000000304,-9.804468247825420590
0.468000000000000305,-9.759430186581520061
0.469000000000000306,-9.714185383441092725
0.470000000000000306,-9.668733323477548325
0.471000000000000307,-9.623073804289747457
0.472000000000000308,-9.577206927384008139
0.473000000000000309,-9.531133089546987236
0.474000000000000310,-9.484852974219915467
0.475000000000000311,-9.438367542883890238
0.476000000000000312,-9.391678026465761775
0.477000000000000313,-9.344785916773242107
0.478000000000000314,-9.297692957967807814
0.479000000000000314,-9.250401138083343966
0.480000000000000315,-9.202912680597936657
0.481000000000000316,-9.155230036066088317
0.482000000000000317,-9.107355873817891023
0.483000000000000318,-9.059293073731517154
0.484000000000000319,-9.011044718084944449
0.485000000000000320,-8.962614083492407957
0.486000000000000321,-8.914004632930794259
0.487000000000000322,-8.865220007860747486
0.488000000000000322,-8.816264020446979544
0.489000000000000323,-8.767140645881983829
0.490000000000000324,-8.717854014816971642
0.491000000000000325,-8.668408405903551994
0.492000000000000326,-8.618808238449350512
0.493000000000000327,-8.569058065190718665
0.494000000000000328,-8.519162565184952740
0.495000000000000329,-8.469126536824735041
0.496000000000000330,-8.418954890976735328
0.497000000000000330,-8.368652644246505901
0.498000000000000331,-8.318224912371217528
0.499000000000000332,-8.267676903741900674
0.500000000000000333,-8.217013913056320007
0.501000000000000334,-8.166241315103615506
0.502000000000000335,-8.115364558681607221
0.503000000000000336,-8.064389160647460031
0.504000000000000337,-8.013320700102202210
0.505000000000000338,-7.962164812709472628
0.506000000000000338,-7.910927185148683982
0.507000000000000339,-7.859613549702643809
0.508000000000000340,-7.808229678979486721
0.509000000000000341,-7.756781380768819290
0.510000000000000342,-7.705274493031481597
0.511000000000000343,-7.653714879022646578
0.512000000000000344,-7.602108422547466660
0.513000000000000345,-7.550461023348672640
0.514000000000000346,-7.498778592625275685
0.515000000000000346,-7.447067048681344836
0.516000000000000347,-7.395332312703959410
0.517000000000000348,-7.343580304669247383
0.518000000000000349,-7.291816939375126871
0.519000000000000350,-7.240048122599802127
0.520000000000000351,-7.188279747384344276
0.521000000000000352,-7.136517690438284767
0.522000000000000353,-7.084767808666489586
0.523000000000000353,-7.033035935815921569
0.524000000000000354,-6.981327879240825318
0.525000000000000355,-6.929649416784475768
0.526000000000000356,-6.878006293776026681
0.527000000000000357,-6.826404220140759094
0.528000000000000358,-6.774848867621796167
0.529000000000000359,-6.723345867111824248
0.530000000000000360,-6.671900806092726732
0.531000000000000361,-6.620519226181516004
0.532000000000000361,-6.569206620780613903
0.533000000000000362,-6.517968432830660852
0.534000000000000363,-6.466810052663944930
0.535000000000000364,-6.415736815956582184
0.536000000000000365,-6.364754001777512826
0.537000000000000366,-6.313866830732456137
0.538000000000000367,-6.263080463200763504
0.539000000000000368,-6.212399997663494489
0.540000000000000369,-6.161830469120454623
0.541000000000000369,-6.111376847594615747
0.542000000000000370,-6.061044036721694006
0.543000000000000371,-6.010836872423157118
0.544000000000000372,-5.960760121660670485
0.545000000000000373,-5.910818481270085911
0.546000000000000374,-5.861016576873037565
0.547000000000000375,-5.811358961864303119
0.548000000000000376,-5.761850116473047123
0.549000000000000377,-5.712494446896067224
0.550000000000000377,-5.663296284501145195
0.551000000000000378,-5.614259885098737080
0.552000000000000379,-5.565389428280195894
0.553000000000000380,-5.516689016820607527
0.554000000000000381,-5.468162676144559420
0.555000000000000382,-5.419814353853103839
0.556000000000000383,-5.371647919309993746
0.557000000000000384,-5.323667163285714210
0.558000000000000385,-5.275875797657365140
0.559000000000000385,-5.228277455162901433
0.560000000000000386,-5.180875689207960377
0.561000000000000387,-5.133673973723672290
0.562000000000000388,-5.086675703073852084
0.563000000000000389,-5.039884192009973951
0.564000000000000390,-4.993302675672353530
0.565000000000000391,-4.946934309636015215
0.566000000000000392,-4.900782169999717830
0.567000000000000393,-4.854849253516684726
0.568000000000000393,-4.809138477765489306
0.569000000000000394,-4.763652681359728192
0.570000000000000395,-4.718394624195121345
0.571000000000000396,-4.673366987732448408
0.572000000000000397,-4.628572375315242127
0.573000000000000398,-4.584013312520636596
0.574000000000000399,-4.539692247542274295
0.575000000000000400,-4.495611551603823308
0.576000000000000401,-4.451773519401950097
0.577000000000000401,-4.408180369577539892
0.578000000000000402,-4.364834245213805808
0.579000000000000403,-4.321737214360271473
0.580000000000000404,-4.278891270581437034
0.581000000000000405,-4.236298333528902837
0.582000000000000406,-4.193960249535997775
0.583000000000000407,-4.151878792233675952
0.584000000000000408,-4.110055663186797936
0.585000000000000409,-4.068492492549620643
0.586000000000000409,-4.027190839739566819
0.587000000000000410,-3.986152194128321558
0.588000000000000411,-3.945377975749197130
0.589000000000000412,-3.904869536019989873
0.590000000000000413,-3.864628158480242881
0.591000000000000414,-3.824655059542178659
0.592000000000000415,-3.784951389254413101
0.593000000000000416,-3.745518232077510223
0.594000000000000417,-3.706356607670669767
0.595000000000000417,-3.667467471688822478
0.596000000000000418,-3.628851716589059695
0.597000000000000419,-3.590510172446091275
0.598000000000000420,-3.552443607775573664
0.599000000000000421,-3.514652730364917765
0.600000000000000422,-3.477138188110706629
0.601000000000000423,-3.439900569862148760
0.602000000000000424,-3.402940406269878704
0.603000000000000425,-3.366258170639497393
0.604000000000000425,-3.329854279789239424
0.605000000000000426,-3.293729094911173938
0.606000000000000427,-3.257882922435429318
0.607000000000000428,-3.222316014896718706
0.608000000000000429,-3.187028571802930532
