# CNT15-OH-4_CYCLOHEXANE-AC
# h[nm],U(h)[kJ/mol]
0.149999999999999994,195.527133602428278891
0.150999999999999995,192.674739272082206298
0.151999999999999996,190.983673664139274706
0.152999999999999997,189.526079855579837385
0.153999999999999998,187.950981227198724355
0.154999999999999999,186.187038063428047963
0.156000000000000000,184.277747766552124631
0.157000000000000001,182.296399970132767976
0.158000000000000002,180.307282410771961167
0.159000000000000002,178.352299284615725128
0.160000000000000003,176.450409736489859824
0.161000000000000004,174.602570855020559293
0.162000000000000005,172.798173533962767578
0.163000000000000006,171.020970192035747459
0.164000000000000007,169.253669825961736706
0.165000000000000008,167.481025409192710640
0.166000000000000009,165.691564226011905703
0.167000000000000010,163.878245438257692967
0.168000000000000010,162.038355341570934343
0.169000000000000011,160.172921877066869456
0.170000000000000012,158.285877610626556589
0.171000000000000013,156.383142662580382876
0.172000000000000014,154.471745528499496913
0.173000000000000015,152.559054718519320204
0.174000000000000016,150.652158935200134238
0.175000000000000017,148.757407703157639389
0.176000000000000018,146.880106732409615233
0.177000000000000018,145.024351315597812118
0.178000000000000019,143.192975196122517900
0.179000000000000020,141.387590218332803715
0.180000000000000021,139.608692517031329317
0.181000000000000022,137.855813087827243635
0.182000000000000023,136.127693586532956260
0.183000000000000024,134.422471609852550500
0.184000000000000025,132.737863144567711515
0.185000000000000026,131.071333098127297490
0.186000000000000026,129.420247696823366823
0.187000000000000027,127.782004987174445887
0.188000000000000028,126.154141681288407995
0.189000000000000029,124.534416161752659491
0.190000000000000030,122.920868641502437413
0.191000000000000031,121.311860306674105914
0.192000000000000032,119.706093808306064830
0.193000000000000033,118.102617764876526962
0.194000000000000034,116.500818042239941974
0.195000000000000034,114.900398535999755723
0.196000000000000035,113.301354033506257224
0.197000000000000036,111.703937512240102592
0.198000000000000037,110.108623966148726936
0.199000000000000038,108.516072563825147768
0.200000000000000039,106.927088649553567734
0.201000000000000040,105.342586813122125022
0.202000000000000041,103.763555986160326938
0.203000000000000042,102.191027277751572910
0.204000000000000042,100.626045043867563322
0.205000000000000043,99.069641495484347615
0.206000000000000044,97.522814989264574592
0.207000000000000045,95.986512011528546395
0.208000000000000046,94.461612759190217048
0.209000000000000047,92.948920138201927443
0.210000000000000048,91.449151938323197442
0.211000000000000049,89.962935900067975581
0.212000000000000050,88.490807362838097561
0.213000000000000050,87.033209169968273500
0.214000000000000051,85.590493504272231462
0.215000000000000052,84.162925334488022600
0.216000000000000053,82.750687166777282755
0.217000000000000054,81.353884814378560009
0.218000000000000055,79.972553921123690657
0.219000000000000056,78.606666999491920933
0.220000000000000057,77.256140770105247384
0.221000000000000058,75.920843616171211465
0.222000000000000058,74.600602992622299325
0.223000000000000059,73.295212655035655303
0.224000000000000060,72.004439597409572116
0.225000000000000061,70.728030610219008167
0.226000000000000062,69.465718390671852944
0.227000000000000063,68.217227155618303414
0.228000000000000064,66.982277724077590619
0.229000000000000065,65.760592050847648693
0.230000000000000066,64.551897205207495745
0.231000000000000066,63.355928799386752814
0.232000000000000067,62.172433880382492077
0.233000000000000068,61.001173305966041482
0.234000000000000069,59.841923631489827073
0.235000000000000070,58.694478538510793442
0.236000000000000071,57.558649839446943020
0.237000000000000072,56.434268094609294053
0.238000000000000073,55.321182879149453981
0.239000000000000073,54.219262737861832591
0.240000000000000074,53.128394865497071464
0.241000000000000075,52.048484549403426058
0.242000000000000076,50.979454410011172172
0.243000000000000077,49.921243473010221692
0.244000000000000078,48.873806105129304456
0.245000000000000079,47.837110843275404193
0.246000000000000080,46.811139144509986920
0.247000000000000081,45.795884081969390422
0.248000000000000081,44.791349009441134399
0.249000000000000082,43.797546214918142482
0.250000000000000111,42.814495581108907629
0.251000000000000112,41.842223268608435660
0.252000000000000113,40.880760435255211860
0.253000000000000114,39.930142003134093898
0.254000000000000115,38.990405482740108312
0.255000000000000115,38.061589862009313379
0.256000000000000116,37.143734566251637830
0.257000000000000117,36.236878493490095821
0.258000000000000118,35.341059128323550453
0.259000000000000119,34.456311736181078231
0.260000000000000120,33.582668638723205845
0.261000000000000121,32.720158570165395417
0.262000000000000122,31.868806113442037287
0.263000000000000123,31.028631214393850968
0.264000000000000123,30.199648771535528624
0.265000000000000124,29.381868298438739373
0.266000000000000125,28.575293655341273080
0.267000000000000126,27.779922846255107771
0.268000000000000127,26.995747877589252539
0.269000000000000128,26.222754674119745033
0.270000000000000129,25.460923048019576953
0.271000000000000130,24.710226716599827057
0.272000000000000131,23.970633364404449139
0.273000000000000131,23.242104745334408733
0.274000000000000132,22.524596820551373355
0.275000000000000133,21.818059928016367621
0.276000000000000134,21.122438979652606861
0.277000000000000135,20.437673682279370979
0.278000000000000136,19.763698778637014186
0.279000000000000137,19.100444305013517976
0.280000000000000138,18.447835862183424638
0.281000000000000139,17.805794896576038866
0.282000000000000139,17.174238988803452344
0.283000000000000140,16.553082146891735960
0.284000000000000141,15.942235101773670536
0.285000000000000142,15.341605602812085962
0.286000000000000143,14.751098711331499302
0.287000000000000144,14.170617090338259558
0.288000000000000145,13.600061288804933923
0.289000000000000146,13.039330019085053181
0.290000000000000147,12.488320426203012303
0.291000000000000147,11.946928347937657122
0.292000000000000148,11.415048564779224805
0.293000000000000149,10.892575038993770775
0.294000000000000150,10.379401142171477801
0.295000000000000151,9.875419870769892583
0.296000000000000152,9.380524049286110611
0.297000000000000153,8.894606520807148087
0.298000000000000154,8.417560324791436344
0.299000000000000155,7.949278862030742410
0.300000000000000155,7.489656046827745328
0.301000000000000156,7.038586446502899996
0.302000000000000157,6.595965408412979514
0.303000000000000158,6.161689174726341811
0.304000000000000159,5.735654985253141547
0.305000000000000160,5.317761168676411465
0.306000000000000161,4.907907222569787287
0.307000000000000162,4.505993882621818436
0.308000000000000163,4.111923181515079406
0.309000000000000163,3.725598497930874053
0.310000000000000164,3.346924596167989652
0.311000000000000165,2.975807656877170082
0.312000000000000166,2.612155299421524912
0.313000000000000167,2.255876596378258547
0.314000000000000168,1.906882080698379722
0.315000000000000169,1.565083746039316326
0.316000000000000170,1.230395040780619675
0.317000000000000171,0.902730856226145684
0.318000000000000171,0.582007509486488495
0.319000000000000172,0.268142721523914829
0.320000000000000173,-0.038944409170405980
0.321000000000000174,-0.339333436812017886
0.322000000000000175,-0.633102602032389661
0.323000000000000176,-0.920328868638955244
0.324000000000000177,-1.201087963021143068
0.325000000000000178,-1.475454415815121267
0.326000000000000179,-1.743501605459449211
0.327000000000000179,-2.005301803291902552
0.328000000000000180,-2.260926219857567698
0.329000000000000181,-2.510445052117215692
0.330000000000000182,-2.753927531264079853
0.331000000000000183,-2.991441970876508982
0.332000000000000184,-3.223055815152375381
0.333000000000000185,-3.448835686989795590
0.334000000000000186,-3.668847435696876769
0.335000000000000187,-3.883156184130659661
0.336000000000000187,-4.091826375082964873
0.337000000000000188,-4.294921816746822607
0.338000000000000189,-4.492505727114051162
0.339000000000000190,-4.684640777169490455
0.340000000000000191,-4.871389132762257823
0.341000000000000192,-5.052812495048792485
0.342000000000000193,-5.228972139415991371
0.343000000000000194,-5.399928952805613136
0.344000000000000195,-5.565743469372957719
0.345000000000000195,-5.726475904425413432
0.346000000000000196,-5.882186186596092270
0.347000000000000197,-6.032933988219105537
0.348000000000000198,-6.178778753882029129
0.349000000000000199,-6.319779727140287129
0.350000000000000200,-6.455995975386658259
0.351000000000000201,-6.587486412876661923
0.352000000000000202,-6.714309821917860077
0.353000000000000203,-6.836524872237744077
0.354000000000000203,-6.954190138551064493
0.355000000000000204,-7.067364116352476522
0.356000000000000205,-7.176105235966067752
0.357000000000000206,-7.280471874887619599
0.358000000000000207,-7.380522368459073057
0.359000000000000208,-7.476315018919055255
0.360000000000000209,-7.567908102876049092
0.361000000000000210,-7.655359877253528289
0.362000000000000210,-7.738728583759160173
0.363000000000000211,-7.818072451931793232
0.364000000000000212,-7.893449700822119830
0.365000000000000213,-7.964918539363805117
0.366000000000000214,-8.032537165493451425
0.367000000000000215,-8.096363764078075675
0.368000000000000216,-8.156456503709938133
0.369000000000000217,-8.212873532428170975
0.370000000000000218,-8.265672972427447363
0.371000000000000218,-8.314912913813111928
0.372000000000000219,-8.360651407462468043
0.373000000000000220,-8.402946457051140072
0.374000000000000221,-8.441856010302785762
0.375000000000000222,-8.477437949519465832
0.376000000000000223,-8.509750081449697134
0.377000000000000224,-8.538850126549295538
0.378000000000000225,-8.564795707689551563
0.379000000000000226,-8.587644338365768348
0.380000000000000226,-8.607453410458138165
0.381000000000000227,-8.624280181594951245
0.382000000000000228,-8.638181762167459254
0.383000000000000229,-8.649215102043440240
0.384000000000000230,-8.657436977025342983
0.385000000000000231,-8.662903975097357545
0.386000000000000232,-8.665672482503689267
0.387000000000000233,-8.665798669699267265
0.388000000000000234,-8.663338477211732780
0.389000000000000234,-8.658347601452634379
0.390000000000000235,-8.650881480513442412
0.391000000000000236,-8.640995279980671739
0.392000000000000237,-8.628743878802580980
0.393000000000000238,-8.614181855238443930
0.394000000000000239,-8.597363472919330007
0.395000000000000240,-8.578342667048312720
0.396000000000000241,-8.557173030765891752
0.397000000000000242,-8.533907801705009177
0.398000000000000242,-8.508599848758773732
0.399000000000000243,-8.481301659081969646
0.400000000000000244,-8.452065325346389102
0.401000000000000245,-8.420942533268457098
0.402000000000000246,-8.387984549425997471
0.403000000000000247,-8.353242209379979855
0.404000000000000248,-8.316765906115488605
0.405000000000000249,-8.278605578814996591
0.406000000000000250,-8.238810701975642914
0.407000000000000250,-8.197430274881218892
0.408000000000000251,-8.154512811438223707
0.409000000000000252,-8.110106330384244444
0.410000000000000253,-8.064258345876019973
0.411000000000000254,-8.017015858463199862
0.412000000000000255,-7.968425346453097191
0.413000000000000256,-7.918532757670727840
0.414000000000000257,-7.867383501617223551
0.415000000000000258,-7.815022442029437855
0.416000000000000258,-7.761493889842038030
0.417000000000000259,-7.706841596553159590
0.418000000000000260,-7.651108747993596637
0.419000000000000261,-7.594337958499023600
0.420000000000000262,-7.536571265483834381
0.421000000000000263,-7.477850124414844757
0.422000000000000264,-7.418215404182229022
0.423000000000000265,-7.357707382864619561
0.424000000000000266,-7.296365743884976496
0.425000000000000266,-7.234229572552780319
0.426000000000000267,-7.171337352988413905
0.427000000000000268,-7.107726965424413734
0.428000000000000269,-7.043435683878394471
0.429000000000000270,-6.978500174192021177
0.430000000000000271,-6.912956492429604971
0.431000000000000272,-6.846840083630337581
0.432000000000000273,-6.780185780907236115
0.433000000000000274,-6.713027804886013250
0.434000000000000274,-6.645399763476612875
0.435000000000000275,-6.577334651970135226
0.436000000000000276,-6.508864853453633081
0.437000000000000277,-6.440022139534896439
0.438000000000000278,-6.370837671369568689
0.439000000000000279,-6.301342000982565139
0.440000000000000280,-6.231565072875594247
0.441000000000000281,-6.161536225912781717
0.442000000000000282,-6.091284195476141861
0.443000000000000282,-6.020837115882454071
0.444000000000000283,-5.950222523053471768
0.445000000000000284,-5.879467357430974594
0.446000000000000285,-5.808597967128231510
0.447000000000000286,-5.737640111309896263
0.448000000000000287,-5.666618963791515640
0.449000000000000288,-5.595559116850880699
0.450000000000000289,-5.524484585242518619
0.451000000000000290,-5.453418810407457684
0.452000000000000290,-5.382384664870044411
0.453000000000000291,-5.311404456813630048
0.454000000000000292,-5.240499934827389517
0.455000000000000293,-5.169692292816131740
0.456000000000000294,-5.099002175065495024
0.457000000000000295,-5.028449681454786102
0.458000000000000296,-4.958054372809781896
0.459000000000000297,-4.887835276388211803
0.460000000000000298,-4.817810891490330150
0.461000000000000298,-4.747999195187623478
0.462000000000000299,-4.678417648162334075
0.463000000000000300,-4.609083200650885281
0.464000000000000301,-4.540012298484443320
0.465000000000000302,-4.471220889219927663
0.466000000000000303,-4.402724428354725994
0.467000000000000304,-4.334537885618973796
0.468000000000000305,-4.266675751338926403
0.469000000000000306,-4.199152042865361700
0.470000000000000306,-4.131980311061170141
0.471000000000000307,-4.065173646842019650
0.472000000000000308,-3.998744687764737904
0.473000000000000309,-3.932705624657659715
0.474000000000000310,-3.867068208287725017
0.475000000000000311,-3.801843756058870039
0.476000000000000312,-3.737043158737060278
0.477000000000000313,-3.672676887196508311
0.478000000000000314,-3.608754999182706147
0.479000000000000314,-3.545287146087519936
0.480000000000000315,-3.482282579731764915
0.481000000000000316,-3.419750159151119906
0.482000000000000317,-3.357698357380989762
0.483000000000000318,-3.296135268236448645
0.484000000000000319,-3.235068613083210032
0.485000000000000320,-3.174505747595994798
0.486000000000000321,-3.114453668500547057
0.487000000000000322,-3.054919020295936427
0.488000000000000322,-2.995908101953587366
0.489000000000000323,-2.937426873590131216
0.490000000000000324,-2.879480963110670366
0.491000000000000325,-2.822075672819700287
0.492000000000000326,-2.765215985996706927
0.493000000000000327,-2.708906573433895293
0.494000000000000328,-2.653151799933283428
0.495000000000000329,-2.597955730760819204
0.496000000000000330,-2.543322138055065018
0.497000000000000330,-2.489254507188342291
0.498000000000000331,-2.435756043077960342
0.499000000000000332,-2.382829676445874068
0.500000000000000333,-2.330478070024530446
0.501000000000000334,-2.278703624707198561
0.502000000000000335,-2.227508485641172431
0.503000000000000336,-2.176894548262132467
0.504000000000000337,-2.126863464268166748
0.505000000000000338,-2.077416647532079885
0.506000000000000338,-2.028555279950643886
0.507000000000000339,-1.980280317229533793
0.508000000000000340,-1.932592494602791477
0.509000000000000341,-1.885492332485900091
0.510000000000000342,-1.838980142061223955
0.511000000000000343,-1.793056030795181943
0.512000000000000344,-1.747719907886121415
0.513000000000000345,-1.702971489642285619
0.514000000000000346,-1.658810304789148926
0.515000000000000346,-1.615235699705479533
0.516000000000000347,-1.572246843587617349
0.517000000000000348,-1.529842733541597166
0.518000000000000349,-1.488022199602466289
0.519000000000000350,-1.446783909680746216
0.520000000000000351,-1.406126374435479942
0.521000000000000352,-1.366047952073876193
0.522000000000000353,-1.326546853077183119
0.523000000000000353,-1.287621144852754140
0.524000000000000354,-1.249268756312289508
0.525000000000000355,-1.211487482376112368
0.526000000000000356,-1.174274988403575026
0.527000000000000357,-1.137628814549746625
0.528000000000000358,-1.101546380048239238
0.529000000000000359,-1.066024987420728376
0.530000000000000360,-1.031061826612932553
0.531000000000000361,-0.996653979057654404
0.532000000000000361,-0.962798421664886606
0.533000000000000362,-0.929492030739501041
0.534000000000000363,-0.896731585826683442
0.535000000000000364,-0.864513773485633075
0.536000000000000365,-0.832835190991815799
0.537000000000000366,-0.801692349968322282
0.538000000000000367,-0.771081679946616361
0.539000000000000368,-0.740999531857420179
0.540000000000000369,-0.711442181451931055
0.541000000000000369,-0.682405832654228051
0.542000000000000370,-0.653886620845129940
0.543000000000000371,-0.625880616078300256
0.544000000000000372,-0.598383826229089033
0.545000000000000373,-0.571392200076769607
0.546000000000000374,-0.544901630320742791
0.547000000000000375,-0.518907956531430736
0.548000000000000376,-0.493406968036500804
0.549000000000000377,-0.468394406743083469
0.550000000000000377,-0.443865969896653945
0.551000000000000378,-0.419817312777337637
0.552000000000000379,-0.396244051334323222
0.553000000000000380,-0.373141764759103933
0.554000000000000381,-0.350505997998248997
0.555000000000000382,-0.328332264206565472
0.556000000000000383,-0.306616047141207493
0.557000000000000384,-0.285352803497717411
0.558000000000000385,-0.264537965188528568
0.559000000000000385,-0.244166941564898432
0.560000000000000386,-0.224235121582910368
0.561000000000000387,-0.204737875914388440
0.562000000000000388,-0.185670559003452751
0.563000000000000389,-0.167028511069571950
0.564000000000000390,-0.148807060057817631
0.565000000000000391,-0.131001523537153858
0.566000000000000392,-0.113607210547509302
0.567000000000000393,-0.096619423396507281
0.568000000000000393,-0.080033459406501126
0.569000000000000394,-0.063844612612811200
0.570000000000000395,-0.048048175413918329
0.571000000000000396,-0.032639440174358679
0.572000000000000397,-0.017613700781187423
0.573000000000000398,-0.002966254154645265
0.574000000000000399,0.011307598285993847
0.575000000000000400,0.025212549200851052
0.576000000000000401,0.038753283951214558
0.577000000000000401,0.051934479263895314
0.578000000000000402,0.064760801937527840
0.579000000000000403,0.077236907589982168
0.580000000000000404,0.089367439446051966
0.581000000000000405,0.101157027164874916
0.582000000000000406,0.112610285706146174
0.583000000000000407,0.123731814234515514
0.584000000000000408,0.134526195061396181
0.585000000000000409,0.144997992623456862
0.586000000000000409,0.155151752497097450
0.587000000000000410,0.164992000448182574
0.588000000000000411,0.174523241516367555
0.589000000000000412,0.183749959133236412
0.590000000000000413,0.192676614273682711
0.591000000000000414,0.201307644639756755
0.592000000000000415,0.209647463876314333
0.593000000000000416,0.217700460817867564
0.594000000000000417,0.225470998765913200
0.595000000000000417,0.232963414796047485
0.596000000000000418,0.240182019094401344
0.597000000000000419,0.247131094322497941
0.598000000000000420,0.253814895010157304
0.599000000000000421,0.260237646975643222
0.600000000000000422,0.266403546772533528
0.601000000000000423,0.272316761162689602
0.602000000000000424,0.277981426614708427
0.603000000000000425,0.283401648827285024
0.604000000000000425,0.288581502276913759
0.605000000000000426,0.293525029789349301
0.606000000000000427,0.298236242134187424
0.607000000000000428,0.302719117642245295
0.608000000000000429,0.306977601844784176
0.609000000000000430,0.311015607134549565
0.610000000000000431,0.314837012447592712
0.611000000000000432,0.318445662965717746
0.612000000000000433,0.321845369838895112
0.613000000000000433,0.325039909927074822
