# AuFCC100-Ablate25_ETA-AC
# h[nm],U(h)[kJ/mol]
0.200000000000000011,121.878953638312538033
0.201000000000000012,116.694278123359751476
0.202000000000000013,113.221554399599696694
0.203000000000000014,110.471623313373783049
0.204000000000000015,107.917479031502693942
0.205000000000000016,105.314707182912300709
0.206000000000000016,102.582353886390905018
0.207000000000000017,99.726048756970470777
0.208000000000000018,96.790212358231471512
0.209000000000000019,93.829897996365133395
0.210000000000000020,90.895563297591920104
0.211000000000000021,88.026079243190139323
0.212000000000000022,85.246746997284617464
0.213000000000000023,82.570145839586558623
0.214000000000000024,79.998384930231594581
0.215000000000000024,77.525857672934179732
0.216000000000000025,75.141960424678728714
0.217000000000000026,72.833482370613182866
0.218000000000000027,70.586534137249614673
0.219000000000000028,68.387983992031593061
0.220000000000000029,66.226430494343716759
0.221000000000000030,64.092772471524284583
0.222000000000000031,61.980450725397517431
0.223000000000000032,59.885437700025704544
0.224000000000000032,57.806046191529198097
0.225000000000000033,55.742619296474650525
0.226000000000000034,53.697153336602887919
0.227000000000000035,51.672894851169232311
0.228000000000000036,49.673942754755749718
0.229000000000000037,47.704877880997933914
0.230000000000000038,45.770434578701369333
0.231000000000000039,43.875222836774447899
0.232000000000000040,42.023504524833604989
0.233000000000000040,40.219023624130272765
0.234000000000000041,38.464887636172349517
0.235000000000000042,36.763495532592962434
0.236000000000000043,35.116506491909426302
0.237000000000000044,33.524843111023088227
0.238000000000000045,31.988722651785728601
0.239000000000000046,30.507710073551969288
0.240000000000000047,29.080787017011214601
0.241000000000000048,27.706431465338948072
0.242000000000000048,26.382703453843191710
0.243000000000000049,25.107332880475844661
0.244000000000000050,23.877806150274757613
0.245000000000000051,22.691449040351304944
0.246000000000000052,21.545503780012076334
0.247000000000000053,20.437198891183818716
0.248000000000000054,19.363810820947360725
0.249000000000000055,18.322716818183192089
0.250000000000000056,17.311438860640841142
0.251000000000000056,16.327678729932930679
0.252000000000000057,15.369344564306379297
0.253000000000000058,14.434569397818389547
0.254000000000000059,13.521722325528775954
0.255000000000000060,12.629413023511133929
0.256000000000000061,11.756490405816444778
0.257000000000000062,10.902036223703122531
0.258000000000000063,10.065354410818738273
0.259000000000000064,9.245956956484258527
0.260000000000000064,8.443547052205017778
0.261000000000000065,7.658000207924368752
0.262000000000000066,6.889343977745002512
0.263000000000000067,6.137736872793800202
0.264000000000000068,5.403446974049893825
0.265000000000000069,4.686830692328835646
0.266000000000000070,3.988312057866362892
0.267000000000000071,3.308362859370244102
0.268000000000000071,2.647483893009751732
0.269000000000000072,2.006187526314524572
0.270000000000000073,1.384981730864235372
0.271000000000000074,0.784355691275609890
0.272000000000000075,0.204767056481488824
0.273000000000000076,-0.353369137332156691
0.274000000000000077,-0.889689874603310948
0.275000000000000078,-1.403891928772678543
0.276000000000000079,-1.895738043680071927
0.277000000000000079,-2.365061599216410126
0.278000000000000080,-2.811769847391915711
0.279000000000000081,-3.235845816438028155
0.280000000000000082,-3.637348988885101164
0.281000000000000083,-4.016414865090352393
0.282000000000000084,-4.373253526760313648
0.283000000000000085,-4.708147315939602784
0.284000000000000086,-5.021447744026419358
0.285000000000000087,-5.313571742910095708
0.286000000000000087,-5.584997366573114519
0.287000000000000088,-5.836259046702211073
0.288000000000000089,-6.067942500232181402
0.289000000000000090,-6.280679380502735221
0.290000000000000091,-6.475141757018832323
0.291000000000000092,-6.652036501828987980
0.292000000000000093,-6.812099653408009381
0.293000000000000094,-6.956090821771587329
0.294000000000000095,-7.084787691459794701
0.295000000000000095,-7.198980672090148580
0.296000000000000096,-7.299467739468168404
0.297000000000000097,-7.387049503811172535
0.298000000000000098,-7.462524535532641501
0.299000000000000099,-7.526684973285187041
0.300000000000000100,-7.580312433591454457
0.301000000000000101,-7.624174236421415785
0.302000000000000102,-7.659019956508704929
0.303000000000000103,-7.685578306040037333
0.304000000000000103,-7.704554350595787859
0.305000000000000104,-7.716627056860372313
0.306000000000000105,-7.722447167644512334
0.307000000000000106,-7.722635397153721826
0.308000000000000107,-7.717780937182238787
0.309000000000000108,-7.708440262988753844
0.310000000000000109,-7.695136226000980351
0.311000000000000110,-7.678357419178263754
0.312000000000000111,-7.658557799814881939
0.313000000000000111,-7.636156553768347344
0.314000000000000112,-7.611538184527266715
0.315000000000000113,-7.585052810169163884
0.316000000000000114,-7.557016651081665870
0.317000000000000115,-7.527712691308870774
0.318000000000000116,-7.497391496520910081
0.319000000000000117,-7.466272171870431684
0.320000000000000118,-7.434543443377103600
0.321000000000000119,-7.402364846955533650
0.322000000000000119,-7.369868009757233551
0.323000000000000120,-7.337158009119804092
0.324000000000000121,-7.304314795094294155
0.325000000000000122,-7.271394663241679268
0.326000000000000123,-7.238431765142014918
0.327000000000000124,-7.205439644834553015
0.328000000000000125,-7.172412790196291965
0.329000000000000126,-7.139328189060582197
0.330000000000000127,-7.106146880671079025
0.331000000000000127,-7.072815493853175539
0.332000000000000128,-7.039267764058591226
0.333000000000000129,-7.005426022196106217
0.334000000000000130,-6.971202648896992926
0.335000000000000131,-6.936501488575943952
0.336000000000000132,-6.901219218332149907
0.337000000000000133,-6.865246667391245339
0.338000000000000134,-6.828470083412750746
0.339000000000000135,-6.790772342580213561
0.340000000000000135,-6.752034100950072393
0.341000000000000136,-6.712134885060708100
0.342000000000000137,-6.670954120294700473
0.343000000000000138,-6.628372095944865983
0.344000000000000139,-6.584270866358679086
0.345000000000000140,-6.538535087927006551
0.346000000000000141,-6.491052792041283048
0.347000000000000142,-6.441716094470690379
0.348000000000000143,-6.390421841907535594
0.349000000000000143,-6.337072196695776150
0.350000000000000144,-6.281575160996835550
0.351000000000000145,-6.223845041858236726
0.352000000000000146,-6.163802858836724852
0.353000000000000147,-6.101376695988742327
0.354000000000000148,-6.036502000179798877
0.355000000000000149,-5.969121827780312195
0.356000000000000150,-5.899187041912087537
0.357000000000000151,-5.826656462486264232
0.358000000000000151,-5.751496971332978880
0.359000000000000152,-5.673683574765684412
0.360000000000000153,-5.593199425950744264
0.361000000000000154,-5.510035809466455881
0.362000000000000155,-5.424192090436516622
0.363000000000000156,-5.335675630612209730
0.364000000000000157,-5.244501673756030158
0.365000000000000158,-5.150693202649167191
0.366000000000000159,-5.054280770005396661
0.367000000000000159,-4.955302305527460760
0.368000000000000160,-4.853802901288761795
0.369000000000000161,-4.749834577563532001
0.370000000000000162,-4.643456031164864939
0.371000000000000163,-4.534732368281662040
0.372000000000000164,-4.423734823733150634
0.373000000000000165,-4.310540468485589471
0.374000000000000166,-4.195231907198084365
0.375000000000000167,-4.077896967486067226
0.376000000000000167,-3.958628382511010901
0.377000000000000168,-3.837523468424142603
0.378000000000000169,-3.714683798111130475
0.379000000000000170,-3.590214872603905150
0.380000000000000171,-3.464225791445158187
0.381000000000000172,-3.336828923211818676
0.382000000000000173,-3.208139577324890190
0.383000000000000174,-3.078275678196258802
0.384000000000000175,-2.947357442686929119
0.385000000000000175,-2.815507061777696496
0.386000000000000176,-2.682848387280950764
0.387000000000000177,-2.549506624352436468
0.388000000000000178,-2.415608030494257985
0.389000000000000179,-2.281279621674550562
0.390000000000000180,-2.146648886126664380
0.391000000000000181,-2.011843506329493270
0.392000000000000182,-1.876991089613112562
0.393000000000000183,-1.742218907777466130
0.394000000000000183,-1.607653646059452823
0.395000000000000184,-1.473421161732869633
0.396000000000000185,-1.339646252577551211
0.397000000000000186,-1.206452435408948087
0.398000000000000187,-1.073961734816133884
0.399000000000000188,-0.942294482215649487
0.400000000000000189,-0.811569125290910187
0.401000000000000190,-0.681902047850647564
0.402000000000000191,-0.553407400107141845
0.403000000000000191,-0.426196939343219949
0.404000000000000192,-0.300379880908703711
0.405000000000000193,-0.176062759459850421
0.406000000000000194,-0.053349300330879770
0.407000000000000195,0.067659699096033241
0.408000000000000196,0.186866478176681394
0.409000000000000197,0.304176412119893214
0.410000000000000198,0.419498101621941621
0.411000000000000199,0.532743453226061980
0.412000000000000199,0.643827750626432604
0.413000000000000200,0.752669717148134021
0.414000000000000201,0.859191569645354369
0.415000000000000202,0.963319064069514064
0.416000000000000203,1.064981532966473132
0.417000000000000204,1.164111915169346201
0.418000000000000205,1.260646777958245091
0.419000000000000206,1.354526331963056718
0.420000000000000207,1.445694439088686334
0.421000000000000207,1.534098613743992034
0.422000000000000208,1.619690017657846592
0.423000000000000209,1.702423448565422603
0.424000000000000210,1.782257323048122233
0.425000000000000211,1.859153653809263673
0.426000000000000212,1.933078021665895152
0.427000000000000213,2.003999542534922629
0.428000000000000214,2.071890829688499913
0.429000000000000214,2.136727951550474014
0.430000000000000215,2.198490385301446359
0.431000000000000216,2.257160966555628256
0.432000000000000217,2.312725835368026228
0.433000000000000218,2.365174378825104284
0.434000000000000219,2.414499170466644529
0.435000000000000220,2.460695906780809850
0.436000000000000221,2.503763341008311105
0.437000000000000222,2.543703214485367958
0.438000000000000222,2.580520185748760742
0.439000000000000223,2.614221757619529907
0.440000000000000224,2.644818202475565094
0.441000000000000225,2.672322485916059698
0.442000000000000226,2.696750189014184507
0.443000000000000227,2.718119429347555904
0.444000000000000228,2.736450780988692433
0.445000000000000229,2.751767193631181829
0.446000000000000230,2.764093911019898542
0.447000000000000230,2.773458388847060974
0.448000000000000231,2.779890212268701699
0.449000000000000232,2.783421013189482984
0.450000000000000233,2.784084387457088638
0.451000000000000234,2.781915812100415941
0.452000000000000235,2.776952562739661623
0.453000000000000236,2.769233631289550690
0.454000000000000237,2.758799644070652146
0.455000000000000238,2.745692780437671399
0.456000000000000238,2.729956692027151632
0.457000000000000239,2.711636422721340089
0.458000000000000240,2.690778329418855641
0.459000000000000241,2.667430003697237595
0.460000000000000242,2.641640194446812639
0.461000000000000243,2.613458731549914482
0.462000000000000244,2.582936450674197637
0.463000000000000245,2.550125119243778826
0.464000000000000246,2.515077363646754272
0.465000000000000246,2.477846597733138534
0.466000000000000247,2.438486952652348716
0.467000000000000248,2.397053208075098585
0.468000000000000249,2.353600724840107183
0.469000000000000250,2.308185379061875597
0.470000000000000251,2.260863497731874006
0.471000000000000252,2.211691795841558505
0.472000000000000253,2.160727315051787834
0.473000000000000254,2.108027363930085496
0.474000000000000254,2.053649459773300379
0.475000000000000255,1.997651272030330105
0.476000000000000256,1.940090567336311578
0.477000000000000257,1.881025156166808099
0.478000000000000258,1.820512841117555736
0.479000000000000259,1.758611366812956600
0.480000000000000260,1.695378371443600596
0.481000000000000261,1.630871339930966002
0.482000000000000262,1.565147558715035192
0.483000000000000262,1.498264072158476568
0.484000000000000263,1.430277640558945240
0.485000000000000264,1.361244699759238896
0.486000000000000265,1.291221322343082845
0.487000000000000266,1.220263180402876513
0.488000000000000267,1.148425509863962635
0.489000000000000268,1.075763076348518421
0.490000000000000269,1.002330142561003168
0.491000000000000270,0.928180437175531781
0.492000000000000270,0.853367125204635535
0.493000000000000271,0.777942779827591524
0.494000000000000272,0.701959355655754180
0.495000000000000273,0.625468163410953570
0.496000000000000274,0.548519845992896160
0.497000000000000275,0.471164355910095978
0.498000000000000276,0.393450934048480694
0.499000000000000277,0.315428089751414009
0.500000000000000222,0.237143582183812762
0.501000000000000334,0.158644402953220964
0.502000000000000224,0.079976759959792559
0.503000000000000336,0.001186062446965019
0.504000000000000226,-0.077683092775424178
0.505000000000000338,-0.156586933964671049
0.506000000000000227,-0.235482525963762429
0.507000000000000339,-0.314327780634513887
0.508000000000000229,-0.393081466233769439
0.509000000000000341,-0.471703215762402650
0.510000000000000231,-0.550153534315566572
0.511000000000000343,-0.628393805463873911
0.512000000000000233,-0.706386296693840232
0.513000000000000345,-0.784094163937042454
0.514000000000000234,-0.861481455216097869
0.515000000000000346,-0.938513113436483914
0.516000000000000236,-1.015154978351934467
0.517000000000000348,-1.091373787732011547
0.518000000000000238,-1.167137177759033140
0.519000000000000350,-1.242413682682421250
0.520000000000000240,-1.317172733756989400
0.521000000000000352,-1.391384657492633847
0.522000000000000242,-1.465020673241222537
0.523000000000000353,-1.538052890147499685
0.524000000000000243,-1.610454303488931149
0.525000000000000355,-1.682198790430543101
0.526000000000000245,-1.753261105218954397
0.527000000000000357,-1.823616873840706365
0.528000000000000247,-1.893242588168305263
0.529000000000000359,-1.962115599618091011
0.530000000000000249,-2.030214112342628052
0.531000000000000361,-2.097517175980629922
0.532000000000000250,-2.164004677986250957
0.533000000000000362,-2.229657335559952713
0.534000000000000252,-2.294456687201512857
0.535000000000000364,-2.358385083906801238
0.536000000000000254,-2.421425680027700089
0.537000000000000366,-2.483562423815755427
0.538000000000000256,-2.544780047668299794
0.539000000000000368,-2.605064058096297597
0.540000000000000258,-2.664400725431861794
0.541000000000000369,-2.722777073293793926
0.542000000000000259,-2.780180867827932278
0.543000000000000371,-2.836600606739802632
0.544000000000000261,-2.892025508135543710
0.545000000000000373,-2.946445499187354322
0.546000000000000263,-2.999851204638677604
0.547000000000000375,-3.052233935164486045
0.548000000000000265,-3.103585675600780913
0.549000000000000377,-3.153899073057855773
0.550000000000000266,-3.203167424930556617
0.551000000000000378,-3.251384666819080671
0.552000000000000268,-3.298545360372789226
0.553000000000000380,-3.344644681069598224
0.554000000000000270,-3.389678405942611050
0.555000000000000382,-3.433642901265679281
0.556000000000000272,-3.476535110208783586
0.557000000000000384,-3.518352540473956847
0.558000000000000274,-3.559093251922014645
0.559000000000000385,-3.598755844199890142
0.560000000000000275,-3.637339444378057784
0.561000000000000387,-3.674843694607203837
0.562000000000000277,-3.711268739802657368
0.563000000000000389,-3.746615215365241003
0.564000000000000279,-3.780884234946179312
0.565000000000000391,-3.814077378264048690
0.566000000000000281,-3.846196678980741801
0.567000000000000393,-3.877244612643718114
0.568000000000000282,-3.907224084700905653
0.569000000000000394,-3.936138418594836708
0.570000000000000284,-3.963991343941706269
0.571000000000000396,-3.990786984801449222
0.572000000000000286,-4.016529848043870032
0.573000000000000398,-4.041224811816205076
0.574000000000000288,-4.064877114116795198
0.575000000000000400,-4.087492341479576297
0.576000000000000290,-4.109076417773506407
0.577000000000000401,-4.129635593121199655
0.578000000000000291,-4.149176432940302917
0.579000000000000403,-4.167705807111389937
0.580000000000000293,-4.185230879275485094
0.581000000000000405,-4.201759096264483517
0.582000000000000295,-4.217298177667109904
0.583000000000000407,-4.231856105533304380
0.584000000000000297,-4.245441114219167922
0.585000000000000409,-4.258061680375006652
0.586000000000000298,-4.269726513078241581
0.587000000000000410,-4.280444544113189309
0.588000000000000300,-4.290224918399284881
0.589000000000000412,-4.299076984569279780
0.590000000000000302,-4.307010285698656737
0.591000000000000414,-4.314034550187496819
0.592000000000000304,-4.320159682795723377
0.593000000000000416,-4.325395755832500910
0.594000000000000306,-4.329753000500609517
0.595000000000000417,-4.333241798396240796
0.596000000000000307,-4.335872673164606894
0.597000000000000419,-4.337656282311696643
0.598000000000000309,-4.338603409172316461
0.599000000000000421,-4.338724955034367170
0.600000000000000311,-4.338031931419386922
0.601000000000000423,-4.336535452519067135
0.602000000000000313,-4.334246727787439468
0.603000000000000425,-4.331177054688419403
0.604000000000000314,-4.327337811598069628
0.605000000000000426,-4.322740450861068062
0.606000000000000316,-4.317396492000697528
0.607000000000000428,-4.311317515081490193
0.608000000000000318,-4.304515154223865991
0.609000000000000430,-4.297001091269586404
0.610000000000000320,-4.288787049597265089
0.611000000000000432,-4.279884788086669722
0.612000000000000322,-4.270306095230852250
0.613000000000000433,-4.260062783394743313
0.614000000000000323,-4.249166683219136154
0.615000000000000435,-4.237629638168600721
0.616000000000000325,-4.225463499222025021
0.617000000000000437,-4.212680119704431014
0.618000000000000327,-4.199291350258535616
0.619000000000000439,-4.185309033954562885
0.620000000000000329,-4.170745001536863228
0.621000000000000441,-4.155611066805640519
0.622000000000000330,-4.139919022132308335
0.623000000000000442,-4.123680634106735354
0.624000000000000332,-4.106907639314782976
0.625000000000000444,-4.089611740244407656
0.626000000000000334,-4.071804601318658179
0.627000000000000446,-4.053497845053726678
0.628000000000000336,-4.034703048340464449
0.629000000000000448,-4.015431738847408560
0.630000000000000338,-3.995695391543661490
0.631000000000000449,-3.975505425339736831
0.632000000000000339,-3.954873199844637810
0.633000000000000451,-3.933810012237223042
0.634000000000000341,-3.912327094250162673
0.635000000000000453,-3.890435609264534467
0.636000000000000343,-3.868146649513295010
0.637000000000000455,-3.845471233391692945
0.638000000000000345,-3.822420302872887365
0.639000000000000457,-3.799004721026749909
0.640000000000000346,-3.775235269640231373
0.641000000000000458,-3.751122646937177230
0.642000000000000348,-3.726677465396023958
0.643000000000000460,-3.701910249663244112
0.644000000000000350,-3.676831434561012024
0.645000000000000462,-3.651451363186939858
0.646000000000000352,-3.625780285104373668
0.647000000000000464,-3.599828354621154691
0.648000000000000353,-3.573605629155326202
0.649000000000000465,-3.547122067685642754
0.650000000000000355,-3.520387529285523787
0.651000000000000467,-3.493411771738232918
0.652000000000000357,-3.466204450231967993
0.653000000000000469,-3.438775116132664067
0.654000000000000359,-3.411133215833243248
0.655000000000000471,-3.383288089677178423
0.656000000000000361,-3.355248970955002186
0.657000000000000473,-3.327024984971796329
0.658000000000000362,-3.298625148184256339
0.659000000000000474,-3.270058367405467070
0.660000000000000364,-3.241333439075903211
0.661000000000000476,-3.212459048598903077
0.662000000000000366,-3.183443769739195961
0.663000000000000478,-3.154296064082677375
0.664000000000000368,-3.125024280556111922
0.665000000000000480,-3.095636655005013615
