# AuFCC100-Ablate25_LEUSCA-AC
# h[nm],U(h)[kJ/mol]
0.200000000000000011,173.985677064402892711
0.201000000000000012,163.738300679984519093
0.202000000000000013,158.636451244944879591
0.203000000000000014,155.785029070816619878
0.204000000000000015,153.570428554874240490
0.205000000000000016,151.188560442004444440
0.206000000000000016,148.324130353449334052
0.207000000000000017,144.937610686623628453
0.208000000000000018,141.127895342807107681
0.209000000000000019,137.047305020531155151
0.210000000000000020,132.852095718182937389
0.211000000000000021,128.676440056846900006
0.212000000000000022,124.621404660835509048
0.213000000000000023,120.753047824191298787
0.214000000000000024,117.105647934850964020
0.215000000000000024,113.687426155038878051
0.216000000000000025,110.487084678037334129
0.217000000000000026,107.480148986732388039
0.218000000000000027,104.634557666818949428
0.219000000000000028,101.915245496336069664
0.220000000000000029,99.287658712817375317
0.221000000000000030,96.720258077837513611
0.222000000000000031,94.186129483262590156
0.223000000000000032,91.663850717137705715
0.224000000000000032,89.137769085882936793
0.225000000000000033,86.597836692040388584
0.226000000000000034,84.039134424962497860
0.227000000000000035,81.461196299833389389
0.228000000000000036,78.867225416964117812
0.229000000000000037,76.263273227413691302
0.230000000000000038,73.657435983849453009
0.231000000000000039,71.059106733389256760
0.232000000000000040,68.478308146103273657
0.233000000000000040,65.925120828776556436
0.234000000000000041,63.409213378033754793
0.235000000000000042,60.939474038176797421
0.236000000000000043,58.523739174108527550
0.237000000000000044,56.168610571160584755
0.238000000000000045,53.879351566705700805
0.239000000000000046,51.659850960882536697
0.240000000000000047,49.512643331024023041
0.241000000000000048,47.438974601395038633
0.242000000000000048,45.438902340669521607
0.243000000000000049,43.511421145653478959
0.244000000000000050,41.654604517446799150
0.245000000000000051,39.865755763843310433
0.246000000000000052,38.141561606674457607
0.247000000000000053,36.478243288441298375
0.248000000000000054,34.871701025817337438
0.249000000000000055,33.317648626219465768
0.250000000000000056,31.811735954174970686
0.251000000000000056,30.349657700068839006
0.252000000000000057,28.927247563694827193
0.253000000000000058,27.540557521433036925
0.254000000000000059,26.185922304185488940
0.255000000000000060,24.860009580671921015
0.256000000000000061,23.559856625717628731
0.257000000000000062,22.282894464752288854
0.258000000000000063,21.026960633032167891
0.259000000000000064,19.790301780082319993
0.260000000000000064,18.571567395103990350
0.261000000000000065,17.369795935623894678
0.262000000000000066,16.184394616813580825
0.263000000000000067,15.015114069310746103
0.264000000000000068,13.862019004901517505
0.265000000000000069,12.725455947221075093
0.266000000000000070,11.606018993135364781
0.267000000000000071,10.504514473438270272
0.268000000000000071,9.421925282089897991
0.269000000000000072,8.359375544005551717
0.270000000000000073,7.318096194458765247
0.271000000000000074,6.299391950105387217
0.272000000000000075,5.304610063693850464
0.273000000000000076,4.335111172588312911
0.274000000000000077,3.392242475883368691
0.275000000000000078,2.477313406483529157
0.276000000000000079,1.591573903196193074
0.277000000000000079,0.736195333618415049
0.278000000000000080,-0.087745928767982304
0.279000000000000081,-0.879282310611731122
0.280000000000000082,-1.637566299571125539
0.281000000000000083,-2.361879260349360798
0.282000000000000084,-3.051637929256627135
0.283000000000000085,-3.706398728745988080
0.284000000000000086,-4.325860056915045604
0.285000000000000087,-4.909862716445492659
0.286000000000000087,-5.458388653328941409
0.287000000000000088,-5.971558178442154308
0.288000000000000089,-6.449625845010390712
0.289000000000000090,-6.892975152633947111
0.290000000000000091,-7.302112244217755510
0.291000000000000092,-7.677658756185058664
0.292000000000000093,-8.020343975081235754
0.293000000000000094,-8.330996445371956938
0.294000000000000095,-8.610535164162905986
0.295000000000000095,-8.859960488946081014
0.296000000000000096,-9.080344874507961350
0.297000000000000097,-9.272823544995494771
0.298000000000000098,-9.438585196974967673
0.299000000000000099,-9.578862819268296747
0.300000000000000100,-9.694924705516626773
0.301000000000000101,-9.788065725894364633
0.302000000000000102,-9.859598915248867002
0.303000000000000103,-9.910847426230947832
0.304000000000000103,-9.943136887750405606
0.305000000000000104,-9.957788201373372061
0.306000000000000105,-9.956110801093270624
0.307000000000000106,-9.939396395265822193
0.308000000000000107,-9.908913203406720882
0.309000000000000108,-9.865900695001887044
0.310000000000000109,-9.811564832468171460
0.311000000000000110,-9.747073815910948014
0.312000000000000111,-9.673554323338228400
0.313000000000000111,-9.592088236486171482
0.314000000000000112,-9.503709839366063505
0.315000000000000113,-9.409403474031627468
0.316000000000000114,-9.310101635863029301
0.317000000000000115,-9.206683488841004959
0.318000000000000116,-9.099973779815428543
0.319000000000000117,-8.990742129628893409
0.320000000000000118,-8.879702678110257708
0.321000000000000119,-8.767514059379296398
0.322000000000000119,-8.654779683575641869
0.323000000000000120,-8.542048301017461043
0.324000000000000121,-8.429814824884989122
0.325000000000000122,-8.318521388787369020
0.326000000000000123,-8.208558615986914830
0.327000000000000124,-8.100267077602666177
0.328000000000000125,-7.993938917776977071
0.329000000000000126,-7.889819624544548660
0.330000000000000127,-7.788109925979442849
0.331000000000000127,-7.688967792095676046
0.332000000000000128,-7.592510523926405241
0.333000000000000129,-7.498816912194899764
0.334000000000000130,-7.407929449003842315
0.335000000000000131,-7.319856576999998587
0.336000000000000132,-7.234574961507069801
0.337000000000000133,-7.152031772155237555
0.338000000000000134,-7.072146961561763590
0.339000000000000135,-6.994815529628863437
0.340000000000000135,-6.919909763015359871
0.341000000000000136,-6.847281440304539224
0.342000000000000137,-6.776763994326792329
0.343000000000000138,-6.708174623999441977
0.344000000000000139,-6.641316348914583223
0.345000000000000140,-6.575980000737219555
0.346000000000000141,-6.511946146267455049
0.347000000000000142,-6.448986937772721362
0.348000000000000143,-6.386867886906808067
0.349000000000000143,-6.325349559201405292
0.350000000000000144,-6.264189186744284044
0.351000000000000145,-6.203142197244260636
0.352000000000000146,-6.141963658229149914
0.353000000000000147,-6.080409635628315712
0.354000000000000148,-6.018238466457836111
0.355000000000000149,-5.955211945754145475
0.356000000000000150,-5.891096428293316478
0.357000000000000151,-5.825663845988040990
0.358000000000000151,-5.758692642175425647
0.359000000000000152,-5.689968624296186661
0.360000000000000153,-5.619285736722663849
0.361000000000000154,-5.546446755718991817
0.362000000000000155,-5.471263908715007673
0.363000000000000156,-5.393559420246747393
0.364000000000000157,-5.313165987061760021
0.365000000000000158,-5.229927185010571300
0.366000000000000159,-5.143697810444608720
0.367000000000000159,-5.054344158920821783
0.368000000000000160,-4.961744244073293508
0.369000000000000161,-4.865787959554050524
0.370000000000000162,-4.766377186971459068
0.371000000000000163,-4.663425852765501922
0.372000000000000164,-4.556859936955739876
0.373000000000000165,-4.446617436682950064
0.374000000000000166,-4.332648287437942614
0.375000000000000167,-4.214914244834218948
0.376000000000000167,-4.093388729734900977
0.377000000000000168,-3.968056639489667248
0.378000000000000169,-3.838914127975940893
0.379000000000000170,-3.705968357070795971
0.380000000000000171,-3.569237222106197205
0.381000000000000172,-3.428749053782740752
0.382000000000000173,-3.284542298934562066
0.383000000000000174,-3.136665182453475698
0.384000000000000175,-2.985175352592138065
0.385000000000000175,-2.830139511776790240
0.386000000000000176,-2.671633034968709186
0.387000000000000177,-2.509739577521467702
0.388000000000000178,-2.344550674388868661
0.389000000000000179,-2.176165332445326950
0.390000000000000180,-2.004689617588904404
0.391000000000000181,-1.830236238204960841
0.392000000000000182,-1.652924126478682920
0.393000000000000183,-1.472878018954608237
0.394000000000000183,-1.290228037654309379
0.395000000000000184,-1.105109272977096824
0.396000000000000185,-0.917661369524384485
0.397000000000000186,-0.728028115907029316
0.398000000000000187,-0.536357039514702705
0.399000000000000188,-0.342799007149306778
0.400000000000000189,-0.147507832349912771
0.401000000000000190,0.049360109836344181
0.402000000000000191,0.247646259951417480
0.403000000000000191,0.447190242473863742
0.404000000000000192,0.647830224862205539
0.405000000000000193,0.849403266801844081
0.406000000000000194,1.051745659221807516
0.407000000000000195,1.254693252703591888
0.408000000000000196,1.458081774958162269
0.409000000000000197,1.661747137097537408
0.410000000000000198,1.865525728475448286
0.411000000000000199,2.069254699917356000
0.412000000000000199,2.272772235202723756
0.413000000000000200,2.475917810702772393
0.414000000000000201,2.678532443115099859
0.415000000000000202,2.880458925272110893
0.416000000000000203,3.081542050032815006
0.417000000000000204,3.281628822299588855
0.418000000000000205,3.480568659229023698
0.419000000000000206,3.678213578733367406
0.420000000000000207,3.874418376393749863
0.421000000000000207,4.069040790928069029
0.422000000000000208,4.261941658378457731
0.423000000000000209,4.452985055200828768
0.424000000000000210,4.642038430457102294
0.425000000000000211,4.828972727325693270
0.426000000000000212,5.013662494159855321
0.427000000000000213,5.195985985335915380
0.428000000000000214,5.375825252144034394
0.429000000000000214,5.553066223984213678
0.430000000000000215,5.727598780138007939
0.431000000000000216,5.899316812393439413
0.432000000000000217,6.068118278806968746
0.433000000000000218,6.233905248890402540
0.434000000000000219,6.396583940514814159
0.435000000000000220,6.556064748826112343
0.436000000000000221,6.712262267468730670
0.437000000000000222,6.865095302414954581
0.438000000000000222,7.014486878697452354
0.439000000000000223,7.160364240342050657
0.440000000000000224,7.302658843796767663
0.441000000000000225,7.441306345150986878
0.442000000000000226,7.576246581436045346
0.443000000000000227,7.707423546296136685
0.444000000000000228,7.834785360314198144
0.445000000000000229,7.958284236273992285
0.446000000000000230,8.077876439634982475
0.447000000000000230,8.193522244492065454
0.448000000000000231,8.305185885287006187
0.449000000000000232,8.412835504533113351
0.450000000000000233,8.516443096809151569
0.451000000000000234,8.615984449272449552
0.452000000000000235,8.711439078935340419
0.453000000000000236,8.802790166942672911
0.454000000000000237,8.890024490081714248
0.455000000000000238,8.973132349749544545
0.456000000000000238,9.052107498596001278
0.457000000000000239,9.126947065054107355
0.458000000000000240,9.197651475962555168
0.459000000000000241,9.264224377478750938
0.460000000000000242,9.326672554473415033
0.461000000000000243,9.385005848591655209
0.462000000000000244,9.439237075158001034
0.463000000000000245,9.489381939096816154
0.464000000000000246,9.535458950032161596
0.465000000000000246,9.577489336725012237
0.466000000000000247,9.615496960998930476
0.467000000000000248,9.649508231298934646
0.468000000000000249,9.679552016021705896
0.469000000000000250,9.705659556749150596
0.470000000000000251,9.727864381511029279
0.471000000000000252,9.746202218196279077
0.472000000000000253,9.760710908226595706
0.473000000000000254,9.771430320600121178
0.474000000000000254,9.778402266407232091
0.475000000000000255,9.781670413914756779
0.476000000000000256,9.781280204309707571
0.477000000000000257,9.777278768187917635
0.478000000000000258,9.769714842868076232
0.479000000000000259,9.758638690606519006
0.480000000000000260,9.744102017783003333
0.481000000000000261,9.726157895123288100
0.482000000000000262,9.704860679019251535
0.483000000000000262,9.680265934003347894
0.484000000000000263,9.652430356429231750
0.485000000000000264,9.621411699406797524
0.486000000000000265,9.587268699035265129
0.487000000000000266,9.550061001974457398
0.488000000000000267,9.509849094390506963
0.489000000000000268,9.466694232308341839
0.490000000000000269,9.420658373400373264
0.491000000000000270,9.371804110236791274
0.492000000000000270,9.320194605020237333
0.493000000000000271,9.265893525824058230
0.494000000000000272,9.208964984350899385
0.495000000000000273,9.149473475224862540
0.496000000000000274,9.087483816828603622
0.497000000000000275,9.023061093693490520
0.498000000000000276,8.956270600448670294
0.499000000000000277,8.887177787332882772
0.500000000000000222,8.815848207270020609
0.501000000000000334,8.742347464507981059
0.502000000000000224,8.666741164817816312
0.503000000000000336,8.589094867248585174
0.504000000000000226,8.509474037431584037
0.505000000000000338,8.427944002425489245
0.506000000000000227,8.344569907093100980
0.507000000000000339,8.259416671997984238
0.508000000000000229,8.172548952808913469
0.509000000000000341,8.084031101197508562
0.510000000000000231,7.993927127214594641
0.511000000000000343,7.902300663128253078
0.512000000000000233,7.809214928706884606
0.513000000000000345,7.714732697928171845
0.514000000000000234,7.618916267095333872
0.515000000000000346,7.521827424339923240
0.516000000000000236,7.423527420490915851
0.517000000000000348,7.324076941287718689
0.518000000000000238,7.223536080915728519
0.519000000000000350,7.121964316840693421
0.520000000000000240,7.019420485919445341
0.521000000000000352,6.915962761762381561
0.522000000000000242,6.811648633324258739
0.523000000000000353,6.706534884697902044
0.524000000000000243,6.600677576086869003
0.525000000000000355,6.494132025931077301
0.526000000000000245,6.386952794160823288
0.527000000000000357,6.279193666552954411
0.528000000000000247,6.170907640164268848
0.529000000000000359,6.062146909815775864
0.530000000000000249,5.952962855602550007
0.531000000000000361,5.843406031402919254
0.532000000000000250,5.733526154361729077
0.533000000000000362,5.623372095321234276
0.534000000000000252,5.512991870174904996
0.535000000000000364,5.402432632117380784
0.536000000000000254,5.291740664766491520
0.537000000000000366,5.180961376130747809
0.538000000000000256,5.070139293398353786
0.539000000000000368,4.959318058521873240
0.540000000000000258,4.848540424574740548
0.541000000000000369,4.737848252854243825
0.542000000000000259,4.627282510707845020
0.543000000000000371,4.516883270057888033
0.544000000000000261,4.406689706601847334
0.545000000000000373,4.296740099664297041
0.546000000000000263,4.187071832678057604
0.547000000000000375,4.077721394271074828
0.548000000000000265,3.968724379937786928
0.549000000000000377,3.860115494271704417
0.550000000000000266,3.751928553738783645
0.551000000000000378,3.644196489969233177
0.552000000000000268,3.536951353547697519
0.553000000000000380,3.430224318280611584
0.554000000000000270,3.324045685921125592
0.555000000000000382,3.218444891331273539
0.556000000000000272,3.113450508062544753
0.557000000000000384,3.009090254335410997
0.558000000000000274,2.905390999399530383
0.559000000000000385,2.802378770256172213
0.560000000000000275,2.700078758725359851
0.561000000000000387,2.598515328839920979
0.562000000000000277,2.497712024549985976
0.563000000000000389,2.397691577720681089
0.564000000000000279,2.298475916407476394
0.565000000000000391,2.200086173392739486
0.566000000000000281,2.102542694968736470
0.567000000000000393,2.005865049951381707
0.568000000000000282,1.910072038910782810
0.569000000000000394,1.815181703603641505
0.570000000000000284,1.721211336594507202
0.571000000000000396,1.628177491051404191
0.572000000000000286,1.536095990703725489
0.573000000000000398,1.444981939948903671
0.574000000000000288,1.354849734096121860
0.575000000000000400,1.265713069734476282
0.576000000000000290,1.177584955214701079
0.577000000000000401,1.090477721232401720
0.578000000000000291,1.004403031502628441
0.579000000000000403,0.919371893514662752
0.580000000000000293,0.835394669357293340
0.581000000000000405,0.752481086604107396
0.582000000000000295,0.670640249250065046
0.583000000000000407,0.589880648689202536
0.584000000000000297,0.510210174725515886
0.585000000000000409,0.431636126607542192
0.586000000000000298,0.354165224079257546
0.587000000000000410,0.277803618438442368
0.588000000000000300,0.202556903595713045
0.589000000000000412,0.128430127126038574
0.590000000000000302,0.055427801306395977
0.591000000000000414,-0.016446085867919624
0.592000000000000304,-0.087188059694254777
0.593000000000000416,-0.156795147807572866
0.594000000000000306,-0.225264869265078355
0.595000000000000417,-0.292595223676580918
0.596000000000000307,-0.358784680385644039
0.597000000000000419,-0.423832167707253071
0.598000000000000309,-0.487737062226659635
0.599000000000000421,-0.550499178164255420
0.600000000000000311,-0.612118756811084075
0.601000000000000423,-0.672596456039353807
0.602000000000000313,-0.731933339891718715
0.603000000000000425,-0.790130868253825058
0.604000000000000314,-0.847190886613086946
0.605000000000000426,-0.903115615907875258
0.606000000000000316,-0.957907642469802978
0.607000000000000428,-1.011569908062676326
0.608000000000000318,-1.064105700020716139
0.609000000000000430,-1.115518641489040785
0.610000000000000320,-1.165812681768639170
0.611000000000000432,-1.214992086768692747
0.612000000000000322,-1.263061429567959859
0.613000000000000433,-1.310025581087749913
0.614000000000000323,-1.355889700878119664
0.615000000000000435,-1.400659228019232039
0.616000000000000325,-1.444339872139276171
0.617000000000000437,-1.486937604550815584
0.618000000000000327,-1.528458649506476918
0.619000000000000439,-1.568909475575563928
0.620000000000000329,-1.608296787142461159
0.621000000000000441,-1.646627516027910243
0.622000000000000330,-1.683908813233970125
0.623000000000000442,-1.720148040813499479
0.624000000000000332,-1.755352763864526766
0.625000000000000444,-1.789530742650460526
0.626000000000000334,-1.822689924846115250
0.627000000000000446,-1.854838437910222737
0.628000000000000336,-1.885984581584452702
0.629000000000000448,-1.916136820519238171
0.630000000000000338,-1.945303777026230474
0.631000000000000449,-1.973494223957710236
0.632000000000000339,-2.000717077712461212
0.633000000000000451,-2.026981391368208207
0.634000000000000341,-2.052296347940135046
0.635000000000000453,-2.076671253765458580
0.636000000000000343,-2.100115532013201669
0.637000000000000455,-2.122638716319246832
0.638000000000000345,-2.144250444545606094
0.639000000000000457,-2.164960452663787116
0.640000000000000346,-2.184778568761257311
0.641000000000000458,-2.203714707170581821
0.642000000000000348,-2.221778862720273473
0.643000000000000460,-2.238981105106751190
0.644000000000000350,-2.255331573386391231
0.645000000000000462,-2.270840470586958038
0.646000000000000352,-2.285518058437309818
0.647000000000000464,-2.299374652214636772
0.648000000000000353,-2.312420615707990290
0.649000000000000465,-2.324666356297279357
0.650000000000000355,-2.336122320146519549
0.651000000000000467,-2.346798987510313239
0.652000000000000357,-2.356706868152458334
0.653000000000000469,-2.365856496875387904
0.654000000000000359,-2.374258429159503692
0.655000000000000471,-2.381923236910965525
0.656000000000000361,-2.388861504316843742
0.657000000000000473,-2.395083823806387180
0.658000000000000362,-2.400600792117102422
0.659000000000000474,-2.405423006464402214
0.660000000000000364,-2.409561060813500966
0.661000000000000476,-2.413025542252308142
0.662000000000000366,-2.415827027463930854
0.663000000000000478,-2.417976079297496916
0.664000000000000368,-2.419483243435947006
0.665000000000000480,-2.420359045159492961
0.666000000000000369,-2.420613986203283829
0.667000000000000481,-2.420258541708067312
