# AuFCC100-Ablate25_CS-210-AC
# h[nm],U(h)[kJ/mol]
0.200000000000000011,129.928233800705640988
0.201000000000000012,121.382550938549414354
0.202000000000000013,116.576503197935110734
0.203000000000000014,113.436981575527966015
0.204000000000000015,110.812659303513783016
0.205000000000000016,108.131393491697892273
0.206000000000000016,105.168561526499459546
0.207000000000000017,101.894053377204244271
0.208000000000000018,98.374283474371239322
0.209000000000000019,94.712059257299486603
0.210000000000000020,91.011965646743121283
0.211000000000000021,87.362494446033224449
0.212000000000000022,83.828771457915649989
0.213000000000000023,80.451646709338305641
0.214000000000000024,77.250293916228571334
0.215000000000000024,74.226450667976507702
0.216000000000000025,71.369124230312451118
0.217000000000000026,68.659067451473077881
0.218000000000000027,66.072653667625758089
0.219000000000000028,63.584992550419009660
0.220000000000000029,61.172263034159001904
0.221000000000000030,58.813318750175142213
0.222000000000000031,56.490663267283572679
0.223000000000000032,54.190909525451978368
0.224000000000000032,51.904839171269870235
0.225000000000000033,49.627169393132255948
0.226000000000000034,47.356121674019405532
0.227000000000000035,45.092871557568550145
0.228000000000000036,42.840942952347411676
0.229000000000000037,40.605595839712883333
0.230000000000000038,38.393243150514727802
0.231000000000000039,36.210921334605771449
0.232000000000000040,34.065829833763373813
0.233000000000000040,31.964947207032480492
0.234000000000000041,29.914725886262807819
0.235000000000000042,27.920863253739526044
0.236000000000000043,25.988143712814796515
0.237000000000000044,24.120344448655934855
0.238000000000000045,22.320196446001919099
0.239000000000000046,20.589391860891947061
0.240000000000000047,18.928628873654648856
0.241000000000000048,17.337685544826189954
0.242000000000000048,15.815514840857684220
0.243000000000000049,14.360353800434898730
0.244000000000000050,12.969840701912470848
0.245000000000000051,11.641135011229186702
0.246000000000000052,10.371035795349804687
0.247000000000000053,9.156095148190924959
0.248000000000000054,7.992723973277530369
0.249000000000000055,6.877288186992156049
0.250000000000000056,5.806194041326891764
0.251000000000000056,4.775961813386407684
0.252000000000000057,3.783287571914395464
0.253000000000000058,2.825093112790272087
0.254000000000000059,1.898564461470217735
0.255000000000000060,1.001179577543424459
0.256000000000000061,0.130726072339405169
0.257000000000000062,-0.714690127538302078
0.258000000000000063,-1.536644162256838531
0.259000000000000064,-2.336398621379559781
0.260000000000000064,-3.114915877947897371
0.261000000000000065,-3.872875346947629360
0.262000000000000066,-4.610694683736072719
0.263000000000000067,-5.328553996281997662
0.264000000000000068,-6.026422214637579877
0.265000000000000069,-6.704084838181505468
0.266000000000000070,-7.361172362674028413
0.267000000000000071,-7.997188772411045754
0.268000000000000071,-8.611539565589691136
0.269000000000000072,-9.203558861679686842
0.270000000000000073,-9.772535216784886458
0.271000000000000074,-10.317735845670258144
0.272000000000000075,-10.838429016604168353
0.273000000000000076,-11.333904446948142919
0.274000000000000077,-11.803491583257363473
0.275000000000000078,-12.246575699438290386
0.276000000000000079,-12.662611790295233760
0.277000000000000079,-13.051136275743340676
0.278000000000000080,-13.411776563314546706
0.279000000000000081,-13.744258543647159598
0.280000000000000082,-14.048412115781562903
0.281000000000000083,-14.324174856669831257
0.282000000000000084,-14.571593962747650508
0.283000000000000085,-14.790826601119883676
0.284000000000000086,-14.982138814281862338
0.285000000000000087,-15.145903125730962202
0.286000000000000087,-15.282594994698030177
0.287000000000000088,-15.392788266904437577
0.288000000000000089,-15.477149765066718246
0.289000000000000090,-15.536433158140775745
0.290000000000000091,-15.571472242307700995
0.291000000000000092,-15.583173759718732754
0.292000000000000093,-15.572509873271124903
0.293000000000000094,-15.540510407393639980
0.294000000000000095,-15.488254956165494747
0.295000000000000095,-15.416864951240517811
0.296000000000000096,-15.327495773140549673
0.297000000000000097,-15.221328980640709716
0.298000000000000098,-15.099564724295827745
0.299000000000000099,-14.963414401738745596
0.300000000000000100,-14.814093604284972017
0.301000000000000101,-14.652815396660750835
0.302000000000000102,-14.480783964375305573
0.303000000000000103,-14.299188656412514575
0.304000000000000103,-14.109198444545066664
0.305000000000000104,-13.911956814686314843
0.306000000000000105,-13.708577100297324236
0.307000000000000106,-13.500138262954910928
0.308000000000000107,-13.287681120756790421
0.309000000000000108,-13.072205021277147452
0.310000000000000109,-12.854664952276541712
0.311000000000000110,-12.635969080294412237
0.312000000000000111,-12.416976704590119596
0.313000000000000111,-12.198496611626497454
0.314000000000000112,-11.981285813384911165
0.315000000000000113,-11.766048651237060341
0.316000000000000114,-11.553436245853472286
0.317000000000000115,-11.344046272673724118
0.318000000000000116,-11.138423041777045341
0.319000000000000117,-10.937057860548140553
0.320000000000000118,-10.740389657308321958
0.321000000000000119,-10.548805844054511383
0.322000000000000119,-10.362643396595482059
0.323000000000000120,-10.182190130675902395
0.324000000000000121,-10.007686153114164540
0.325000000000000122,-9.839325467531741864
0.326000000000000123,-9.677257714902065544
0.327000000000000124,-9.521590029879746453
0.328000000000000125,-9.372388994672700591
0.329000000000000126,-9.229682673074293575
0.330000000000000127,-9.093462708169923303
0.331000000000000127,-8.963686468160329213
0.332000000000000128,-8.840279225691064724
0.333000000000000129,-8.723136357036588961
0.334000000000000130,-8.612125548448329226
0.335000000000000131,-8.507088997933243135
0.336000000000000132,-8.407845601674496905
0.337000000000000133,-8.314193115235191556
0.338000000000000134,-8.225910280593234702
0.339000000000000135,-8.142758910937653027
0.340000000000000135,-8.064485926009046679
0.341000000000000136,-7.990825331588020219
0.342000000000000137,-7.921500137521883644
0.343000000000000138,-7.856224209430697769
0.344000000000000139,-7.794704049946863833
0.345000000000000140,-7.736640506017789853
0.346000000000000141,-7.681730399437062928
0.347000000000000142,-7.629668078367048523
0.348000000000000143,-7.580146888174179587
0.349000000000000143,-7.532860560417693918
0.350000000000000144,-7.487504519314481577
0.351000000000000145,-7.443777105447074049
0.352000000000000146,-7.401380716889748967
0.353000000000000147,-7.360022868300641896
0.354000000000000148,-7.319417168866364065
0.355000000000000149,-7.279284220291279084
0.356000000000000150,-7.239352436298183591
0.357000000000000151,-7.199358785351057222
0.358000000000000151,-7.159049458526308918
0.359000000000000152,-7.118180464647140937
0.360000000000000153,-7.076518154958554518
0.361000000000000154,-7.033839679758787433
0.362000000000000155,-6.989933379518777024
0.363000000000000156,-6.944599113115812017
0.364000000000000157,-6.897648525881821868
0.365000000000000158,-6.848905260223557612
0.366000000000000159,-6.798205111610390539
0.367000000000000159,-6.745396132749311491
0.368000000000000160,-6.690338688775677944
0.369000000000000161,-6.632905466283768092
0.370000000000000162,-6.572981439005258331
0.371000000000000163,-6.510463792916627135
0.372000000000000164,-6.445261813519254090
0.373000000000000165,-6.377296737990941544
0.374000000000000166,-6.306501574853594860
0.375000000000000167,-6.232820893741794599
0.376000000000000167,-6.156210587790812205
0.377000000000000168,-6.076637611090922597
0.378000000000000169,-5.994079693579235091
0.379000000000000170,-5.908525035660742830
0.380000000000000171,-5.819971984767597917
0.381000000000000172,-5.728428695980848140
0.382000000000000173,-5.633912778751904327
0.383000000000000174,-5.536450931673219777
0.384000000000000175,-5.436078567158366681
0.385000000000000175,-5.332839427802763765
0.386000000000000176,-5.226785196106921383
0.387000000000000177,-5.117975099155112062
0.388000000000000178,-5.006475509754530151
0.389000000000000179,-4.892359545452558578
0.390000000000000180,-4.775706666764295782
0.391000000000000181,-4.656602275857875561
0.392000000000000182,-4.535137316862983603
0.393000000000000183,-4.411407878886866918
0.394000000000000183,-4.285514802744024188
0.395000000000000184,-4.157563292329254701
0.396000000000000185,-4.027662531489588638
0.397000000000000186,-3.895925307179385122
0.398000000000000187,-3.762467639613528370
0.399000000000000188,-3.627408420067102846
0.400000000000000189,-3.490869056906275691
0.401000000000000190,-3.352973130373306354
0.402000000000000191,-3.213846056590591527
0.403000000000000191,-3.073614761191854505
0.404000000000000192,-2.932407362935847139
0.405000000000000193,-2.790352867606734399
0.406000000000000194,-2.647580872457289569
0.407000000000000195,-2.504221281405488497
0.408000000000000196,-2.360404031151696724
0.409000000000000197,-2.216258828343282250
0.410000000000000198,-2.071914897875173356
0.411000000000000199,-1.927500742378893461
0.412000000000000199,-1.783143912919159746
0.413000000000000200,-1.638970790885884599
0.414000000000000201,-1.495106381040080201
0.415000000000000202,-1.351674115645117968
0.416000000000000203,-1.208795669590117416
0.417000000000000204,-1.066590786388540657
0.418000000000000205,-0.925177114914552456
0.419000000000000206,-0.784670056719968700
0.420000000000000207,-0.645182623756790585
0.421000000000000207,-0.506825306315086821
0.422000000000000208,-0.369705950970564357
0.423000000000000209,-0.233929648324320144
0.424000000000000210,-0.099598630305086908
0.425000000000000211,0.033187823205398904
0.426000000000000212,0.164333468672081928
0.427000000000000213,0.293745174387167574
0.428000000000000214,0.421332987393495007
0.429000000000000214,0.547010192118288940
0.430000000000000215,0.670693360988706022
0.431000000000000216,0.792302397303928485
0.432000000000000217,0.911760570641167112
0.433000000000000218,1.028994545074030542
0.434000000000000219,1.143934400482615743
0.435000000000000220,1.256513647234599684
0.436000000000000221,1.366669234515832887
0.437000000000000222,1.474341552587568938
0.438000000000000222,1.579474429245450784
0.439000000000000223,1.682015120752833326
0.440000000000000224,1.781914297518170986
0.441000000000000225,1.879126024782540538
0.442000000000000226,1.973607738579392645
0.443000000000000227,2.065320217224790866
0.444000000000000228,2.154227548591228114
0.445000000000000229,2.240297093413675444
0.446000000000000230,2.323499444870980035
0.447000000000000230,2.403808384680627075
0.448000000000000231,2.481200835938977889
0.449000000000000232,2.555656812933463584
0.450000000000000233,2.627159368147225837
0.451000000000000234,2.695694536670501407
0.452000000000000235,2.761251278227036199
0.453000000000000236,2.823821417017415847
0.454000000000000237,2.883399579574795091
0.455000000000000238,2.939983130822402480
0.456000000000000238,2.993572108515411667
0.457000000000000239,3.044169156243790031
0.458000000000000240,3.091779455165848400
0.459000000000000241,3.136410654636375472
0.460000000000000242,3.178072801886361098
0.461000000000000243,3.216778270905468418
0.462000000000000244,3.252541690671836960
0.463000000000000245,3.285379872867932871
0.464000000000000246,3.315311739214787057
0.465000000000000246,3.342358248551166700
0.466000000000000247,3.366542323778238366
0.467000000000000248,3.387888778784561961
0.468000000000000249,3.406424245460375921
0.469000000000000250,3.422177100904794322
0.470000000000000251,3.435177394923882410
0.471000000000000252,3.445456777912438984
0.472000000000000253,3.453048429206778902
0.473000000000000254,3.457986985991178930
0.474000000000000254,3.460308472835285531
0.475000000000000255,3.460050231935201115
0.476000000000000256,3.457250854126267203
0.477000000000000257,3.451950110730931165
0.478000000000000258,3.444188886300704411
0.479000000000000259,3.434009112307143230
0.480000000000000260,3.421453701832264382
0.481000000000000261,3.406566485305273950
0.482000000000000262,3.389392147328224247
0.483000000000000262,3.369976164629844284
0.484000000000000263,3.348364745182919933
0.485000000000000264,3.324604768517438913
0.486000000000000265,3.298743727258039549
0.487000000000000266,3.270829669911519577
0.488000000000000267,3.240911144926884369
0.489000000000000268,3.209037146047362121
0.490000000000000269,3.175257058971432400
0.491000000000000270,3.139620609336736479
0.492000000000000270,3.102177812038582783
0.493000000000000271,3.062978921892028694
0.494000000000000272,3.022074385644506478
0.495000000000000273,2.979514795343274791
0.496000000000000274,2.935350843060471782
0.497000000000000275,2.889633276976094844
0.498000000000000276,2.842412858817404242
0.499000000000000277,2.793740322651791619
0.500000000000000222,2.743666335027910463
0.501000000000000334,2.692241456458890347
0.502000000000000224,2.639516104239393535
0.503000000000000336,2.585540516587232052
0.504000000000000226,2.530364718098871979
0.505000000000000338,2.474038486506668910
0.506000000000000227,2.416611320724984857
0.507000000000000339,2.358132410170717286
0.508000000000000229,2.298650605343349085
0.509000000000000341,2.238214389648019331
0.510000000000000231,2.176871852445072530
0.511000000000000343,2.114670663307884446
0.512000000000000233,2.051658047470929169
0.513000000000000345,1.987880762448476890
0.514000000000000234,1.923385075804616706
0.515000000000000346,1.858216744053938330
0.516000000000000236,1.792420992672505431
0.517000000000000348,1.726042497197458392
0.518000000000000238,1.659125365394218177
0.519000000000000350,1.591713120468788434
0.520000000000000240,1.523848685303576422
0.521000000000000352,1.455574367693732274
0.522000000000000242,1.386931846561944015
0.523000000000000353,1.317962159128289512
0.524000000000000243,1.248705689012908238
0.525000000000000355,1.179202155247896844
0.526000000000000245,1.109490602175935869
0.527000000000000357,1.039609390212094642
0.528000000000000247,0.969596187446280178
0.529000000000000359,0.899487962062923474
0.530000000000000249,0.829320975555309259
0.531000000000000361,0.759130776711481658
0.532000000000000250,0.688952196349319146
0.533000000000000362,0.618819342777831460
0.534000000000000252,0.548765597962904805
0.535000000000000364,0.478823614374480400
0.536000000000000254,0.409025312494125548
0.537000000000000366,0.339401878960340297
0.538000000000000256,0.269983765330816028
0.539000000000000368,0.200800687439780440
0.540000000000000258,0.131881625329969748
0.541000000000000369,0.063254823737914911
0.542000000000000259,-0.005052206887212229
0.543000000000000371,-0.073012688851969501
0.544000000000000261,-0.140600575193583432
0.545000000000000373,-0.207790547181215313
0.546000000000000263,-0.274558011362464327
0.547000000000000375,-0.340879096174382945
0.548000000000000265,-0.406730648136837403
0.549000000000000377,-0.472090227647092076
0.550000000000000266,-0.536936104392708113
0.551000000000000378,-0.601247252400792576
0.552000000000000268,-0.665003344740194069
0.553000000000000380,-0.728184747893727335
0.554000000000000270,-0.790772515816456689
0.555000000000000382,-0.852748383696356194
0.556000000000000272,-0.914094761432634129
0.557000000000000384,-0.974794726847231452
0.558000000000000274,-1.034832018644239682
0.559000000000000385,-1.094191029131850623
0.560000000000000275,-1.152856796720861610
0.561000000000000387,-1.210814998213755711
0.562000000000000277,-1.268051940897468199
0.563000000000000389,-1.324554554453296618
0.564000000000000279,-1.380310382696280369
0.565000000000000391,-1.435307575156786086
0.566000000000000281,-1.489534878515926142
0.567000000000000393,-1.542981627906871767
0.568000000000000282,-1.595637738093000690
0.569000000000000394,-1.647493694534226449
0.570000000000000284,-1.698540544351703874
0.571000000000000396,-1.748769887201777617
0.572000000000000286,-1.798173866068603077
0.573000000000000398,-1.846745157985518304
0.574000000000000288,-1.894476964694189247
0.575000000000000400,-1.941363003250876629
0.576000000000000290,-1.987397496588156898
0.577000000000000401,-2.032575164040921756
0.578000000000000291,-2.076891211844396068
0.579000000000000403,-2.120341323612286555
0.580000000000000293,-2.162921650802330564
0.581000000000000405,-2.204628803176822416
0.582000000000000295,-2.245459839264652757
0.583000000000000407,-2.285412256832057842
0.584000000000000297,-2.324483983367997109
0.585000000000000409,-2.362673366590834600
0.586000000000000298,-2.399979164981762558
0.587000000000000410,-2.436400538351060074
0.588000000000000300,-2.471937038442230783
0.589000000000000412,-2.506588599579537835
0.590000000000000302,-2.540355529363579556
0.591000000000000414,-2.573238499419896463
0.592000000000000304,-2.605238536204890210
0.593000000000000416,-2.636357011873472267
0.594000000000000306,-2.666595635212432036
0.595000000000000417,-2.695956442643494100
0.596000000000000307,-2.724441789299530292
0.597000000000000419,-2.752054340177627179
0.598000000000000309,-2.778797061372144661
0.599000000000000421,-2.804673211390826815
0.600000000000000311,-2.829686332557001194
0.601000000000000423,-2.853840242500553348
0.602000000000000313,-2.877139025740094169
0.603000000000000425,-2.899587025359045001
0.604000000000000314,-2.921188834777500354
0.605000000000000426,-2.941949289622294295
0.606000000000000316,-2.961873459696940269
0.607000000000000428,-2.980966641053394817
0.608000000000000318,-2.999234348167258535
0.609000000000000430,-3.016682306217893572
0.610000000000000320,-3.033316443474819657
0.611000000000000432,-3.049142883791739145
0.612000000000000322,-3.064167939209196501
0.613000000000000433,-3.078398102666946023
0.614000000000000323,-3.091840040826937308
0.615000000000000435,-3.104500587007650747
0.616000000000000325,-3.116386734230428779
0.617000000000000437,-3.127505628378516978
0.618000000000000327,-3.137864561469095204
0.619000000000000439,-3.147470965038807300
0.620000000000000329,-3.156332403643024254
0.621000000000000441,-3.164456568469019349
0.622000000000000330,-3.171851271063192090
0.623000000000000442,-3.178524437172371986
0.624000000000000332,-3.184484100699064957
0.625000000000000444,-3.189738397770660150
0.626000000000000334,-3.194295560922260968
0.627000000000000446,-3.198163913392931157
0.628000000000000336,-3.201351863535030873
0.629000000000000448,-3.203867899336219516
0.630000000000000338,-3.205720583053633277
0.631000000000000449,-3.206918545959813294
0.632000000000000339,-3.207470483199732492
0.633000000000000451,-3.207385148758299387
0.634000000000000341,-3.206671350537694032
0.635000000000000453,-3.205337945543853095
0.636000000000000343,-3.203393835181200355
0.637000000000000455,-3.200847960655008873
0.638000000000000345,-3.197709298480343243
0.639000000000000457,-3.193986856096859839
0.640000000000000346,-3.189689667588452515
0.641000000000000458,-3.184826789506812528
0.642000000000000348,-3.179407296797923443
0.643000000000000460,-3.173440278830449657
0.644000000000000350,-3.166934835525019754
0.645000000000000462,-3.159900073583256308
0.646000000000000352,-3.152345102815551137
0.647000000000000464,-3.144279032566386523
0.648000000000000353,-3.135710968236143259
0.649000000000000465,-3.126650007898125860
0.650000000000000355,-3.117105239009788420
0.651000000000000467,-3.107085735216782219
0.652000000000000357,-3.096600553248840981
0.653000000000000469,-3.085658729906002318
0.654000000000000359,-3.074269279134274058
0.655000000000000471,-3.062441189189191171
0.656000000000000361,-3.050183419886220104
0.657000000000000473,-3.037504899936640967
0.658000000000000362,-3.024414524367719181
0.659000000000000474,-3.010921152025830771
0.660000000000000364,-2.997033603161315618
0.661000000000000476,-2.982760657093735723
0.662000000000000366,-2.968111049956319469
0.663000000000000478,-2.953093472518204088
0.664000000000000368,-2.937716568083326596
