# AuFCC100-Ablate25_CS-3530-AC
# h[nm],U(h)[kJ/mol]
0.200000000000000011,122.743794923710495937
0.201000000000000012,114.730932787899405412
0.202000000000000013,110.058714844586532422
0.203000000000000014,106.893776441976385172
0.204000000000000015,104.221940153654870187
0.205000000000000016,101.540783420880160293
0.206000000000000016,98.652847772294677497
0.207000000000000017,95.529890459651468859
0.208000000000000018,92.226583501140737553
0.209000000000000019,88.828042272437500060
0.210000000000000020,85.420003730935633257
0.211000000000000021,82.073748039335612248
0.212000000000000022,78.840254188688348336
0.213000000000000023,75.749819883472966353
0.214000000000000024,72.814625790871929212
0.215000000000000024,70.032611293768965766
0.216000000000000025,67.391649139499392618
0.217000000000000026,64.873432092285767681
0.218000000000000027,62.456769957398378779
0.219000000000000028,60.120180391536415243
0.220000000000000029,57.843771487519596519
0.221000000000000030,55.610480028095331306
0.222000000000000031,53.406762382884551243
0.223000000000000032,51.222846651629687642
0.224000000000000032,49.052652897703019619
0.225000000000000033,46.893478784134941861
0.226000000000000034,44.745534447328580541
0.227000000000000035,42.611395553432032557
0.228000000000000036,40.495428785671087724
0.229000000000000037,38.403230462828290115
0.230000000000000038,36.341107094778287490
0.231000000000000039,34.315616643440748135
0.232000000000000040,32.333181083523498955
0.233000000000000040,30.399774433491263181
0.234000000000000041,28.520685572450723555
0.235000000000000042,26.700351661147969651
0.236000000000000043,24.942255626079649744
0.237000000000000044,23.248879734160148303
0.238000000000000045,21.621706588149692152
0.239000000000000046,20.061258738900011878
0.240000000000000047,18.567168392023077672
0.241000000000000048,17.138269260137292349
0.242000000000000048,15.772703376010928977
0.243000000000000049,14.468036555569771195
0.244000000000000050,13.221377119608073158
0.245000000000000051,12.029493401229441218
0.246000000000000052,10.888926447626507965
0.247000000000000053,9.796095145536735771
0.248000000000000054,8.747391744024271887
0.249000000000000055,7.739266407433481376
0.250000000000000056,6.768300002058230014
0.251000000000000056,5.831264802905429256
0.252000000000000057,4.925173205441748081
0.253000000000000058,4.047314846966530766
0.254000000000000059,3.195282790106258375
0.255000000000000060,2.366989604471247066
0.256000000000000061,1.560674309624902945
0.257000000000000062,0.774901221026164766
0.258000000000000063,0.008551778060330584
0.259000000000000064,-0.739189563234779912
0.260000000000000064,-1.468854314086805557
0.261000000000000065,-2.180712800375793847
0.262000000000000066,-2.874799922102980521
0.263000000000000067,-3.550942947055450105
0.264000000000000068,-4.208790542054352102
0.265000000000000069,-4.847842330875332451
0.266000000000000070,-5.467478355275174451
0.267000000000000071,-6.066987902281390177
0.268000000000000071,-6.645597245186307234
0.269000000000000072,-7.202495926136182725
0.270000000000000073,-7.736861283768758923
0.271000000000000074,-8.247880999292757309
0.272000000000000075,-8.734773498244114975
0.273000000000000076,-9.196806102635903812
0.274000000000000077,-9.633310879270371885
0.275000000000000078,-10.043698174668708845
0.276000000000000079,-10.427467865587148665
0.277000000000000079,-10.784218386702622894
0.278000000000000080,-11.113653624108405182
0.279000000000000081,-11.415587785152872868
0.280000000000000082,-11.689948372298742285
0.281000000000000083,-11.936777401512824071
0.282000000000000084,-12.156231014656157186
0.283000000000000085,-12.348577640866530203
0.284000000000000086,-12.514194864431249954
0.285000000000000087,-12.653565156543242765
0.286000000000000087,-12.767270625999994849
0.287000000000000088,-12.855986939699899807
0.288000000000000089,-12.920476558045502102
0.289000000000000090,-12.961581423380749811
0.290000000000000091,-12.980215231643033036
0.291000000000000092,-12.977355408749374988
0.292000000000000093,-12.954034904076650037
0.293000000000000094,-12.911333903932852962
0.294000000000000095,-12.850371558318069987
0.295000000000000095,-12.772297804684123790
0.296000000000000096,-12.678285362945228343
0.297000000000000097,-12.569521966770020427
0.298000000000000098,-12.447202887283310702
0.299000000000000099,-12.312523796792245179
0.300000000000000100,-12.166674012078166456
0.301000000000000101,-12.010830149202487149
0.302000000000000102,-11.846150214690878144
0.303000000000000103,-11.673768151400851778
0.304000000000000103,-11.494788851353268555
0.305000000000000104,-11.310283642318434971
0.306000000000000105,-11.121286249987083039
0.307000000000000106,-10.928789233112894408
0.308000000000000107,-10.733740885072837301
0.309000000000000108,-10.537042591832713967
0.310000000000000109,-10.339546633306971657
0.311000000000000110,-10.142054412539323494
0.312000000000000111,-9.945315094977402737
0.313000000000000111,-9.750024638344489958
0.314000000000000112,-9.556825192195962160
0.315000000000000113,-9.366304845159561410
0.316000000000000114,-9.178997697070599315
0.317000000000000115,-8.995384232696887139
0.318000000000000116,-8.815891973478443333
0.319000000000000117,-8.640896383658111191
0.320000000000000118,-8.470722007326063618
0.321000000000000119,-8.305643813221134764
0.322000000000000119,-8.145888724602880160
0.323000000000000120,-7.991637312108892388
0.324000000000000121,-7.843025628223491807
0.325000000000000122,-7.700147162788255173
0.326000000000000123,-7.563054899864608771
0.327000000000000124,-7.431763457199323852
0.328000000000000125,-7.306251290531285747
0.329000000000000126,-7.186462945998312257
0.330000000000000127,-7.072311344945781286
0.331000000000000127,-6.963680086494184351
0.332000000000000128,-6.860425754279449784
0.333000000000000129,-6.762380214832054648
0.334000000000000130,-6.669352896099431049
0.335000000000000131,-6.581133035636426598
0.336000000000000132,-6.497491888983292441
0.337000000000000133,-6.418184889717290176
0.338000000000000134,-6.342953753596927591
0.339000000000000135,-6.271528520115346339
0.340000000000000135,-6.203629525637744280
0.341000000000000136,-6.138969303115912268
0.342000000000000137,-6.077254404149099898
0.343000000000000138,-6.018187139893496962
0.344000000000000139,-5.961467238012400749
0.345000000000000140,-5.906793413505330825
0.346000000000000141,-5.853864851856566354
0.347000000000000142,-5.802382603503341230
0.348000000000000143,-5.752050889141062662
0.349000000000000143,-5.702578315858238156
0.350000000000000144,-5.653679004529514884
0.351000000000000145,-5.605073629290896697
0.352000000000000146,-5.556490370279891344
0.353000000000000147,-5.507665781145123951
0.354000000000000148,-5.458345573117464156
0.355000000000000149,-5.408285317688577010
0.356000000000000150,-5.357251070165764517
0.357000000000000151,-5.305019916564543969
0.358000000000000151,-5.251380446465319096
0.359000000000000152,-5.196133154598564730
0.360000000000000153,-5.139090774036732867
0.361000000000000154,-5.080078543961283444
0.362000000000000155,-5.018934415042249242
0.363000000000000156,-4.955509195516857091
0.364000000000000157,-4.889666641084098764
0.365000000000000158,-4.821283491746514827
0.366000000000000159,-4.750249458728187157
0.367000000000000159,-4.676467164582666314
0.368000000000000160,-4.599852039576228790
0.369000000000000161,-4.520332177391691353
0.370000000000000162,-4.437848153148218344
0.371000000000000163,-4.352352806673417618
0.372000000000000164,-4.263810993896393953
0.373000000000000165,-4.172199309156826352
0.374000000000000166,-4.077505781144330044
0.375000000000000167,-3.979729545097202781
0.376000000000000167,-3.878880493799958806
0.377000000000000168,-3.774978909825546403
0.378000000000000169,-3.668055081372280313
0.379000000000000170,-3.558148903947196295
0.380000000000000171,-3.445309470047695388
0.381000000000000172,-3.329594648892810760
0.382000000000000173,-3.211070658153972968
0.383000000000000174,-3.089811629534407356
0.384000000000000175,-2.965899169945195979
0.385000000000000175,-2.839421919926563564
0.386000000000000176,-2.710475110864095871
0.387000000000000177,-2.579160122452536896
0.388000000000000178,-2.445584041764550243
0.389000000000000179,-2.309859225188312770
0.390000000000000180,-2.172102864407010614
0.391000000000000181,-2.032436557504229135
0.392000000000000182,-1.890985886193704335
0.393000000000000183,-1.747880000087822072
0.394000000000000183,-1.603251208839289177
0.395000000000000184,-1.457234582912389387
0.396000000000000185,-1.309967563665427548
0.397000000000000186,-1.161589583354608823
0.398000000000000187,-1.012241695600581526
0.399000000000000188,-0.862066216793287543
0.400000000000000189,-0.711206378848509124
0.401000000000000190,-0.559805993669378221
0.402000000000000191,-0.408009129610387156
0.403000000000000191,-0.255959800187117725
0.404000000000000192,-0.103801665224965672
0.405000000000000193,0.048322255407893609
0.406000000000000194,0.200269855382754963
0.407000000000000195,0.351900202749288848
0.408000000000000196,0.503073788012096901
0.409000000000000197,0.653652759462433841
0.410000000000000198,0.803501145816724938
0.411000000000000199,0.952485066245405632
0.412000000000000199,1.100472927904684539
0.413000000000000200,1.247335611110738540
0.414000000000000201,1.392946642320757267
0.415000000000000202,1.537182355107809872
0.416000000000000203,1.679922039336706252
0.417000000000000204,1.821048078767225631
0.418000000000000205,1.960446077327056447
0.419000000000000206,2.098004974312140725
0.420000000000000207,2.233617148785326467
0.421000000000000207,2.367178513455257427
0.422000000000000208,2.498588598328286725
0.423000000000000209,2.627750624433888849
0.424000000000000210,2.754571567931904053
0.425000000000000211,2.878962214915475659
0.426000000000000212,3.000837207228290282
0.427000000000000213,3.120115079618346776
0.428000000000000214,3.236718288552648204
0.429000000000000214,3.350573233019077612
0.430000000000000215,3.461610267641809457
0.431000000000000216,3.569763708436352712
0.432000000000000217,3.674971831529362021
0.433000000000000218,3.777176865166089748
0.434000000000000219,3.876324975325908362
0.435000000000000220,3.972366245263080575
0.436000000000000221,4.065254649286045741
0.437000000000000222,4.154948021084202914
0.438000000000000222,4.241408016906245138
0.439000000000000223,4.324600073888781537
0.440000000000000224,4.404493363828558827
0.441000000000000225,4.481060742685259335
0.442000000000000226,4.554278696095591883
0.443000000000000227,4.624127281173072035
0.444000000000000228,4.690590064860606034
0.445000000000000229,4.753654059096385609
0.446000000000000230,4.813309653045959813
0.447000000000000230,4.869550542646539526
0.448000000000000231,4.922373657701563765
0.449000000000000232,4.971779086756408006
0.450000000000000233,5.017769999978435536
0.451000000000000234,5.060352570256744897
0.452000000000000235,5.099535892729624820
0.453000000000000236,5.135331902939869408
0.454000000000000237,5.167755293810397887
0.455000000000000238,5.196823431625364975
0.456000000000000238,5.222556271193942834
0.457000000000000239,5.244976270366971782
0.458000000000000240,5.264108304068786381
0.459000000000000241,5.279979577999695195
0.460000000000000242,5.292619542157006585
0.461000000000000243,5.302059804315683245
0.462000000000000244,5.308334043602570773
0.463000000000000245,5.311477924291466479
0.464000000000000246,5.311529009939441437
0.465000000000000246,5.308526677978404607
0.466000000000000247,5.302512034869434565
0.467000000000000248,5.293527831921217341
0.468000000000000249,5.281618381867747125
0.469000000000000250,5.266829476294569545
0.470000000000000251,5.249208303997125569
0.471000000000000252,5.228803370349101698
0.472000000000000253,5.205664417753157025
0.473000000000000254,5.179842347241413236
0.474000000000000254,5.151389141287677553
0.475000000000000255,5.120357787888608847
0.476000000000000256,5.086802205966316492
0.477000000000000257,5.050777172140138660
0.478000000000000258,5.012338248910960026
0.479000000000000259,4.971541714297382342
0.480000000000000260,4.928444492958545808
0.481000000000000261,4.883104088834881118
0.482000000000000262,4.835578519333969538
0.483000000000000262,4.785926251085355076
0.484000000000000263,4.734206137284365568
0.485000000000000264,4.680477356642058773
0.486000000000000265,4.624799353954816894
0.487000000000000266,4.567231782304505217
0.488000000000000267,4.507834446897025060
0.489000000000000268,4.446667250544235728
0.490000000000000269,4.383790140792010348
0.491000000000000270,4.319263058694279955
0.492000000000000270,4.253145889230928844
0.493000000000000271,4.185498413364945769
0.494000000000000272,4.116380261732484058
0.495000000000000273,4.045850869956943541
0.496000000000000274,3.973969435577111575
0.497000000000000275,3.900794876577020176
0.498000000000000276,3.826385791503738254
0.499000000000000277,3.750800421158122955
0.500000000000000222,3.674096611841489501
0.501000000000000334,3.596331780140594070
0.502000000000000224,3.517562879231456385
0.503000000000000336,3.437846366681731602
0.504000000000000226,3.357238173730456854
0.505000000000000338,3.275793676022431100
0.506000000000000227,3.193567665774530440
0.507000000000000339,3.110614325349419840
0.508000000000000229,3.026987202212485517
0.509000000000000341,2.942739185246004752
0.510000000000000231,2.857922482395262698
0.511000000000000343,2.772588599619492999
0.512000000000000233,2.686788321121377443
0.513000000000000345,2.600571690827165661
0.514000000000000234,2.513987995090408045
0.515000000000000346,2.427085746590794901
0.516000000000000236,2.339912669400608713
0.517000000000000348,2.252515685189820260
0.518000000000000238,2.164940900542116520
0.519000000000000350,2.077233595352626416
0.520000000000000240,1.989438212279540874
0.521000000000000352,1.901598347220418761
0.522000000000000242,1.813756740785338994
0.523000000000000353,1.725955270737769665
0.524000000000000243,1.638234945375638407
0.525000000000000355,1.550635897823690490
0.526000000000000245,1.463197381209842884
0.527000000000000357,1.375957764697077979
0.528000000000000247,1.288954530343975335
0.529000000000000359,1.202224270766014902
0.530000000000000249,1.115802687571058271
0.531000000000000361,1.029724590541906570
0.532000000000000250,0.944023897539925327
0.533000000000000362,0.858733635103101411
0.534000000000000252,0.773885939713558901
0.535000000000000364,0.689512059708185299
0.536000000000000254,0.605642357808456877
0.537000000000000366,0.522306314243849990
0.538000000000000256,0.439532530445479797
0.539000000000000368,0.357348733285498099
0.540000000000000258,0.275781779839519348
0.541000000000000369,0.194857662648439289
0.542000000000000259,0.114601515457959491
0.543000000000000371,0.035037619412981114
0.544000000000000261,-0.043810590314162234
0.545000000000000373,-0.121920517483130750
0.546000000000000263,-0.199270397353040224
0.547000000000000375,-0.275839288878698241
0.548000000000000265,-0.351607066554675829
0.549000000000000377,-0.426554411927328292
0.550000000000000266,-0.500662804792858851
0.551000000000000378,-0.573914514100465345
0.552000000000000268,-0.646292588577973115
0.553000000000000380,-0.717780847097838293
0.554000000000000270,-0.788363868800156409
0.555000000000000382,-0.858026982989602893
0.556000000000000272,-0.926756258822044154
0.557000000000000384,-0.994538494796736394
0.558000000000000274,-1.061361208069156792
0.559000000000000385,-1.127212623599330943
0.560000000000000275,-1.192081663149817006
0.561000000000000387,-1.255957934147479582
0.562000000000000277,-1.318831718422158961
0.563000000000000389,-1.380693960835678968
0.564000000000000279,-1.441536257813370137
0.565000000000000391,-1.501350845790733413
0.566000000000000281,-1.560130589586594674
0.567000000000000393,-1.617868970714581023
0.568000000000000282,-1.674560075643484414
0.569000000000000394,-1.730198584017546892
0.570000000000000284,-1.784779756846376797
0.571000000000000396,-1.838299424674943783
0.572000000000000286,-1.890753975742550441
0.573000000000000398,-1.942140344140335984
0.574000000000000288,-1.992455997975736137
0.575000000000000400,-2.041698927552643816
0.576000000000000290,-2.089867633574942207
0.577000000000000401,-2.136961115381590393
0.578000000000000291,-2.182978859220246370
0.579000000000000403,-2.227920826566854640
0.580000000000000293,-2.271787442497688492
0.581000000000000405,-2.314579584120644462
0.582000000000000295,-2.356298569071532345
0.583000000000000407,-2.396946144081741892
0.584000000000000297,-2.436524473622353248
0.585000000000000409,-2.475036128630525134
0.586000000000000298,-2.512484075322730881
0.587000000000000410,-2.548871664100051948
0.588000000000000300,-2.584202618549667374
0.589000000000000412,-2.618481024547185676
0.590000000000000302,-2.651711319463505134
0.591000000000000414,-2.683898281480307624
0.592000000000000304,-2.715047019017532204
0.593000000000000416,-2.745162960276286590
0.594000000000000306,-2.774251842900271825
0.595000000000000417,-2.802319703758745284
0.596000000000000307,-2.829372868853532896
0.597000000000000419,-2.855417943352834165
0.598000000000000309,-2.880461801754030216
0.599000000000000421,-2.904511578177591424
0.600000000000000311,-2.927574656794170949
0.601000000000000423,-2.949658662386625885
0.602000000000000313,-2.970771451048439982
0.603000000000000425,-2.990921101020335371
0.604000000000000314,-3.010115903665977477
0.605000000000000426,-3.028364354588274576
0.606000000000000316,-3.045675144887025176
0.607000000000000428,-3.062057152558904427
0.608000000000000318,-3.077519434040522306
0.609000000000000430,-3.092071215895073166
0.610000000000000320,-3.105721886643105112
0.611000000000000432,-3.118480988737762694
0.612000000000000322,-3.130358210684705433
0.613000000000000433,-3.141363379306848280
0.614000000000000323,-3.151506452153953308
0.615000000000000435,-3.160797510056974069
0.616000000000000325,-3.169246749826898579
0.617000000000000437,-3.176864477097990580
0.618000000000000327,-3.183661099314847753
0.619000000000000439,-3.189647118862971809
0.620000000000000329,-3.194833126342271790
0.621000000000000441,-3.199229793982834469
0.622000000000000330,-3.202847869202361863
0.623000000000000442,-3.205698168304459639
0.624000000000000332,-3.207791570316902430
0.625000000000000444,-3.209139010969118466
0.626000000000000334,-3.209751476807794823
0.627000000000000446,-3.209639999449664938
0.628000000000000336,-3.208815649970413464
0.629000000000000448,-3.207289533428556716
0.630000000000000338,-3.205072783523109425
0.631000000000000449,-3.202176557383894728
0.632000000000000339,-3.198612030493186431
0.633000000000000451,-3.194390391737363721
0.634000000000000341,-3.189522838587306897
0.635000000000000453,-3.184020572406141447
0.636000000000000343,-3.177894793882875213
0.637000000000000455,-3.171156698590585243
0.638000000000000345,-3.163817472667601383
0.639000000000000457,-3.155888288620242399
0.640000000000000346,-3.147380301245610745
0.641000000000000458,-3.138304643672849004
0.642000000000000348,-3.128672423521376977
0.643000000000000460,-3.118494719174444096
0.644000000000000350,-3.107782576166535637
0.645000000000000462,-3.096547003682850185
0.646000000000000352,-3.084798971169428139
0.647000000000000464,-3.072549405052137583
0.648000000000000353,-3.059809185563010292
0.649000000000000465,-3.046589143672123079
0.650000000000000355,-3.032900058123593645
0.651000000000000467,-3.018752652573769346
0.652000000000000357,-3.004157592830229540
0.653000000000000469,-2.989125484189606219
0.654000000000000359,-2.973666868872945734
0.655000000000000471,-2.957792223556573230
0.656000000000000361,-2.941511956997057808
0.657000000000000473,-2.924836407748457212
0.658000000000000362,-2.907775841970296149
0.659000000000000474,-2.890340451324524551
0.660000000000000364,-2.872540350959889910
0.661000000000000476,-2.854385577581988631
0.662000000000000366,-2.835886087607471406
0.663000000000000478,-2.817051755400632906
0.664000000000000368,-2.797892371590911864
0.665000000000000480,-2.778417641469567378
