# AuFCC100-Ablate25_CS-5735-AC
# h[nm],U(h)[kJ/mol]
0.200000000000000011,132.445992422566945379
0.201000000000000012,123.661492411696826821
0.202000000000000013,118.676301745159861412
0.203000000000000014,115.391254934643981755
0.204000000000000015,112.640727900012365126
0.205000000000000016,109.845130689987286132
0.206000000000000016,106.776145669191009802
0.207000000000000017,103.401840591034400063
0.208000000000000018,99.787603081911967706
0.209000000000000019,96.035443617906565805
0.210000000000000020,92.249127995094823973
0.211000000000000021,88.516235606152534388
0.212000000000000022,84.900909904772817072
0.213000000000000023,81.443012244309542780
0.214000000000000024,78.160793016055265525
0.215000000000000024,75.055194046315975243
0.216000000000000025,72.114599137014650410
0.217000000000000026,69.319335113049504571
0.218000000000000027,66.645553567296545339
0.219000000000000028,64.068338302061007994
0.220000000000000029,61.564018349662227081
0.221000000000000030,59.111745771939425254
0.222000000000000031,56.694438956819851683
0.223000000000000032,54.299208675112708988
0.224000000000000032,51.917384872572242216
0.225000000000000033,49.544253462490459583
0.226000000000000034,47.178598660027773803
0.227000000000000035,44.822130610786146576
0.228000000000000036,42.478862114236157765
0.229000000000000037,40.154483286087028659
0.230000000000000038,37.855769683934489933
0.231000000000000039,35.590048027354761473
0.232000000000000040,33.364734235423718189
0.233000000000000040,31.186950994511299484
0.234000000000000041,29.063226285668456228
0.235000000000000042,26.999270029988810649
0.236000000000000043,24.999823023729479843
0.237000000000000044,23.068570408518738191
0.238000000000000045,21.208110846725809040
0.239000000000000046,19.419972160555012408
0.240000000000000047,17.704664282396667119
0.241000000000000048,16.061760814853844437
0.242000000000000048,14.490001196764657365
0.243000000000000049,12.987406323330663582
0.244000000000000050,11.551401400473773506
0.245000000000000051,10.178940768989519938
0.246000000000000052,8.866630370594862143
0.247000000000000053,7.610844415221795778
0.248000000000000054,6.407833626389487058
0.249000000000000055,5.253823176596914557
0.250000000000000056,4.145099071024240800
0.251000000000000056,3.078082293793726443
0.252000000000000057,2.049390498537387639
0.253000000000000058,1.055887408514254000
0.254000000000000059,0.094720397188615024
0.255000000000000060,-0.836653044727945217
0.256000000000000061,-1.740449077465553884
0.257000000000000062,-2.618550519845106450
0.258000000000000063,-3.472508030180041949
0.259000000000000064,-4.303548363357061035
0.260000000000000064,-5.112588608765237908
0.261000000000000065,-5.900255341721193147
0.262000000000000066,-6.666907669521526358
0.263000000000000067,-7.412663217159561668
0.264000000000000068,-8.137426172649025347
0.265000000000000069,-8.840916593999363471
0.266000000000000070,-9.522700265971302258
0.267000000000000071,-10.182218482143888139
0.268000000000000071,-10.818817214367481228
0.269000000000000072,-11.431775215637557608
0.270000000000000073,-12.020330682463004734
0.271000000000000074,-12.583706177927593828
0.272000000000000075,-13.121131586159137328
0.273000000000000076,-13.631864932377553146
0.274000000000000077,-14.115210959858746520
0.275000000000000078,-14.570537405960092059
0.276000000000000079,-14.997288963884642499
0.277000000000000079,-15.394998955304918908
0.278000000000000080,-15.763298771594204339
0.279000000000000081,-16.101925168565550450
0.280000000000000082,-16.410725521675008309
0.281000000000000083,-16.689661166017629057
0.282000000000000084,-16.938808958557366680
0.283000000000000085,-17.158361209315184936
0.284000000000000086,-17.348624134116708007
0.285000000000000087,-17.510014984385048109
0.286000000000000087,-17.643058009751634074
0.287000000000000088,-17.748379407320548751
0.288000000000000089,-17.826701407611583505
0.289000000000000090,-17.878835641847587112
0.290000000000000091,-17.905675928638114414
0.291000000000000092,-17.908190610517031871
0.292000000000000093,-17.887414562455255407
0.293000000000000094,-17.844440985611317529
0.294000000000000095,-17.780413090389817654
0.295000000000000095,-17.696515763520146436
0.296000000000000096,-17.593967304487524217
0.297000000000000097,-17.474011307369426760
0.298000000000000098,-17.337908755054879606
0.299000000000000099,-17.186930384039225572
0.300000000000000100,-17.022349369559417909
0.301000000000000101,-16.845434372820925262
0.302000000000000102,-16.657442984508101347
0.303000000000000103,-16.459615591693513181
0.304000000000000103,-16.253169688689560246
0.305000000000000104,-16.039294646327100224
0.306000000000000105,-15.819146948604332792
0.307000000000000106,-15.593845900619644596
0.308000000000000107,-15.364469807177963290
0.309000000000000108,-15.132052617424822216
0.310000000000000109,-14.897581027299882095
0.311000000000000110,-14.661992028491889428
0.312000000000000111,-14.426170889895496785
0.313000000000000111,-14.190949555295285123
0.314000000000000112,-13.957105439105763622
0.315000000000000113,-13.725360600452964022
0.316000000000000114,-13.496381274667971439
0.317000000000000115,-13.270777740346593632
0.318000000000000116,-13.049104499488441533
0.319000000000000117,-12.831860747836893566
0.320000000000000118,-12.619491112372994479
0.321000000000000119,-12.412386632949246490
0.322000000000000119,-12.210885965259302921
0.323000000000000120,-12.015276782706063585
0.324000000000000121,-11.825797355232676722
0.325000000000000122,-11.642638283799985999
0.326000000000000123,-11.465944369911355238
0.327000000000000124,-11.295816600385427009
0.328000000000000125,-11.132314228444849746
0.329000000000000126,-10.975456933107960111
0.330000000000000127,-10.825227039830243925
0.331000000000000127,-10.681571786331151230
0.332000000000000128,-10.544405618547235903
0.333000000000000129,-10.413612502667694670
0.334000000000000130,-10.289048240222621544
0.335000000000000131,-10.170542774202306902
0.336000000000000132,-10.057902475178808643
0.337000000000000133,-9.950912397375573093
0.338000000000000134,-9.849338495580264308
0.339000000000000135,-9.752929794717587697
0.340000000000000135,-9.661420504788013730
0.341000000000000136,-9.574532074733081544
0.342000000000000137,-9.491975179605777413
0.343000000000000138,-9.413451636203415518
0.344000000000000139,-9.338656243059697104
0.345000000000000140,-9.267278541391227975
0.346000000000000141,-9.199004494250633712
0.347000000000000142,-9.133518081754640860
0.348000000000000143,-9.070502810830408436
0.349000000000000143,-9.009643138457150258
0.350000000000000144,-8.950625807874803996
0.351000000000000145,-8.893141097686093843
0.352000000000000146,-8.836883984195614161
0.353000000000000147,-8.781555217709399841
0.354000000000000148,-8.726862313863094300
0.355000000000000149,-8.672520461356707955
0.356000000000000150,-8.618253347751677396
0.357000000000000151,-8.563793905231740666
0.358000000000000151,-8.508884978445683700
0.359000000000000152,-8.453279916738042132
0.360000000000000153,-8.396743093235535582
0.361000000000000154,-8.339050353393492543
0.362000000000000155,-8.279989395719541179
0.363000000000000156,-8.219360087483149613
0.364000000000000157,-8.156974718290022963
0.365000000000000158,-8.092658194452692300
0.366000000000000159,-8.026248177122363714
0.367000000000000159,-7.957595167165644412
0.368000000000000160,-7.886562539773294134
0.369000000000000161,-7.813026531777779837
0.370000000000000162,-7.736876184634522424
0.371000000000000163,-7.658013245988452233
0.372000000000000164,-7.576352032703887573
0.373000000000000165,-7.491819258184466257
0.374000000000000166,-7.404353826749307643
0.375000000000000167,-7.313906597765305051
0.376000000000000167,-7.220440122162709251
0.377000000000000168,-7.123928353883225206
0.378000000000000169,-7.024356338727851146
0.379000000000000170,-6.921719882986013594
0.380000000000000171,-6.816025204138668414
0.381000000000000172,-6.707288565837501437
0.382000000000000173,-6.595535899269366453
0.383000000000000174,-6.480802412921735645
0.384000000000000175,-6.363132192670235554
0.385000000000000175,-6.242577794014941617
0.386000000000000176,-6.119199828197632307
0.387000000000000177,-5.993066543838376781
0.388000000000000178,-5.864253405637114724
0.389000000000000179,-5.732842671593967765
0.390000000000000180,-5.598922970112169217
0.391000000000000181,-5.462588878258712199
0.392000000000000182,-5.323940502371775629
0.393000000000000183,-5.183083062119062667
0.394000000000000183,-5.040126479029579443
0.395000000000000184,-4.895184970441471606
0.396000000000000185,-4.748376649731217647
0.397000000000000186,-4.599823133615303483
0.398000000000000187,-4.449649157243269926
0.399000000000000188,-4.297982197731965215
0.400000000000000189,-4.144952106724661967
0.401000000000000190,-3.990690752494673088
0.402000000000000191,-3.835331672052988861
0.403000000000000191,-3.679009733660711046
0.404000000000000192,-3.521860810092546590
0.405000000000000193,-3.364021462944772445
0.406000000000000194,-3.205628638231620364
0.407000000000000195,-3.046819373467059222
0.408000000000000196,-2.887730516384407142
0.409000000000000197,-2.728498455404710032
0.410000000000000198,-2.569258861925588278
0.411000000000000199,-2.410146444465369520
0.412000000000000199,-2.251294714663139462
0.413000000000000200,-2.092835765103509882
0.414000000000000201,-1.934900058904908349
0.415000000000000202,-1.777616230982816514
0.416000000000000203,-1.621110900874271010
0.417000000000000204,-1.465508496985932441
0.418000000000000205,-1.310931092107403328
0.419000000000000206,-1.157498250011492757
0.420000000000000207,-1.005326882945302369
0.421000000000000207,-0.854531119800739369
0.422000000000000208,-0.705222184737681834
0.423000000000000209,-0.557508286021314192
0.424000000000000210,-0.411494514823060875
0.425000000000000211,-0.267282753725137212
0.426000000000000212,-0.124971594660084409
0.427000000000000213,0.015343733990631315
0.428000000000000214,0.153571431420732096
0.429000000000000214,0.289623179832981748
0.430000000000000215,0.423414191573332488
0.431000000000000216,0.554863248258812392
0.432000000000000217,0.683892732194821940
0.433000000000000218,0.810428650378181126
0.434000000000000219,0.934400651382650493
0.435000000000000220,1.055742035423182790
0.436000000000000221,1.174389757893862907
0.437000000000000222,1.290284426672624551
0.438000000000000222,1.403370293483371611
0.439000000000000223,1.513595239603024556
0.440000000000000224,1.620910756197702085
0.441000000000000225,1.725271919568065027
0.442000000000000226,1.826637361579340535
0.443000000000000227,1.924969235547222102
0.444000000000000228,2.020233177845151662
0.445000000000000229,2.112398265493559801
0.446000000000000230,2.201436969985549386
0.447000000000000230,2.287325107597987017
0.448000000000000231,2.370041786430489239
0.449000000000000232,2.449569350408717039
0.450000000000000233,2.525893320481919613
0.451000000000000234,2.599002333237973250
0.452000000000000235,2.668888077152710814
0.453000000000000236,2.735545226683511633
0.454000000000000237,2.798971374410145874
0.455000000000000238,2.859166961419537856
0.456000000000000238,2.916135206123667611
0.457000000000000239,2.969882031693628743
0.458000000000000240,3.020415992285432782
0.459000000000000241,3.067748198227008949
0.460000000000000242,3.111892240328515413
0.461000000000000243,3.152864113471939067
0.462000000000000244,3.190682139628941982
0.463000000000000245,3.225366890449765656
0.464000000000000246,3.256941109559260639
0.465000000000000246,3.285429634689989165
0.466000000000000247,3.310859319776077392
0.467000000000000248,3.333258957125416977
0.468000000000000249,3.352659199781718335
0.469000000000000250,3.369092484182247826
0.470000000000000251,3.382592953211169373
0.471000000000000252,3.393196379743022906
0.472000000000000253,3.400940090765132595
0.473000000000000254,3.405862892162752953
0.474000000000000254,3.408004994245332320
0.475000000000000255,3.407407938087346544
0.476000000000000256,3.404114522752332839
0.477000000000000257,3.398168733463871494
0.478000000000000258,3.389615670782762269
0.479000000000000259,3.378501480845332416
0.480000000000000260,3.364873286713170764
0.481000000000000261,3.348779120880869264
0.482000000000000262,3.330267858983942286
0.483000000000000262,3.309389154745629558
0.484000000000000263,3.286193376197195537
0.485000000000000264,3.260731543203156058
0.486000000000000265,3.233055266319028398
0.487000000000000266,3.203216687006273933
0.488000000000000267,3.171268419225801605
0.489000000000000268,3.137263492428199907
0.490000000000000269,3.101255295956410585
0.491000000000000270,3.063297524873317634
0.492000000000000270,3.023444127224480305
0.493000000000000271,2.981749252743417067
0.494000000000000272,2.938267203004859329
0.495000000000000273,2.893052383028507535
0.496000000000000274,2.846159254334440725
0.497000000000000275,2.797642289448663000
0.498000000000000276,2.747555927855537039
0.499000000000000277,2.695954533392296071
0.500000000000000222,2.642892353078551082
0.501000000000000334,2.588423477372736592
0.502000000000000224,2.532601801845331568
0.503000000000000336,2.475480990257641345
0.504000000000000226,2.417114439033523521
0.505000000000000338,2.357555243109922039
0.506000000000000227,2.296856163151419494
0.507000000000000339,2.235069594112334634
0.508000000000000229,2.172247535129536722
0.509000000000000341,2.108441560727448483
0.510000000000000231,2.043702793316797717
0.511000000000000343,1.978081876966873764
0.512000000000000233,1.911628952431362549
0.513000000000000345,1.844393633406164357
0.514000000000000234,1.776424983997981766
0.515000000000000346,1.707771497381077364
0.516000000000000236,1.638481075619950600
0.517000000000000348,1.568601010634376847
0.518000000000000238,1.498177966283928741
0.519000000000000350,1.427257961547632181
0.520000000000000240,1.355886354775360125
0.521000000000000352,1.284107828986177591
0.522000000000000242,1.211966378189801574
0.523000000000000353,1.139505294706035787
0.524000000000000243,1.066767157458233140
0.525000000000000355,0.993793821215498641
0.526000000000000245,0.920626406759493476
0.527000000000000357,0.847305291950640638
0.528000000000000247,0.773870103669622278
0.529000000000000359,0.700359710609176789
0.530000000000000249,0.626812216892079221
0.531000000000000361,0.553264956490723825
0.532000000000000250,0.479754488424439463
0.533000000000000362,0.406316592710127378
0.534000000000000252,0.332986267043083983
0.535000000000000364,0.259797724183557843
0.536000000000000254,0.186784390026714264
0.537000000000000366,0.113978902331999282
0.538000000000000256,0.041413110089861462
0.539000000000000368,-0.030881926497284738
0.540000000000000258,-0.102875935441527108
0.541000000000000369,-0.174539431825853714
0.542000000000000259,-0.245843716111366462
0.543000000000000371,-0.316760871917230347
0.544000000000000261,-0.387263763293766772
0.545000000000000373,-0.457326031509530107
0.546000000000000263,-0.526922091372272527
0.547000000000000375,-0.596027127104087784
0.548000000000000265,-0.664617087789506122
0.549000000000000377,-0.732668682416376726
0.550000000000000266,-0.800159374527488199
0.551000000000000378,-0.867067376501878706
0.552000000000000268,-0.933371643483241753
0.553000000000000380,-0.999051866973340252
0.554000000000000270,-1.064088468107230900
0.555000000000000382,-1.128462590627390405
0.556000000000000272,-1.192156093572744435
0.557000000000000384,-1.255151543698819205
0.558000000000000274,-1.317432207644446018
0.559000000000000385,-1.378982043860266016
0.560000000000000275,-1.439785694313695741
0.561000000000000387,-1.499828475984971821
0.562000000000000277,-1.559096372167951383
0.563000000000000389,-1.617576023589706313
0.564000000000000279,-1.675254719361721767
0.565000000000000391,-1.732120387775989867
0.566000000000000281,-1.788161586958071370
0.567000000000000393,-1.843367495389667710
0.568000000000000282,-1.897727902312079662
0.569000000000000394,-1.951233198022323645
0.570000000000000284,-2.003874364072486536
0.571000000000000396,-2.055642963383580657
0.572000000000000286,-2.106531130283681996
0.573000000000000398,-2.156531560480771770
0.574000000000000288,-2.205637500979620746
0.575000000000000400,-2.253842739952389262
0.576000000000000290,-2.301141596571530723
0.577000000000000401,-2.347528910814143721
0.578000000000000291,-2.393000033245701985
0.579000000000000403,-2.437550814791580311
0.580000000000000293,-2.481177596503818084
0.581000000000000405,-2.523877199330940790
0.582000000000000295,-2.565646913897540848
0.583000000000000407,-2.606484490301027357
0.584000000000000297,-2.646388127931588841
0.585000000000000409,-2.685356465322245256
0.586000000000000298,-2.723388570034514622
0.587000000000000410,-2.760483928585979907
0.588000000000000300,-2.796642436424835232
0.589000000000000412,-2.831864387957128137
0.590000000000000302,-2.866150466631345761
0.591000000000000414,-2.899501735085487475
0.592000000000000304,-2.931919625360931647
0.593000000000000416,-2.963405929187607146
0.594000000000000306,-2.993962788344485038
0.595000000000000417,-3.023592685099439681
0.596000000000000307,-3.052298432731939570
0.597000000000000419,-3.080083166142326245
0.598000000000000309,-3.106950332550812544
0.599000000000000421,-3.132903682289303049
0.600000000000000311,-3.157947259689038333
0.601000000000000423,-3.182085394066759942
0.602000000000000313,-3.205322690811826192
0.603000000000000425,-3.227664022576945513
0.604000000000000314,-3.249114520574388987
0.605000000000000426,-3.269679565980077030
0.606000000000000316,-3.289364781447163377
0.607000000000000428,-3.308176022731029953
0.608000000000000318,-3.326119370427263355
0.609000000000000430,-3.343201121824036282
0.610000000000000320,-3.359427782870199053
0.611000000000000432,-3.374806060260377993
0.612000000000000322,-3.389342853638003028
0.613000000000000433,-3.403045247917300120
0.614000000000000323,-3.415920505725043910
0.615000000000000435,-3.427976059962772659
0.616000000000000325,-3.439219506489989531
0.617000000000000437,-3.449658596929003007
0.618000000000000327,-3.459301231591608516
0.619000000000000439,-3.468155452527997618
0.620000000000000329,-3.476229436698085262
0.621000000000000441,-3.483531489265285330
0.622000000000000330,-3.490070037012830362
0.623000000000000442,-3.495853621882532458
0.624000000000000332,-3.500890894635737993
0.625000000000000444,-3.505190608636453931
0.626000000000000334,-3.508761613756109732
0.627000000000000446,-3.511612850399743913
0.628000000000000336,-3.513753343653092998
0.629000000000000448,-3.515192197550124575
0.630000000000000338,-3.515938589460358976
0.631000000000000449,-3.516001764595475088
0.632000000000000339,-3.515391030634440028
0.633000000000000451,-3.514115752466404619
0.634000000000000341,-3.512185347050632345
0.635000000000000453,-3.509609278392665122
0.636000000000000343,-3.506397052635680467
0.637000000000000455,-3.502558213266355747
0.638000000000000345,-3.498102336434046666
0.639000000000000457,-3.493039026382443346
0.640000000000000346,-3.487377910992589758
0.641000000000000458,-3.481128637436226025
0.642000000000000348,-3.474300867938339366
0.643000000000000460,-3.466904275647781475
0.644000000000000350,-3.458948540614861233
0.645000000000000462,-3.450443345874601331
0.646000000000000352,-3.441398373634598329
0.647000000000000464,-3.431823301566144124
0.648000000000000353,-3.421727799197446185
0.649000000000000465,-3.411121524407561001
0.650000000000000355,-3.400014120019937192
0.651000000000000467,-3.388415210494038377
0.652000000000000357,-3.376334398713999096
0.653000000000000469,-3.363781262872662214
0.654000000000000359,-3.350765353450039896
0.655000000000000471,-3.337296190284498643
0.656000000000000361,-3.323383259735549267
0.657000000000000473,-3.309036011936753230
0.658000000000000362,-3.294263858137461476
0.659000000000000474,-3.279076168131935365
0.660000000000000364,-3.263482267774539203
0.661000000000000476,-3.247491436579561075
0.662000000000000366,-3.231112905404372349
0.663000000000000478,-3.214355854214405728
