# AuFCC100-Ablate25_CS-1913-AC
# h[nm],U(h)[kJ/mol]
0.149999999999999994,143.808409938901121450
0.150999999999999995,141.618262468305431412
0.151999999999999996,139.135181284638065335
0.152999999999999997,136.605804280288509744
0.153999999999999998,134.130779759321455913
0.154999999999999999,131.736560391845330287
0.156000000000000000,129.416520876928132111
0.157000000000000001,127.153119100978599931
0.158000000000000002,124.928731981651253591
0.159000000000000002,122.730032789714002206
0.160000000000000003,120.548933013716805362
0.161000000000000004,118.381902213017355052
0.162000000000000005,116.228701666632701972
0.163000000000000006,114.091080485602418548
0.164000000000000007,111.971688046820148088
0.165000000000000008,109.873286702864973563
0.166000000000000009,107.798257970360168656
0.167000000000000010,105.748353193662566696
0.168000000000000010,103.724625909721112293
0.169000000000000011,101.727484881693726493
0.170000000000000012,99.756815963070067710
0.171000000000000013,97.812132775957337572
0.172000000000000014,95.892727923009559277
0.173000000000000015,93.997806729997620323
0.174000000000000016,92.126593786137647157
0.175000000000000017,90.278408742395896525
0.176000000000000018,88.452712131310462951
0.177000000000000018,86.649124689414662726
0.178000000000000019,84.867425131390618276
0.179000000000000020,83.107531864284425183
0.180000000000000021,81.369474021364567307
0.181000000000000022,79.653356670086822078
0.182000000000000023,77.959324288733085950
0.183000000000000024,76.287525747290573008
0.184000000000000025,74.638083166167319860
0.185000000000000026,73.011066225113808059
0.186000000000000026,71.406472792437241992
0.187000000000000027,69.824216160189024549
0.188000000000000028,68.264118709459921774
0.189000000000000029,66.725911486660208993
0.190000000000000030,65.209238936028185663
0.191000000000000031,63.713667891500030294
0.192000000000000032,62.238699866916974202
0.193000000000000033,60.783785681694055825
0.194000000000000034,59.348341504733070906
0.195000000000000034,57.931765479168781496
0.196000000000000035,56.533454192870976840
0.197000000000000036,55.152818374723779016
0.198000000000000037,53.789297316637615154
0.199000000000000038,52.442371639813970319
0.200000000000000039,51.111574136328684403
0.201000000000000040,49.796498520333031479
0.202000000000000041,48.496806014956781894
0.203000000000000042,47.212229780149137071
0.204000000000000042,45.942577252784211339
0.205000000000000043,44.687730523563253371
0.206000000000000044,43.447644916165074847
0.207000000000000045,42.222345963658121093
0.208000000000000046,41.011924996507815422
0.209000000000000047,39.816533566833307134
0.210000000000000048,38.636376936165319762
0.211000000000000049,37.471706850106791364
0.212000000000000050,36.322813814213581907
0.213000000000000050,35.190019072240367848
0.214000000000000051,34.073666471668921929
0.215000000000000052,32.974114383087659519
0.216000000000000053,31.891727820333301224
0.217000000000000054,30.826870888035852403
0.218000000000000055,29.779899662913948077
0.219000000000000056,28.751155595330516235
0.220000000000000057,27.740959498614898848
0.221000000000000058,26.749606175793775975
0.222000000000000058,25.777359716848536664
0.223000000000000059,24.824449484593099413
0.224000000000000060,23.891066793819810243
0.225000000000000061,22.977362276533398244
0.226000000000000062,22.083443915879577446
0.227000000000000063,21.209375722734716163
0.228000000000000064,20.355177021795203274
0.229000000000000065,19.520822308299138115
0.230000000000000066,18.706241632135714781
0.231000000000000066,17.911321462932470183
0.232000000000000067,17.135905987648492044
0.233000000000000068,16.379798791119220880
0.234000000000000069,15.642764869782947557
0.235000000000000070,14.924532929352514188
0.236000000000000071,14.224797918369882055
0.237000000000000072,13.543223751290096146
0.238000000000000073,12.879446176888226461
0.239000000000000073,12.233075750278798566
0.240000000000000074,11.603700869595291678
0.241000000000000075,10.990890841329502337
0.242000000000000076,10.394198941405232262
0.243000000000000077,9.813165442201015054
0.244000000000000078,9.247320578892395559
0.245000000000000079,8.696187431609173402
0.246000000000000080,8.159284702963086389
0.247000000000000081,7.636129373461230330
0.248000000000000081,7.126239220159409804
0.249000000000000082,6.629135186604631080
0.250000000000000111,6.144343594652208473
0.251000000000000112,5.671398191111018505
0.252000000000000113,5.209842024359737422
0.253000000000000114,4.759229148088667039
0.254000000000000115,4.319126151147914427
0.255000000000000115,3.889113514131459226
0.256000000000000116,3.468786794795879480
0.257000000000000117,3.057757645710293737
0.258000000000000118,2.655654668666391327
0.259000000000000119,2.262124111350366285
0.260000000000000120,1.876830412601857789
0.261000000000000121,1.499456603267754096
0.262000000000000122,1.129704570208688752
0.263000000000000123,0.767295191445245606
0.264000000000000123,0.411968350746483858
0.265000000000000124,0.063482840177477406
0.266000000000000125,-0.278383840757261858
0.267000000000000126,-0.613835780700478062
0.268000000000000127,-0.943059038123584159
0.269000000000000128,-1.266222100570818299
0.270000000000000129,-1.583476413096495339
0.271000000000000130,-1.894956967738000486
0.272000000000000131,-2.200782946121571548
0.273000000000000131,-2.501058407589153987
0.274000000000000132,-2.795873015554692476
0.275000000000000133,-3.085302795142712995
0.276000000000000134,-3.369410915524559069
0.277000000000000135,-3.648248490743277728
0.278000000000000136,-3.921855393203983908
0.279000000000000137,-4.190261074396234520
0.280000000000000138,-4.453485387806602525
0.281000000000000139,-4.711539409370070430
0.282000000000000139,-4.964426251194065998
0.283000000000000140,-5.212141864668025093
0.284000000000000141,-5.454675829440932766
0.285000000000000142,-5.692012125108662168
0.286000000000000143,-5.924129882799777924
0.287000000000000144,-6.151004114181672477
0.288000000000000145,-6.372606415728838236
0.289000000000000146,-6.588905646397961391
0.290000000000000147,-6.799868577143923787
0.291000000000000147,-7.005460510982059574
0.292000000000000148,-7.205645872558821274
0.293000000000000149,-7.400388766431862386
0.294000000000000150,-7.589653503484219854
0.295000000000000151,-7.773405095104459761
0.296000000000000152,-7.951609714955668373
0.297000000000000153,-8.124235128332196965
0.298000000000000154,-8.291251089263599994
0.299000000000000155,-8.452629705671281357
0.300000000000000155,-8.608345773015280145
0.301000000000000156,-8.758377076986890941
0.302000000000000157,-8.902704665908601100
0.303000000000000158,-9.041313093595354289
0.304000000000000159,-9.174190633513209292
0.305000000000000160,-9.301329465141026986
0.306000000000000161,-9.422725833501365500
0.307000000000000162,-9.538380182876561975
0.308000000000000163,-9.648297265766716535
0.309000000000000163,-9.752486228179146011
0.310000000000000164,-9.850960672363061832
0.311000000000000165,-9.943738698120366593
0.312000000000000166,-10.030842923834201841
0.313000000000000167,-10.112300488360737916
0.314000000000000168,-10.188143034928620168
0.315000000000000169,-10.258406678183744631
0.316000000000000170,-10.323131955506166690
0.317000000000000171,-10.382363763710301896
0.318000000000000171,-10.436151282220878400
0.319000000000000172,-10.484547883794714807
0.320000000000000173,-10.527611033833176535
0.321000000000000174,-10.565402179302486374
0.322000000000000175,-10.597986628249362440
0.323000000000000176,-10.625433420867665291
0.324000000000000177,-10.647815193038658421
0.325000000000000178,-10.665208033232833174
0.326000000000000179,-10.677691333626423642
0.327000000000000179,-10.685347636248973657
0.328000000000000180,-10.688262474942058944
0.329000000000000181,-10.686524213872660383
0.330000000000000182,-10.680223883306840804
0.331000000000000183,-10.669455013313470459
0.332000000000000184,-10.654313466030204793
0.333000000000000185,-10.634897267087946915
0.334000000000000186,-10.611306436754087912
0.335000000000000187,-10.583642821319392269
0.336000000000000187,-10.552009925219062225
0.337000000000000188,-10.516512744344108654
0.338000000000000189,-10.477257600966931150
0.339000000000000190,-10.434351980672261107
0.340000000000000191,-10.387904371653696955
0.341000000000000192,-10.338024106706125593
0.342000000000000193,-10.284821208214879107
0.343000000000000194,-10.228406236414862462
0.344000000000000195,-10.168890141165388030
0.345000000000000195,-10.106384117461356453
0.346000000000000196,-10.040999464875962843
0.347000000000000197,-9.972847451107039518
0.348000000000000198,-9.902039179776382483
0.349000000000000199,-9.828685462610055268
0.350000000000000200,-9.752896696107546504
0.351000000000000201,-9.674782742788085699
0.352000000000000202,-9.594452817084668794
0.353000000000000203,-9.512015375939018469
0.354000000000000203,-9.427578014134681439
0.355000000000000204,-9.341247364390309116
0.356000000000000205,-9.253129002221244903
0.357000000000000206,-9.163327355564254262
0.358000000000000207,-9.071945619147898654
0.359000000000000208,-8.979085673579941584
0.360000000000000209,-8.884848009112499057
0.361000000000000210,-8.789331654035965613
0.362000000000000210,-8.692634107644021668
0.363000000000000211,-8.594851277703678960
0.364000000000000212,-8.496077422357243947
0.365000000000000213,-8.396405096376023280
0.366000000000000214,-8.295925101679952007
0.367000000000000215,-8.194726442031599944
0.368000000000000216,-8.092896281808551251
0.369000000000000217,-7.990519908753670464
0.370000000000000218,-7.887680700599355887
0.371000000000000218,-7.784460095458515916
0.372000000000000219,-7.680937565872497430
0.373000000000000220,-7.577190596404032696
0.374000000000000221,-7.473294664661376707
0.375000000000000222,-7.369323225638415131
0.376000000000000223,-7.265347699254883551
0.377000000000000224,-7.161437460979759528
0.378000000000000225,-7.057659835420919237
0.379000000000000226,-6.954080092764000298
0.380000000000000226,-6.850761447943933824
0.381000000000000227,-6.747765062432756977
0.382000000000000228,-6.645150048528677189
0.383000000000000229,-6.542973476031976432
0.384000000000000230,-6.441290381194656689
0.385000000000000231,-6.340153777832430393
0.386000000000000232,-6.239614670488886183
0.387000000000000233,-6.139722069543680050
0.388000000000000234,-6.040523008158334761
0.389000000000000234,-5.942062560955457151
0.390000000000000235,-5.844383864328997369
0.391000000000000236,-5.747528138285803223
0.392000000000000237,-5.651534709720595018
0.393000000000000238,-5.556441037029311580
0.394000000000000239,-5.462282735967848524
0.395000000000000240,-5.369093606665982676
0.396000000000000241,-5.276905661708690687
0.397000000000000242,-5.185749155199619764
0.398000000000000242,-5.095652612724260067
0.399000000000000243,-5.006642862132709482
0.400000000000000244,-4.918745065064711319
0.401000000000000245,-4.831982749142421874
0.402000000000000246,-4.746377840758615463
0.403000000000000247,-4.661950698390969983
0.404000000000000248,-4.578720146375603761
0.405000000000000249,-4.496703509075540950
0.406000000000000250,-4.415916645382385930
0.407000000000000250,-4.336373983492089579
0.408000000000000251,-4.258088555898007499
0.409000000000000252,-4.181072034547168137
0.410000000000000253,-4.105334766107803013
0.411000000000000254,-4.030885807298847823
0.412000000000000255,-3.957732960234221942
0.413000000000000256,-3.885882807737214506
0.414000000000000257,-3.815340748582256136
0.415000000000000258,-3.746111032623937742
0.416000000000000258,-3.678196795774842265
0.417000000000000259,-3.611600094796235449
0.418000000000000260,-3.546321941867426997
0.419000000000000261,-3.482362338901709542
0.420000000000000262,-3.419720311578717364
0.421000000000000263,-3.358393943064899467
0.422000000000000264,-3.298380407395564706
0.423000000000000265,-3.239676002493752094
0.424000000000000266,-3.182276182803047693
0.425000000000000266,-3.126175591512724061
0.426000000000000267,-3.071368092355626800
0.427000000000000268,-3.017846800960434006
0.428000000000000269,-2.965604115741562019
0.429000000000000270,-2.914631748311419468
0.430000000000000271,-2.864920753400959974
0.431000000000000272,-2.816461558276003085
0.432000000000000273,-2.769243991637885038
0.433000000000000274,-2.723257311998354524
0.434000000000000274,-2.678490235519697116
0.435000000000000275,-2.634930963312284824
0.436000000000000276,-2.592567208182769090
0.437000000000000277,-2.551386220827137841
0.438000000000000278,-2.511374815463915056
0.439000000000000279,-2.472519394903681444
0.440000000000000280,-2.434805975051909321
0.441000000000000281,-2.398220208843076406
0.442000000000000282,-2.362747409604808446
0.443000000000000282,-2.328372573851396954
0.444000000000000283,-2.295080403507073097
0.445000000000000284,-2.262855327559802454
0.446000000000000285,-2.231681523147122537
0.447000000000000286,-2.201542936076358981
0.448000000000000287,-2.172423300781693545
0.449000000000000288,-2.144306159721589999
0.450000000000000289,-2.117174882220205667
0.451000000000000290,-2.091012682757122043
0.452000000000000290,-2.065802638710112937
0.453000000000000291,-2.041527707556021642
0.454000000000000292,-2.018170743535341760
0.455000000000000293,-1.995714513786304156
0.456000000000000294,-1.974141713954743249
0.457000000000000295,-1.953434983286241877
0.458000000000000296,-1.933576919207349309
0.459000000000000297,-1.914550091402973830
0.460000000000000298,-1.896337055397230742
0.461000000000000298,-1.878920365645274204
0.462000000000000299,-1.862282588143860718
0.463000000000000300,-1.846406312568468211
0.464000000000000301,-1.831274163945114664
0.465000000000000302,-1.816868813865007315
0.466000000000000303,-1.803172991250339141
0.467000000000000304,-1.790169492679643870
0.468000000000000305,-1.777841192281264027
0.469000000000000306,-1.766171051203420772
0.470000000000000306,-1.755142126669624547
0.471000000000000307,-1.744737580627992557
0.472000000000000308,-1.734940688003310028
0.473000000000000309,-1.725734844560466552
0.474000000000000310,-1.717103574388065379
0.475000000000000311,-1.709030537010934214
0.476000000000000312,-1.701499534140282766
0.477000000000000313,-1.694494516070171430
0.478000000000000314,-1.687999587728986173
0.479000000000000314,-1.681999014394605085
0.480000000000000315,-1.676477227081725641
0.481000000000000316,-1.671418827610025915
0.482000000000000317,-1.666808593361494228
0.483000000000000318,-1.662631481735425298
0.484000000000000319,-1.658872634309331628
0.485000000000000320,-1.655517380714073283
0.486000000000000321,-1.652551242231308892
0.487000000000000322,-1.649959935121365406
0.488000000000000322,-1.647729373689435395
0.489000000000000323,-1.645845673098062623
0.490000000000000324,-1.644295151933576005
0.491000000000000325,-1.643064334534199533
0.492000000000000326,-1.642139953087308868
0.493000000000000327,-1.641508949503333481
0.494000000000000328,-1.641158477073580313
0.495000000000000329,-1.641075901919154756
0.496000000000000330,-1.641248804238079284
0.497000000000000330,-1.641664979357572829
0.498000000000000331,-1.642312438598246604
0.499000000000000332,-1.643179409956998516
0.500000000000000333,-1.644254338615154243
0.501000000000000334,-1.645525887278249444
0.502000000000000335,-1.646982936353866167
0.503000000000000336,-1.648614583973629477
0.504000000000000337,-1.650410145865487177
0.505000000000000338,-1.652359155082164577
0.506000000000000338,-1.654451361591638747
0.507000000000000339,-1.656676731735274632
0.508000000000000340,-1.659025447559184130
0.509000000000000341,-1.661487906024264660
0.510000000000000342,-1.664054718100145269
0.511000000000000343,-1.666716707748276960
0.512000000000000344,-1.669464910799164148
0.513000000000000345,-1.672290573728659080
0.514000000000000346,-1.675185152338191319
0.515000000000000346,-1.678140310343464225
0.516000000000000347,-1.681147917876289144
0.517000000000000348,-1.684200049903981311
0.518000000000000349,-1.687288984570541661
0.519000000000000350,-1.690407201463914877
0.520000000000000351,-1.693547379813367781
0.521000000000000352,-1.696702396620963116
0.522000000000000353,-1.699865324730954530
0.523000000000000353,-1.703029430840886205
0.524000000000000354,-1.706188173458003776
0.525000000000000355,-1.709335200804524835
0.526000000000000356,-1.712464348675129866
0.527000000000000357,-1.715569638250092011
0.528000000000000358,-1.718645273867144052
0.529000000000000359,-1.721685640755276525
0.530000000000000360,-1.724685302733427239
0.531000000000000361,-1.727638999877014303
0.532000000000000361,-1.730541646155103974
0.533000000000000362,-1.733388327040952248
0.534000000000000363,-1.736174297098547870
0.535000000000000364,-1.738894977547703391
0.536000000000000365,-1.741545953810145431
0.537000000000000366,-1.744122973038982227
0.538000000000000367,-1.746621941633792918
0.539000000000000368,-1.749038922743628266
0.540000000000000369,-1.751370133759921455
0.541000000000000369,-1.753611943801463013
0.542000000000000370,-1.755760871193325467
0.543000000000000371,-1.757813580941654852
0.544000000000000372,-1.759766882206159622
0.545000000000000373,-1.761617725772004261
0.546000000000000374,-1.763363201522798462
0.547000000000000375,-1.765000535916273261
0.548000000000000376,-1.766527089464216216
0.549000000000000377,-1.767940354218077825
0.550000000000000377,-1.769237951261700470
0.551000000000000378,-1.770417628212494821
0.552000000000000379,-1.771477256732363781
0.553000000000000380,-1.772414830049587220
0.554000000000000381,-1.773228460492825009
0.555000000000000382,-1.773916377038407433
0.556000000000000383,-1.774476922871874418
0.557000000000000384,-1.774908552964885811
0.558000000000000385,-1.775209831668350891
0.559000000000000385,-1.775379430322781449
0.560000000000000386,-1.775416124886631808
0.561000000000000387,-1.775318793583519961
0.562000000000000388,-1.775086414569034376
0.563000000000000389,-1.774718063617900965
0.564000000000000390,-1.774212911832133255
0.565000000000000391,-1.773570223370860122
0.566000000000000392,-1.772789353202381957
0.567000000000000393,-1.771869744879061681
0.568000000000000393,-1.770810928335514234
0.569000000000000394,-1.769612517710641431
0.570000000000000395,-1.768274209193930302
0.571000000000000396,-1.766795778896405267
0.572000000000000397,-1.765177080746705318
0.573000000000000398,-1.763418044412525587
0.574000000000000399,-1.761518673247847833
0.575000000000000400,-1.759479042266163251
0.576000000000000401,-1.757299296140018230
0.577000000000000401,-1.754979647227103090
0.578000000000000402,-1.752520373623064120
0.579000000000000403,-1.749921817241237632
0.580000000000000404,-1.747184381919509422
0.581000000000000405,-1.744308531554356279
0.582000000000000406,-1.741294788262251814
0.583000000000000407,-1.738143730568479928
0.584000000000000408,-1.734855991623468485
0.585000000000000409,-1.731432257446649414
0.586000000000000409,-1.727873265197909847
0.587000000000000410,-1.724179801476640961
0.588000000000000411,-1.720352700648344779
0.589000000000000412,-1.716392843198853324
0.590000000000000413,-1.712301154116009583
0.591000000000000414,-1.708078601298862464
0.592000000000000415,-1.703726193994256066
0.593000000000000416,-1.699244981260707332
0.594000000000000417,-1.694636050459523036
0.595000000000000417,-1.689900525773043283
0.596000000000000418,-1.685039566749806372
0.597000000000000419,-1.680054366876642558
0.598000000000000420,-1.674946152177406278
0.599000000000000421,-1.669716179838294234
0.600000000000000422,-1.664365736859526379
0.601000000000000423,-1.658896138733236825
0.602000000000000424,-1.653308728147380391
0.603000000000000425,-1.647604873715478480
0.604000000000000425,-1.641785968731966916
0.605000000000000426,-1.635853429952958349
0.606000000000000427,-1.629808696402254453
0.607000000000000428,-1.623653228202217136
0.608000000000000429,-1.617388505429540047
0.609000000000000430,-1.611016026995364614
0.610000000000000431,-1.604537309549804336
0.611000000000000432,-1.597953886410405033
0.612000000000000433,-1.591267306514383417
