# AuFCC100-Ablate25_CS-10471-AC
# h[nm],U(h)[kJ/mol]
0.149999999999999994,151.373376462697677880
0.150999999999999995,148.030686567279644805
0.151999999999999996,144.904560163823589392
0.152999999999999997,141.822617139249899765
0.153999999999999998,138.751592235987402546
0.154999999999999999,135.708622501411838357
0.156000000000000000,132.719417406985542129
0.157000000000000001,129.801833519613694534
0.158000000000000002,126.962195270096188437
0.159000000000000002,124.197195565780162951
0.160000000000000003,121.497549819331837284
0.161000000000000004,118.851545458609209049
0.162000000000000005,116.247740028707809756
0.163000000000000006,113.676648618750988362
0.164000000000000007,111.131539469478269666
0.165000000000000008,108.608559756637575333
0.166000000000000009,106.106424308691515535
0.167000000000000010,103.625867566607439585
0.168000000000000010,101.169011411958223334
0.169000000000000011,98.738753451270127925
0.170000000000000012,96.338238949350156304
0.171000000000000013,93.970447318930808933
0.172000000000000014,91.637900919712393488
0.173000000000000015,89.342488741082505044
0.174000000000000016,87.085388747862936043
0.175000000000000017,84.867068638005349612
0.176000000000000018,82.687344051291034930
0.177000000000000018,80.545474691784789911
0.178000000000000019,78.440281466791674347
0.179000000000000020,76.370270931062890440
0.180000000000000021,74.333756595352497243
0.181000000000000022,72.328969717804312722
0.182000000000000023,70.354154876025447152
0.183000000000000024,68.407647839506779519
0.184000000000000025,66.487935011612577796
0.185000000000000026,64.593695013485756817
0.186000000000000026,62.723823888299683915
0.187000000000000027,60.877445974134460016
0.188000000000000028,59.053912791105005908
0.189000000000000029,57.252792374450244495
0.190000000000000030,55.473851415489434658
0.191000000000000031,53.717032394544801832
0.192000000000000032,51.982427643900408043
0.193000000000000033,50.270251996461141175
0.194000000000000034,48.580815381534463882
0.195000000000000034,46.914496441151300132
0.196000000000000035,45.271717971174950890
0.197000000000000036,43.652924749202348664
0.198000000000000037,42.058564100437912714
0.199000000000000038,40.489069375050078747
0.200000000000000039,38.944846365695845236
0.201000000000000040,37.426262580163594862
0.202000000000000041,35.933639198742447718
0.203000000000000042,34.467245485725413801
0.204000000000000042,33.027295385886972667
0.205000000000000043,31.613946016320511490
0.206000000000000044,30.227297758281405748
0.207000000000000045,28.867395659518187756
0.208000000000000046,27.534231872153476672
0.209000000000000047,26.227748872016356074
0.210000000000000048,24.947843230303440976
0.211000000000000049,23.694369735784519548
0.212000000000000050,22.467145694021251501
0.213000000000000050,21.265955258100600389
0.214000000000000051,20.090553672316705303
0.215000000000000052,18.940671335437503586
0.216000000000000053,17.816017613226950544
0.217000000000000054,16.716284350492749411
0.218000000000000055,15.641149050965513112
0.219000000000000056,14.590277708768994103
0.220000000000000057,13.563327288171231899
0.221000000000000058,12.559947858853703906
0.222000000000000058,11.579784402255580034
0.223000000000000059,10.622478310862558004
0.224000000000000060,9.687668606819139328
0.225000000000000061,8.774992909182383727
0.226000000000000062,7.884088180724266870
0.227000000000000063,7.014591285643900775
0.228000000000000064,6.166139389075235400
0.229000000000000065,5.338370228053097577
0.230000000000000066,4.530922281808070551
0.231000000000000066,3.743434867042318537
0.232000000000000067,2.975548181334829678
0.233000000000000068,2.226903315144979079
0.234000000000000069,1.497142250128921770
0.235000000000000070,0.785907858733107090
0.236000000000000071,0.092843917350773353
0.237000000000000072,-0.582404857230629291
0.238000000000000073,-1.240192740757090073
0.239000000000000073,-1.880872898679499361
0.240000000000000074,-2.504797244433599523
0.241000000000000075,-3.112316257464116998
0.242000000000000076,-3.703778761177069612
0.243000000000000077,-4.279531662328695418
0.244000000000000078,-4.839919654465385079
0.245000000000000079,-5.385284888928063118
0.246000000000000080,-5.915966617636618352
0.247000000000000081,-6.432300812392945488
0.248000000000000081,-6.934619765796787405
0.249000000000000082,-7.423251679075899112
0.250000000000000111,-7.898520242207789366
0.251000000000000112,-8.360744211669141279
0.252000000000000113,-8.810236991011040075
0.253000000000000114,-9.247306219232839908
0.254000000000000115,-9.672253371638088737
0.255000000000000115,-10.085373377507545811
0.256000000000000116,-10.486954258536727025
0.257000000000000117,-10.877276791566279357
0.258000000000000118,-11.256614198693991824
0.259000000000000119,-11.625231867408349018
0.260000000000000120,-11.983387102932088197
0.261000000000000121,-12.331328914516706874
0.262000000000000122,-12.669297836993878903
0.263000000000000123,-12.997525788469189933
0.264000000000000123,-13.316235964645027678
0.265000000000000124,-13.625642769882812644
0.266000000000000125,-13.925951784765810970
0.267000000000000126,-14.217359769601699782
0.268000000000000127,-14.500054703012489554
0.269000000000000128,-14.774215854496585365
0.270000000000000129,-15.040013889616108855
0.271000000000000130,-15.297611006260940059
0.272000000000000131,-15.547161100267970824
0.273000000000000131,-15.788809958530602984
0.274000000000000132,-16.022695477616657911
0.275000000000000133,-16.248947905822930693
0.276000000000000134,-16.467690106528866778
0.277000000000000135,-16.679037840668634374
0.278000000000000136,-16.883100066120618976
0.279000000000000137,-17.079979251810808449
0.280000000000000138,-17.269771704343185093
0.281000000000000139,-17.452567905002677406
0.282000000000000139,-17.628452855022775481
0.283000000000000140,-17.797506427069603063
0.284000000000000141,-17.959803720964679030
0.285000000000000142,-18.115415421748657820
0.286000000000000143,-18.264408158276612681
0.287000000000000144,-18.406844860629441030
0.288000000000000145,-18.542785114726974882
0.289000000000000146,-18.672285512630672599
0.290000000000000147,-18.795399997132115288
0.291000000000000147,-18.912180199330588692
0.292000000000000148,-19.022675768013538544
0.293000000000000149,-19.126934689761927899
0.294000000000000150,-19.225003598811490235
0.295000000000000151,-19.316928075807645371
0.296000000000000152,-19.402752934696113840
0.297000000000000153,-19.482522497093590630
0.298000000000000154,-19.556280853581306189
0.299000000000000155,-19.624072111459501144
0.300000000000000155,-19.685940628592025092
0.301000000000000156,-19.741931233057108841
0.302000000000000157,-19.792089428403365048
0.303000000000000158,-19.836461584387404145
0.304000000000000159,-19.875095113143650849
0.305000000000000160,-19.908038630804497870
0.306000000000000161,-19.935342104653692274
0.307000000000000162,-19.957056985954228168
0.308000000000000163,-19.973236328646439830
0.309000000000000163,-19.983934894161802021
0.310000000000000164,-19.989209242642616005
0.311000000000000165,-19.989117810898513028
0.312000000000000166,-19.983720977466941093
0.313000000000000167,-19.973081115176693601
0.314000000000000168,-19.957262631641459194
0.315000000000000169,-19.936331998134608767
0.316000000000000170,-19.910357767316948951
0.317000000000000171,-19.879410580305680867
0.318000000000000171,-19.843563163586718900
0.319000000000000172,-19.802890316283090044
0.320000000000000173,-19.757468888299168697
0.321000000000000174,-19.707377749865738537
0.322000000000000175,-19.652697753012905224
0.323000000000000176,-19.593511685497716712
0.324000000000000177,-19.529904217711113290
0.325000000000000178,-19.461961843084147006
0.326000000000000179,-19.389772812507917621
0.327000000000000179,-19.313427063272989415
0.328000000000000180,-19.233016143025245981
0.329000000000000181,-19.148633129224485572
0.330000000000000182,-19.060372544579614384
0.331000000000000183,-18.968330268922180437
0.332000000000000184,-18.872603447965310863
0.333000000000000185,-18.773290399381092897
0.334000000000000186,-18.670490516613764242
0.335000000000000187,-18.564304170830432383
0.336000000000000187,-18.454832611394685671
0.337000000000000188,-18.342177865231569456
0.338000000000000189,-18.226442635436036710
0.339000000000000190,-18.107730199459506792
0.340000000000000191,-17.986144307191935354
0.341000000000000192,-17.861789079240345757
0.342000000000000193,-17.734768905686681961
0.343000000000000194,-17.605188345591951560
0.344000000000000195,-17.473152027495864047
0.345000000000000195,-17.338764551145530390
0.346000000000000196,-17.202130390669715609
0.347000000000000197,-17.063353799399813227
0.348000000000000198,-16.922538716522776525
0.349000000000000199,-16.779788675736082126
0.350000000000000200,-16.635206716060178422
0.351000000000000201,-16.488895294949202253
0.352000000000000202,-16.340956203827111892
0.353000000000000203,-16.191490486162955165
0.354000000000000203,-16.040598358185786054
0.355000000000000204,-15.888379132327546728
0.356000000000000205,-15.734931143470271664
0.357000000000000206,-15.580351678062450915
0.358000000000000207,-15.424736906158404537
0.359000000000000208,-15.268181816424391428
0.360000000000000209,-15.110780154144947574
0.361000000000000210,-14.952624362253857271
0.362000000000000210,-14.793805525405010926
0.363000000000000211,-14.634413317090183781
0.364000000000000212,-14.474535949802969981
0.365000000000000213,-14.314260128240260173
0.366000000000000214,-14.153671005526344828
0.367000000000000215,-13.992852142437556040
0.368000000000000216,-13.831885469599930261
0.369000000000000217,-13.670851252626309957
0.370000000000000218,-13.509828060154424278
0.371000000000000218,-13.348892734742481281
0.372000000000000219,-13.188120366574661801
0.373000000000000220,-13.027584269924748384
0.374000000000000221,-12.867355962322577057
0.375000000000000222,-12.707505146364608706
0.376000000000000223,-12.548099694107254010
0.377000000000000224,-12.389205633978622956
0.378000000000000225,-12.230887140142403524
0.379000000000000226,-12.073206524245319926
0.380000000000000226,-11.916224229478132202
0.381000000000000227,-11.759998826878410583
0.382000000000000228,-11.604587013802497353
0.383000000000000229,-11.450043614492781074
0.384000000000000230,-11.296421582665713501
0.385000000000000231,-11.143772006045894685
0.386000000000000232,-10.992144112770612097
0.387000000000000233,-10.841585279589669000
0.388000000000000234,-10.692141041784950062
0.389000000000000234,-10.543855104734822348
0.390000000000000235,-10.396769357048423643
0.391000000000000236,-10.250923885195835084
0.392000000000000237,-10.106356989560339343
0.393000000000000238,-9.963105201840248171
0.394000000000000239,-9.821203303728198719
0.395000000000000240,-9.680684346797150397
0.396000000000000241,-9.541579673523292726
0.397000000000000242,-9.403918939377151176
0.398000000000000242,-9.267730135915686063
0.399000000000000243,-9.133039614809254303
0.400000000000000244,-8.999872112738680485
0.401000000000000245,-8.868250777099561333
0.402000000000000246,-8.738197192451805151
0.403000000000000247,-8.609731407654253488
0.404000000000000248,-8.482871963625978395
0.405000000000000249,-8.357635921677072588
0.406000000000000250,-8.234038892353591876
0.407000000000000250,-8.112095064742993245
0.408000000000000251,-7.991817236187841900
0.409000000000000252,-7.873216842357575906
0.410000000000000253,-7.756303987629375563
0.411000000000000254,-7.641087475731299428
0.412000000000000255,-7.527574840602111905
0.413000000000000256,-7.415772377424263873
0.414000000000000257,-7.305685173787763276
0.415000000000000258,-7.197317140944791802
0.416000000000000258,-7.090671045116033966
0.417000000000000259,-6.985748538811767716
0.418000000000000260,-6.882550192132090849
0.419000000000000261,-6.781075524012213585
0.420000000000000262,-6.681323033380583531
0.421000000000000263,-6.583290230198825199
0.422000000000000264,-6.486973666354122869
0.423000000000000265,-6.392368966376086981
0.424000000000000266,-6.299470857951840586
0.425000000000000266,-6.208273202213974606
0.426000000000000267,-6.118769023777938187
0.427000000000000268,-6.030950540506465174
0.428000000000000269,-5.944809192980004653
0.429000000000000270,-5.860335673653565891
0.430000000000000271,-5.777519955681372998
0.431000000000000272,-5.696351321392224776
0.432000000000000273,-5.616818390399433092
0.433000000000000274,-5.538909147330492111
0.434000000000000274,-5.462610969162609464
0.435000000000000275,-5.387910652151511215
0.436000000000000276,-5.314794438341794880
0.437000000000000277,-5.243248041648142177
0.438000000000000278,-5.173256673497821367
0.439000000000000279,-5.104805068025702219
0.440000000000000280,-5.037877506813932982
0.441000000000000281,-4.972457843169385328
0.442000000000000282,-4.908529525932790349
0.443000000000000282,-4.846075622814149497
0.444000000000000283,-4.785078843250103020
0.445000000000000284,-4.725521560779336383
0.446000000000000285,-4.667385834932948896
0.447000000000000286,-4.610653432637645821
0.448000000000000287,-4.555305849129713813
0.449000000000000288,-4.501324328378996320
0.450000000000000289,-4.448689883022151292
0.451000000000000290,-4.397383313805380389
0.452000000000000290,-4.347385228537240742
0.453000000000000291,-4.298676060552582001
0.454000000000000292,-4.251236086689361038
0.455000000000000293,-4.205045444780248332
0.456000000000000294,-4.160084150661693236
0.457000000000000295,-4.116332114703244116
0.458000000000000296,-4.073769157860523293
0.459000000000000297,-4.032375027255493016
0.460000000000000298,-3.992129411288035890
0.461000000000000298,-3.953011954283210283
0.462000000000000299,-3.915002270678836105
0.463000000000000300,-3.878079958758272827
0.464000000000000301,-3.842224613933672650
0.465000000000000302,-3.807415841585077398
0.466000000000000303,-3.773633269461045270
0.467000000000000304,-3.740856559646613455
0.468000000000000305,-3.709065420104764144
0.469000000000000306,-3.678239615797502804
0.470000000000000306,-3.648358979393040435
0.471000000000000307,-3.619403421565492440
0.472000000000000308,-3.591352940893898449
0.473000000000000309,-3.564187633367219998
0.474000000000000310,-3.537887701502241633
0.475000000000000311,-3.512433463081336527
0.476000000000000312,-3.487805359517193615
0.477000000000000313,-3.463983963851492209
0.478000000000000314,-3.440949988394798709
0.479000000000000314,-3.418684292014893877
0.480000000000000315,-3.397167887080653426
0.481000000000000316,-3.376381946068930606
0.482000000000000317,-3.356307807841539592
0.483000000000000318,-3.336926983599757701
0.484000000000000319,-3.318221162523550927
0.485000000000000320,-3.300172217102870231
0.486000000000000321,-3.282762208168192863
0.487000000000000322,-3.265973389627613077
0.488000000000000322,-3.249788212917617436
0.489000000000000323,-3.234189331174784687
0.490000000000000324,-3.219159603135461456
0.491000000000000325,-3.204682096770546273
0.492000000000000326,-3.190740092662314620
0.493000000000000327,-3.177317087130343776
0.494000000000000328,-3.164396795113372463
0.495000000000000329,-3.151963152813924474
0.496000000000000330,-3.140000320112468213
0.497000000000000330,-3.128492682757809007
0.498000000000000331,-3.117424854340250739
0.499000000000000332,-3.106781678054123752
0.500000000000000333,-3.096548228256081892
0.501000000000000334,-3.086709811825494310
0.502000000000000335,-3.077251969333221648
0.503000000000000336,-3.068160476024934802
0.504000000000000337,-3.059421342625047391
0.505000000000000338,-3.051020815967221189
0.506000000000000338,-3.042945379457367316
0.507000000000000339,-3.035181753374867064
0.508000000000000340,-3.027716895017740217
0.509000000000000341,-3.020537998697330195
0.510000000000000342,-3.013632495587961646
0.511000000000000343,-3.006988053436982167
0.512000000000000344,-3.000592576140434176
0.513000000000000345,-2.994434203189526578
0.514000000000000346,-2.988501308993030570
0.515000000000000346,-2.982782502080466358
0.516000000000000347,-2.977266624190995525
0.517000000000000348,-2.971942749252838745
0.518000000000000349,-2.966800182257708141
0.519000000000000350,-2.961828458034956313
0.520000000000000351,-2.957017339929835398
0.521000000000000352,-2.952356818390190263
0.522000000000000353,-2.947837109465853977
0.523000000000000353,-2.943448653224867595
0.524000000000000354,-2.939182112090609422
0.525000000000000355,-2.935028369103717782
0.526000000000000356,-2.930978526112673954
0.527000000000000357,-2.927023901896834257
0.528000000000000358,-2.923156030225473323
0.529000000000000359,-2.919366657856472536
0.530000000000000360,-2.915647742478054916
0.531000000000000361,-2.911991450596976616
0.532000000000000361,-2.908390155376408881
0.533000000000000362,-2.904836434426710134
0.534000000000000363,-2.901323067552189272
0.535000000000000364,-2.897843034456829336
0.536000000000000365,-2.894389512411923882
0.537000000000000366,-2.890955873888428673
0.538000000000000367,-2.887535684156767424
0.539000000000000368,-2.884122698856802725
0.540000000000000369,-2.880710861540459078
0.541000000000000369,-2.877294301189595060
0.542000000000000370,-2.873867329711469853
0.543000000000000371,-2.870424439414155593
0.544000000000000372,-2.866960300464214573
0.545000000000000373,-2.863469758328746284
0.546000000000000374,-2.859947831203972335
0.547000000000000375,-2.856389707432374969
0.548000000000000376,-2.852790742910409794
0.549000000000000377,-2.849146458488616585
0.550000000000000377,-2.845452537366008894
0.551000000000000378,-2.841704822480523696
0.552000000000000379,-2.837899313897183529
0.553000000000000380,-2.834032166195666669
0.554000000000000381,-2.830099685858792569
0.555000000000000382,-2.826098328663526615
0.556000000000000383,-2.822024697075851130
0.557000000000000384,-2.817875537651007622
0.558000000000000385,-2.813647738440358204
0.559000000000000385,-2.809338326406232600
0.560000000000000386,-2.804944464845902097
0.561000000000000387,-2.800463450825946055
0.562000000000000388,-2.795892712628071486
0.563000000000000389,-2.791229807207504798
0.564000000000000390,-2.786472417664937584
0.565000000000000391,-2.781618350733054523
0.566000000000000392,-2.776665534278543568
0.567000000000000393,-2.771612014820484138
0.568000000000000393,-2.766455955065946881
0.569000000000000394,-2.761195631463632338
0.570000000000000395,-2.755829431776282146
0.571000000000000396,-2.750355852672567547
0.572000000000000397,-2.744773497339203949
0.573000000000000398,-2.739081073113824427
0.574000000000000399,-2.733277389139323610
0.575000000000000400,-2.727361354040159114
0.576000000000000401,-2.721331973621171407
0.577000000000000401,-2.715188348589463452
0.578000000000000402,-2.708929672299713598
0.579000000000000403,-2.702555228523434216
0.580000000000000404,-2.696064389242557535
0.581000000000000405,-2.689456612467700847
0.582000000000000406,-2.682731440081481900
0.583000000000000407,-2.675888495707178016
0.584000000000000408,-2.668927482603048684
0.585000000000000409,-2.661848181582536998
0.586000000000000409,-2.654650448960639952
0.587000000000000410,-2.647334214526630092
0.588000000000000411,-2.639899479543303507
0.589000000000000412,-2.632346314772985973
0.590000000000000413,-2.624674858530343435
0.591000000000000414,-2.616885314762202430
0.592000000000000415,-2.608977951154465291
0.593000000000000416,-2.600953097266157421
0.594000000000000417,-2.592811142690724324
0.595000000000000417,-2.584552535244632132
0.596000000000000418,-2.576177779183208560
0.597000000000000419,-2.567687433443868184
0.598000000000000420,-2.559082109916603898
0.599000000000000421,-2.550362471741791204
0.600000000000000422,-2.541529231635241359
0.601000000000000423,-2.532583150240462544
0.602000000000000424,-2.523525034508057985
0.603000000000000425,-2.514355736102213079
0.604000000000000425,-2.505076149834128074
0.605000000000000426,-2.495687212122338572
0.606000000000000427,-2.486189899479845700
0.607000000000000428,-2.476585227027773950
0.608000000000000429,-2.466874247035694356
0.609000000000000430,-2.457058047488136499
