# AuFCC100-Ablate25_CS-64234-AC
# h[nm],U(h)[kJ/mol]
0.200000000000000011,149.304961911962323029
0.201000000000000012,139.813803534059900358
0.202000000000000013,134.700654211163339369
0.203000000000000014,131.532318872635585194
0.204000000000000015,128.954073983253920233
0.205000000000000016,126.290292526233471904
0.206000000000000016,123.273943470178934945
0.207000000000000017,119.867582887616393350
0.208000000000000018,116.148435577176812217
0.209000000000000019,112.237648584064828583
0.210000000000000020,108.259376748315190753
0.211000000000000021,104.319494170498913377
0.212000000000000022,100.496767005527686933
0.213000000000000023,96.841542691353055261
0.214000000000000024,93.378615254887137098
0.215000000000000024,90.112073112789985885
0.216000000000000025,87.030744219855350252
0.217000000000000026,84.113413726941999471
0.218000000000000027,81.333369314084649204
0.219000000000000028,78.662079766664746217
0.220000000000000029,76.071970831338745711
0.221000000000000030,73.538356702934009945
0.222000000000000031,71.040635964947995262
0.223000000000000032,68.562882134970919878
0.224000000000000032,66.093961661531025698
0.225000000000000033,63.627303680224656546
0.226000000000000034,61.160431175176391605
0.227000000000000035,58.694345848089106710
0.228000000000000036,56.232841208557502455
0.229000000000000037,53.781801546551960769
0.230000000000000038,51.348529312673932168
0.231000000000000039,48.941130385979825235
0.232000000000000040,46.567975853154564447
0.233000000000000040,44.237250184261213803
0.234000000000000041,41.956588894504434961
0.235000000000000042,39.732803700197521835
0.236000000000000043,37.571689561748812025
0.237000000000000044,35.477905609555342892
0.238000000000000045,33.454920537450725249
0.239000000000000046,31.505012412386740550
0.240000000000000047,29.629312803870941906
0.241000000000000048,27.827885524793295247
0.242000000000000048,26.099830965183191012
0.243000000000000049,24.443407884886958925
0.244000000000000050,22.856165524650613463
0.245000000000000051,21.335079931148321464
0.246000000000000052,19.876689419975541284
0.247000000000000053,18.477225085038952557
0.248000000000000054,17.132733177940075109
0.249000000000000055,15.839187010780701570
0.250000000000000056,14.592586771448395666
0.251000000000000056,13.389046278587525052
0.252000000000000057,12.224866245039606838
0.253000000000000058,11.096594067524652161
0.254000000000000059,10.001070522814673680
0.255000000000000060,8.935464034076987971
0.256000000000000061,7.897293383644750975
0.257000000000000062,6.884439898722177986
0.258000000000000063,5.895150232913503707
0.259000000000000064,4.928030917142734779
0.260000000000000064,3.982035866183583295
0.261000000000000065,3.056448008731305510
0.262000000000000066,2.150856166130689306
0.263000000000000067,1.265128243252785278
0.264000000000000068,0.399381719600671314
0.265000000000000069,-0.446047656135734605
0.266000000000000070,-1.270638155467037400
0.267000000000000071,-2.073714624097999781
0.268000000000000071,-2.854480674574779719
0.269000000000000072,-3.612049983084252069
0.270000000000000073,-4.345476243810827199
0.271000000000000074,-5.053781417400665887
0.272000000000000075,-5.735981987582468911
0.273000000000000076,-6.391113011247608000
0.274000000000000077,-7.018249811951240424
0.275000000000000078,-7.616527224702819510
0.276000000000000079,-8.185156351084923898
0.277000000000000079,-8.723438828317465976
0.278000000000000080,-9.230778654115095350
0.279000000000000081,-9.706691641399228132
0.280000000000000082,-10.150812603500659392
0.281000000000000083,-10.562900391847371395
0.282000000000000084,-10.942840924716270123
0.283000000000000085,-11.290648357891720721
0.284000000000000086,-11.606464556469395788
0.285000000000000087,-11.890557032015269812
0.286000000000000087,-12.143315511265447171
0.287000000000000088,-12.365247301940511804
0.288000000000000089,-12.556971618432539728
0.289000000000000090,-12.719213025462892119
0.290000000000000091,-12.852794151631929509
0.291000000000000092,-12.958627817393315595
0.292000000000000093,-13.037708713653884729
0.293000000000000094,-13.091104758173898404
0.294000000000000095,-13.119948247436420630
0.295000000000000095,-13.125426911861367785
0.296000000000000096,-13.108774972324809482
0.297000000000000097,-13.071264286051421877
0.298000000000000098,-13.014195660198032201
0.299000000000000099,-12.938890401942364505
0.300000000000000100,-12.846682164715002017
0.301000000000000101,-12.738909141432923633
0.302000000000000102,-12.616906647261576069
0.303000000000000103,-12.482000126588367550
0.304000000000000103,-12.335498611561217075
0.305000000000000104,-12.178688652749331212
0.306000000000000105,-12.012828736227875837
0.307000000000000106,-11.839144195673252824
0.308000000000000107,-11.658822622878517450
0.309000000000000108,-11.473009775444941383
0.310000000000000109,-11.282805976262048731
0.311000000000000110,-11.089262995735499118
0.312000000000000111,-10.893381404536640389
0.313000000000000111,-10.696108381906906715
0.314000000000000112,-10.498335962227358209
0.315000000000000113,-10.300899700632196954
0.316000000000000114,-10.104577736878294303
0.317000000000000115,-9.910090235451626484
0.318000000000000116,-9.718099178969742624
0.319000000000000117,-9.529208491299815620
0.320000000000000118,-9.343964466427186366
0.321000000000000119,-9.162856478955191619
0.322000000000000119,-8.986317952168199952
0.323000000000000120,-8.814727559822916447
0.324000000000000121,-8.648410638226065927
0.325000000000000122,-8.487640785688508771
0.326000000000000123,-8.332641627096815995
0.327000000000000124,-8.183588722095077372
0.328000000000000125,-8.040611596206209910
0.329000000000000126,-7.903795875125419812
0.330000000000000127,-7.773185503376342176
0.331000000000000127,-7.648785029519541645
0.332000000000000128,-7.530561941129391812
0.333000000000000129,-7.418449033801337578
0.334000000000000130,-7.312346799504311434
0.335000000000000131,-7.212125820647296237
0.336000000000000132,-7.117629157273356100
0.337000000000000133,-7.028674715826345398
0.338000000000000134,-6.945057588945203975
0.339000000000000135,-6.866552356726900896
0.340000000000000135,-6.792915340854264628
0.341000000000000136,-6.723886803908217580
0.342000000000000137,-6.659193087070801376
0.343000000000000138,-6.598548680274204159
0.344000000000000139,-6.541658219659977291
0.345000000000000140,-6.488218407980582469
0.346000000000000141,-6.437919854300820255
0.347000000000000142,-6.390448830040123873
0.348000000000000143,-6.345488939037565501
0.349000000000000143,-6.302722699919200977
0.350000000000000144,-6.261833039604175255
0.351000000000000145,-6.222504697300730747
0.352000000000000146,-6.184425538818096868
0.353000000000000147,-6.147287781455496258
0.354000000000000148,-6.110789130126954127
0.355000000000000149,-6.074633825740781035
0.356000000000000150,-6.038533607177962281
0.357000000000000151,-6.002208588504716502
0.358000000000000151,-5.965388053313458450
0.359000000000000152,-5.927811168314358170
0.360000000000000153,-5.889227618498829919
0.361000000000000154,-5.849398166367506313
0.362000000000000155,-5.808095137860808777
0.363000000000000156,-5.765102837751463483
0.364000000000000157,-5.720217897356367764
0.365000000000000158,-5.673249557503146079
0.366000000000000159,-5.624019889743459899
0.367000000000000159,-5.572363958845106602
0.368000000000000160,-5.518129929617415996
0.369000000000000161,-5.461179121131521264
0.370000000000000162,-5.401386011390489905
0.371000000000000163,-5.338638195484767479
0.372000000000000164,-5.272836300236919627
0.373000000000000165,-5.203893858298747510
0.374000000000000166,-5.131737144612575463
0.375000000000000167,-5.056304978089658064
0.376000000000000167,-4.977548491292635546
0.377000000000000168,-4.895430870836015913
0.378000000000000169,-4.809927071140898569
0.379000000000000170,-4.721023504097552781
0.380000000000000171,-4.628717707102705248
0.381000000000000172,-4.533017991849106920
0.382000000000000173,-4.433943076152370821
0.383000000000000174,-4.331521701006549208
0.384000000000000175,-4.225792234964044880
0.385000000000000175,-4.116802267839707596
0.386000000000000176,-4.004608195642208379
0.387000000000000177,-3.889274798539452238
0.388000000000000178,-3.770874813568975359
0.389000000000000179,-3.649488503708924636
0.390000000000000180,-3.525203224831604754
0.391000000000000181,-3.398112991968699870
0.392000000000000182,-3.268318046226911910
0.393000000000000183,-3.135924423603279720
0.394000000000000183,-3.001043526863149236
0.395000000000000184,-2.863791701558919378
0.396000000000000185,-2.724289817185443052
0.397000000000000186,-2.582662854388687812
0.398000000000000187,-2.439039499066930183
0.399000000000000188,-2.293551744129464165
0.400000000000000189,-2.146334499606570745
0.401000000000000190,-1.997525211735178940
0.402000000000000191,-1.847263491579510530
0.403000000000000191,-1.695690753682050911
0.404000000000000192,-1.542949865180750058
0.405000000000000193,-1.389184805770447451
0.406000000000000194,-1.234540338832223139
0.407000000000000195,-1.079161694002636285
0.408000000000000196,-0.923194261405513195
0.409000000000000197,-0.766783297722979151
0.410000000000000198,-0.610073644238697366
0.411000000000000199,-0.453209456945043221
0.412000000000000199,-0.296333948767648958
0.413000000000000200,-0.139589143924771342
0.414000000000000201,0.016884355594887525
0.415000000000000202,0.172947591483528840
0.416000000000000203,0.328463458571049471
0.417000000000000204,0.483296902391141814
0.418000000000000205,0.637315104984477854
0.419000000000000206,0.790387659089971661
0.420000000000000207,0.942386730896022429
0.421000000000000207,1.093187211541784665
0.422000000000000208,1.242666857576723016
0.423000000000000209,1.390706420601060866
0.424000000000000210,1.537189766324286611
0.425000000000000211,1.682003983290740523
0.426000000000000212,1.825039481532134245
0.427000000000000213,1.966190081416344881
0.428000000000000214,2.105353092969574291
0.429000000000000214,2.242429385956183019
0.430000000000000215,2.377323451005774579
0.431000000000000216,2.509943452081559556
0.432000000000000217,2.640201270587932747
0.433000000000000218,2.768012541417141481
0.434000000000000219,2.893296681236749546
0.435000000000000220,3.015976909320271737
0.436000000000000221,3.135980261223240362
0.437000000000000222,3.253237595606112365
0.438000000000000222,3.367683594503880329
0.439000000000000223,3.479256757340078110
0.440000000000000224,3.587899388980271276
0.441000000000000225,3.693557582116700821
0.442000000000000226,3.796181194271805559
0.443000000000000227,3.895723819704695501
0.444000000000000228,3.992142756499315048
0.445000000000000229,4.085398969108659628
0.446000000000000230,4.175457046623618496
0.447000000000000230,4.262285157029841010
0.448000000000000231,4.345854997709791334
0.449000000000000232,4.426141742441321192
0.450000000000000233,4.503123985137731822
0.451000000000000234,4.576783680567794832
0.452000000000000235,4.647106082287736584
0.453000000000000236,4.714079678010511643
0.454000000000000237,4.777696122630593401
0.455000000000000238,4.837950169116277621
0.456000000000000238,4.894839597473863435
0.457000000000000239,4.948365141981883930
0.458000000000000240,4.998530416885945904
0.459000000000000241,5.045341840738461592
0.460000000000000242,5.088808559560087375
0.461000000000000243,5.128942368993327783
0.462000000000000244,5.165757635611498699
0.463000000000000245,5.199271217539998879
0.464000000000000246,5.229502384539665094
0.465000000000000246,5.256472737695800923
0.466000000000000247,5.280206128849769698
0.467000000000000248,5.300728579903803528
0.468000000000000249,5.318068202123242827
0.469000000000000250,5.332255115554400682
0.470000000000000251,5.343321368670186367
0.471000000000000252,5.351300858349714140
0.472000000000000253,5.356229250292239286
0.473000000000000254,5.358143899960377432
0.474000000000000254,5.357083774141822019
0.475000000000000255,5.353089373213512303
0.476000000000000256,5.346202654187105274
0.477000000000000257,5.336466954609313973
0.478000000000000258,5.323926917385921165
0.479000000000000259,5.308628416593576205
0.480000000000000260,5.290618484338597050
0.481000000000000261,5.269945238717834712
0.482000000000000262,5.246657812932096654
0.483000000000000262,5.220806285598654561
0.484000000000000263,5.192441612305132459
0.485000000000000264,5.161615558443433116
0.486000000000000265,5.128380633358313290
0.487000000000000266,5.092790025841951618
0.488000000000000267,5.054897541002249639
0.489000000000000268,5.014757538529147851
0.490000000000000269,4.972424872380459604
0.491000000000000270,4.927954831905215549
0.492000000000000270,4.881403084420028904
0.493000000000000271,4.832825619250832538
0.494000000000000272,4.782278693250150425
0.495000000000000273,4.729818777796902296
0.496000000000000274,4.675502507284075904
0.497000000000000275,4.619386629096768004
0.498000000000000276,4.561527955081030150
0.499000000000000277,4.501983314502252753
0.500000000000000222,4.440809508489249602
0.501000000000000334,4.378063265959071693
0.502000000000000224,4.313801201015243336
0.503000000000000336,4.248079771810813199
0.504000000000000226,4.180955240866118139
0.505000000000000338,4.112483636829309397
0.506000000000000227,4.042720717666998809
0.507000000000000339,3.971721935270381643
0.508000000000000229,3.899542401461796093
0.509000000000000341,3.826236855384687718
0.510000000000000231,3.751859632259989752
0.511000000000000343,3.676464633489886502
0.512000000000000233,3.600105298090180206
0.513000000000000345,3.522834575430536574
0.514000000000000234,3.444704899262333697
0.515000000000000346,3.365768163012095471
0.516000000000000236,3.286075696318929484
0.517000000000000348,3.205678242792748822
0.518000000000000238,3.124625938970862826
0.519000000000000350,3.042968294448685995
0.520000000000000240,2.960754173161407543
0.521000000000000352,2.878031775791766389
0.522000000000000242,2.794848623280110189
0.523000000000000353,2.711251541411351162
0.524000000000000243,2.627286646454744190
0.525000000000000355,2.542999331830751775
0.526000000000000245,2.458434255780586053
0.527000000000000357,2.373635330012650257
0.528000000000000247,2.288645709301329489
0.529000000000000359,2.203507782012468663
0.530000000000000249,2.118263161530827610
0.531000000000000361,2.032952678564153182
0.532000000000000250,1.947616374299315112
0.533000000000000362,1.862293494385198089
0.534000000000000252,1.777022483718440515
0.535000000000000364,1.691840982006586502
0.536000000000000254,1.606785820085476546
0.537000000000000366,1.521893016965795153
0.538000000000000256,1.437197777585836445
0.539000000000000368,1.352734491246222026
0.540000000000000258,1.268536730703960336
0.541000000000000369,1.184637251902117772
0.542000000000000259,1.101067994313255083
0.543000000000000371,1.017860081873450895
0.544000000000000261,0.935043824485441433
0.545000000000000373,0.852648720068822419
0.546000000000000263,0.770703457136290959
0.547000000000000375,0.689235917874342352
0.548000000000000265,0.608273181708603228
0.549000000000000377,0.527841529332603976
0.550000000000000266,0.447966447180958460
0.551000000000000378,0.368672632326678795
0.552000000000000268,0.289983997784097614
0.553000000000000380,0.211923678198176202
0.554000000000000270,0.134514035902257106
0.555000000000000382,0.057776667325882415
0.556000000000000272,-0.018267590264472923
0.557000000000000384,-0.093598651709244224
0.558000000000000274,-0.168197176600774156
0.559000000000000385,-0.242044561645964412
0.560000000000000275,-0.315122932762383623
0.561000000000000387,-0.387415136923685843
0.562000000000000277,-0.458904733769130047
0.563000000000000389,-0.529575986992465886
0.564000000000000279,-0.599413855524100092
0.565000000000000391,-0.668403984521013017
0.566000000000000281,-0.736532696177588431
0.567000000000000393,-0.803786980371079318
0.568000000000000282,-0.870154485154098323
0.569000000000000394,-0.935623507107112728
0.570000000000000284,-1.000182981562464768
0.571000000000000396,-1.063822472712376399
0.572000000000000286,-1.126532163611651871
0.573000000000000398,-1.188302846086618070
0.574000000000000288,-1.249125910560585195
0.575000000000000400,-1.308993335806565961
0.576000000000000290,-1.367897678636752268
0.577000000000000401,-1.425832063538931660
0.578000000000000291,-1.482790172268665607
0.579000000000000403,-1.538766233406603234
0.580000000000000293,-1.593755011889280926
0.581000000000000405,-1.647751798522146149
0.582000000000000295,-1.700752399482323707
0.583000000000000407,-1.752753125819489055
0.584000000000000297,-1.803750782961644150
0.585000000000000409,-1.853742660233567152
0.586000000000000298,-1.902726520394222742
0.587000000000000410,-1.950700589200252466
0.588000000000000300,-1.997663545001348906
0.589000000000000412,-2.043614508374042238
0.590000000000000302,-2.088553031799219362
0.591000000000000414,-2.132479089389319071
0.592000000000000304,-2.175393066670129549
0.593000000000000416,-2.217295750422459300
0.594000000000000306,-2.258188318588306931
0.595000000000000417,-2.298072330246288875
0.596000000000000307,-2.336949715660355587
0.597000000000000419,-2.374822766406235797
0.598000000000000309,-2.411694125579308512
0.599000000000000421,-2.447566778087586492
0.600000000000000311,-2.482444041033400328
0.601000000000000423,-2.516329554187050732
0.602000000000000313,-2.549227270555321834
0.603000000000000425,-2.581141447048161730
0.604000000000000314,-2.612076635245778711
0.605000000000000426,-2.642037672269132109
0.606000000000000316,-2.671029671755865031
0.607000000000000428,-2.699058014944079709
0.608000000000000318,-2.726128341865952098
0.609000000000000430,-2.752246542653088657
0.610000000000000320,-2.777418748955265748
0.611000000000000432,-2.801651325474376009
0.612000000000000322,-2.824950861614745623
0.613000000000000433,-2.847324163251389706
0.614000000000000323,-2.868778244617254281
0.615000000000000435,-2.889320320310551971
0.616000000000000325,-2.908957797423039615
0.617000000000000437,-2.927698267790239228
0.618000000000000327,-2.945549500364073481
0.619000000000000439,-2.962519433708677319
0.620000000000000329,-2.978616168619786286
0.621000000000000441,-2.993847960868090130
0.622000000000000330,-3.008223214066852780
0.623000000000000442,-3.021750472664003873
0.624000000000000332,-3.034438415058676952
0.625000000000000444,-3.046295846842405730
0.626000000000000334,-3.057331694164692415
0.627000000000000446,-3.067554997222932123
0.628000000000000336,-3.076974903876404710
0.629000000000000448,-3.085600663384033826
0.630000000000000338,-3.093441620265484193
0.631000000000000449,-3.100507208285282257
0.632000000000000339,-3.106806944559300732
0.633000000000000451,-3.112350423783110109
0.634000000000000341,-3.117147312581530993
0.635000000000000453,-3.121207343978805948
0.636000000000000343,-3.124540311988430297
0.637000000000000455,-3.127156066322129391
0.638000000000000345,-3.129064507216873903
0.639000000000000457,-3.130275580379261235
0.640000000000000346,-3.130799272046204340
0.641000000000000458,-3.130645604161031326
0.642000000000000348,-3.129824629663943814
0.643000000000000460,-3.128346427895829951
0.644000000000000350,-3.126221100114337847
0.645000000000000462,-3.123458765121092107
0.646000000000000352,-3.120069554998932126
0.647000000000000464,-3.116063610958019758
0.648000000000000353,-3.111451079289613286
0.649000000000000465,-3.106242107426242960
0.650000000000000355,-3.100446840107184077
0.651000000000000467,-3.094075415647785210
0.652000000000000357,-3.087137962311614636
0.653000000000000469,-3.079644594783805811
0.654000000000000359,-3.071605410744691511
0.655000000000000471,-3.063030487542051983
0.656000000000000361,-3.053929878960846445
0.657000000000000473,-3.044313612088996646
0.658000000000000362,-3.034191684277925738
0.659000000000000474,-3.023574060196422941
0.660000000000000364,-3.012470668976516386
0.661000000000000476,-3.000891401449934826
0.662000000000000366,-2.988846107473827285
0.663000000000000478,-2.976344593344266265
0.664000000000000368,-2.963396619296250201
0.665000000000000480,-2.950011897088752999
