# AuFCC100-Ablate25_CS-65596-AC
# h[nm],U(h)[kJ/mol]
0.149999999999999994,155.772043310721556963
0.150999999999999995,152.640468355133464229
0.151999999999999996,149.381496013674677670
0.152999999999999997,146.141025540635325797
0.153999999999999998,142.978023787487785512
0.154999999999999999,139.906371494310235448
0.156000000000000000,136.919426339600704523
0.157000000000000001,134.003625504503617094
0.158000000000000002,131.145357454053254287
0.159000000000000002,128.333876076982363656
0.160000000000000003,125.562030646888814545
0.161000000000000004,122.825909937855314524
0.162000000000000005,120.124051593463377685
0.163000000000000006,117.456578561381277837
0.164000000000000007,114.824442942291511827
0.165000000000000008,112.228848430714521101
0.166000000000000009,109.670860763885656297
0.167000000000000010,107.151184059621485289
0.168000000000000010,104.670067941661528721
0.169000000000000011,102.227308147861748466
0.170000000000000012,99.822306844906037782
0.171000000000000013,97.454164961755026297
0.172000000000000014,95.121785601514375230
0.173000000000000015,92.823973936930386230
0.174000000000000016,90.559524418408386737
0.175000000000000017,88.327290440439028885
0.176000000000000018,86.126234833921500922
0.177000000000000018,83.955461794071638337
0.178000000000000019,81.814232278607619264
0.179000000000000020,79.701965691377012035
0.180000000000000021,77.618230965186299386
0.181000000000000022,75.562730116499636779
0.182000000000000023,73.535277081556188250
0.183000000000000024,71.535774251250742850
0.184000000000000025,69.564188671009304699
0.185000000000000026,67.620529412343486797
0.186000000000000026,65.704827188935382765
0.187000000000000027,63.817116903170571618
0.188000000000000028,61.957423480243917879
0.189000000000000029,60.125751080250800840
0.190000000000000030,58.322075572868392612
0.191000000000000031,56.546340009780536207
0.192000000000000032,54.798452730372069652
0.193000000000000033,53.078287678890625045
0.194000000000000034,51.385686488508611092
0.195000000000000034,49.720461892040987095
0.196000000000000035,48.082402043631475408
0.197000000000000036,46.471275374450797813
0.198000000000000037,44.886835653179289807
0.199000000000000038,43.328826974500231017
0.200000000000000039,41.796988452589829421
0.201000000000000040,40.291058449030280997
0.202000000000000041,38.810778213763107658
0.203000000000000042,37.355894862320127459
0.204000000000000042,35.926163651794453813
0.205000000000000043,34.521349551439051595
0.206000000000000044,33.141228131315763505
0.207000000000000045,31.785585814231392732
0.208000000000000046,30.454219552628057244
0.209000000000000047,29.146936003612573529
0.210000000000000048,27.863550282453712015
0.211000000000000049,26.603884378234219810
0.212000000000000050,25.367765315497162959
0.213000000000000050,24.155023143261772134
0.214000000000000051,22.965488828234409624
0.215000000000000052,21.798992122917681513
0.216000000000000053,20.655359472073101301
0.217000000000000054,19.534412013019430532
0.218000000000000055,18.435963716895557241
0.219000000000000056,17.359819709574935587
0.220000000000000057,16.305774802621655795
0.221000000000000058,15.273612256729213854
0.222000000000000058,14.263102792613917558
0.223000000000000059,13.274003857470603407
0.224000000000000060,12.306059148900502009
0.225000000000000061,11.358998392741138872
0.226000000000000062,10.432537366483870755
0.227000000000000063,9.526378155953562299
0.228000000000000064,8.640209629631529609
0.229000000000000065,7.773708112391244818
0.230000000000000066,6.926538238450928198
0.231000000000000066,6.098353961972021509
0.232000000000000067,5.288799702900812250
0.233000000000000068,4.497511605299678195
0.234000000000000069,3.724118885490996345
0.235000000000000070,2.968245247781341689
0.236000000000000071,2.229510346292193468
0.237000000000000072,1.507531272439477821
0.238000000000000073,0.801924048831769154
0.239000000000000073,0.112305111747717651
0.240000000000000074,-0.561707234139228406
0.241000000000000075,-1.220491403527706797
0.242000000000000076,-1.864421173848427982
0.243000000000000077,-2.493864395664764810
0.244000000000000078,-3.109181779916594390
0.245000000000000079,-3.710725770198963325
0.246000000000000080,-4.298839506706118030
0.247000000000000081,-4.873855886980159369
0.248000000000000081,-5.436096727189581479
0.249000000000000082,-5.985872026339576379
0.250000000000000111,-6.523479334589254108
0.251000000000000112,-7.049203225724165911
0.252000000000000113,-7.563314872812247458
0.253000000000000114,-8.066071725151626737
0.254000000000000115,-8.557717283808504050
0.255000000000000115,-9.038480972330905416
0.256000000000000116,-9.508578098614256291
0.257000000000000117,-9.968209903379335657
0.258000000000000118,-10.417563690297901857
0.259000000000000119,-10.856813032463708879
0.260000000000000120,-11.286118049648610651
0.261000000000000121,-11.705625750599191193
0.262000000000000122,-12.115470434515810183
0.263000000000000123,-12.515774145802627260
0.264000000000000123,-12.906647176182866943
0.265000000000000124,-13.288188608328065143
0.266000000000000125,-13.660486895251011674
0.267000000000000126,-14.023620469851326931
0.268000000000000127,-14.377658379177386649
0.269000000000000128,-14.722660938170559319
0.270000000000000129,-15.058680397885453317
0.271000000000000130,-15.385761623427493205
0.272000000000000131,-15.703942777111640439
0.273000000000000131,-16.013256002621453433
0.274000000000000132,-16.313728106230801274
0.275000000000000133,-16.605381231439462653
0.276000000000000134,-16.888233523664872848
0.277000000000000135,-17.162299781922541797
0.278000000000000136,-17.427592094716853666
0.279000000000000137,-17.684120457647193092
0.280000000000000138,-17.931893370511737373
0.281000000000000139,-18.170918411961626049
0.282000000000000139,-18.401202790018221123
0.283000000000000140,-18.622753867017312501
0.284000000000000141,-18.835579657783146246
0.285000000000000142,-19.039689300063621147
0.286000000000000143,-19.235093496473236740
0.287000000000000144,-19.421804927393431228
0.288000000000000145,-19.599838634471137055
0.289000000000000146,-19.769212374532312282
0.290000000000000147,-19.929946943893185107
0.291000000000000147,-20.082066473202456081
0.292000000000000148,-20.225598693087768254
0.293000000000000149,-20.360575171005290684
0.294000000000000150,-20.487031519806954805
0.295000000000000151,-20.605007578641863830
0.296000000000000152,-20.714547566900598952
0.297000000000000153,-20.815700211991565283
0.298000000000000154,-20.908518851809070327
0.299000000000000155,-20.993061512813220304
0.300000000000000155,-21.069390964693194945
0.301000000000000156,-21.137574752627330099
0.302000000000000157,-21.197685208188048023
0.303000000000000158,-21.249799439965592285
0.304000000000000159,-21.293999305003811884
0.305000000000000160,-21.330371362153329073
0.306000000000000161,-21.359006808453948167
0.307000000000000162,-21.380001399658340233
0.308000000000000163,-21.393455356004142942
0.309000000000000163,-21.399473254332548322
0.310000000000000164,-21.398163907637126613
0.311000000000000165,-21.389640233109162182
0.312000000000000166,-21.374019109724784471
0.313000000000000167,-21.351421226394666775
0.314000000000000168,-21.321970921670448718
0.315000000000000169,-21.285796015972731965
0.316000000000000170,-21.243027637274337849
0.317000000000000171,-21.193800041139756019
0.318000000000000171,-21.138250425987187953
0.319000000000000172,-21.076518744404644679
0.320000000000000173,-21.008747511315164047
0.321000000000000174,-20.935081609749101261
0.322000000000000175,-20.855668094944839197
0.323000000000000176,-20.770655997461396680
0.324000000000000177,-20.680196125949059649
0.325000000000000178,-20.584440870186792694
0.326000000000000179,-20.483544004958595508
0.327000000000000179,-20.377660495303793198
0.328000000000000180,-20.266946303640491323
0.329000000000000181,-20.151558199226474954
0.330000000000000182,-20.031653570386293239
0.331000000000000183,-19.907390239900557560
0.332000000000000184,-19.778926283919712859
0.333000000000000185,-19.646419854733203181
0.334000000000000186,-19.510029007693976411
0.335000000000000187,-19.369911532568146129
0.336000000000000187,-19.226224789551483951
0.337000000000000188,-19.079125550166111225
0.338000000000000189,-18.928769843225033753
0.339000000000000190,-18.775312806026338563
0.340000000000000191,-18.618908540914880234
0.341000000000000192,-18.459709977326536290
0.342000000000000193,-18.297868739407853411
0.343000000000000194,-18.133535019283801404
0.344000000000000195,-17.966857456026147588
0.345000000000000195,-17.797983020357314388
0.346000000000000196,-17.627056905106577744
0.347000000000000197,-17.454222421419718358
0.348000000000000198,-17.279620900707858056
0.349000000000000199,-17.103391602307130626
0.350000000000000200,-16.925671626807719861
0.351000000000000201,-16.746595834998515784
0.352000000000000202,-16.566296772362598233
0.353000000000000203,-16.384904599048311979
0.354000000000000203,-16.202547025231346822
0.355000000000000204,-16.019349251774411158
0.356000000000000205,-15.835433916083733408
0.357000000000000206,-15.650921043054216497
0.358000000000000207,-15.465928000988835578
0.359000000000000208,-15.280569462372710632
0.360000000000000209,-15.094957369376752254
0.361000000000000210,-14.909200903962187112
0.362000000000000210,-14.723406462453032972
0.363000000000000211,-14.537677634441024566
0.364000000000000212,-14.352115185884693815
0.365000000000000213,-14.166817046262277557
0.366000000000000214,-13.981878299636813168
0.367000000000000215,-13.797391179490457347
0.368000000000000216,-13.613445067184665405
0.369000000000000217,-13.430126493902289297
0.370000000000000218,-13.247519145928251305
0.371000000000000218,-13.065703873125295686
0.372000000000000219,-12.884758700462645820
0.373000000000000220,-12.704758842456179480
0.374000000000000221,-12.525776720380163098
0.375000000000000222,-12.347881982112063781
0.376000000000000223,-12.171141524474020201
0.377000000000000224,-11.995619517936289000
0.378000000000000225,-11.821377433550448899
0.379000000000000226,-11.648474071982262146
0.380000000000000226,-11.476965594517034575
0.381000000000000227,-11.306905555912367234
0.382000000000000228,-11.138344938976654674
0.383000000000000229,-10.971332190754145230
0.384000000000000230,-10.805913260200311399
0.385000000000000231,-10.642131637234788499
0.386000000000000232,-10.480028393061704861
0.387000000000000233,-10.319642221650761726
0.388000000000000234,-10.161009482275460414
0.389000000000000234,-10.004164243008258239
0.390000000000000235,-9.849138325075461609
0.391000000000000236,-9.695961347978272471
0.392000000000000237,-9.544660775289210974
0.393000000000000238,-9.395261961036991849
0.394000000000000239,-9.247788196595559285
0.395000000000000240,-9.102260757996750939
0.396000000000000241,-8.958698953588971392
0.397000000000000242,-8.817120171967422593
0.398000000000000242,-8.677539930104858357
0.399000000000000243,-8.539971921614611716
0.400000000000000244,-8.404428065080718824
0.401000000000000245,-8.270918552393439427
0.402000000000000246,-8.139451897030710370
0.403000000000000247,-8.010034982229443656
0.404000000000000248,-7.882673108993397015
0.405000000000000249,-7.757370043886949063
0.406000000000000250,-7.634128066566896464
0.407000000000000250,-7.512948017007126111
0.408000000000000251,-7.393829342373460456
0.409000000000000252,-7.276770143508668021
0.410000000000000253,-7.161767220989867511
0.411000000000000254,-7.048816120723162548
0.412000000000000255,-6.937911179042487220
0.413000000000000256,-6.829045567281985640
0.414000000000000257,-6.722211335793318199
0.415000000000000258,-6.617399457381580419
0.416000000000000258,-6.514599870135304727
0.417000000000000259,-6.413801519628196779
0.418000000000000260,-6.314992400472045908
0.419000000000000261,-6.218159597202044253
0.420000000000000262,-6.123289324477651618
0.421000000000000263,-6.030366966583697419
0.422000000000000264,-5.939377116218091501
0.423000000000000265,-5.850303612553981125
0.424000000000000266,-5.763129578566060118
0.425000000000000266,-5.677837457611511596
0.426000000000000267,-5.594409049258107558
0.427000000000000268,-5.512825544352899954
0.428000000000000269,-5.433067559326270057
0.429000000000000270,-5.355115169727433511
0.430000000000000271,-5.278947942988409636
0.431000000000000272,-5.204544970414761274
0.432000000000000273,-5.131884898402304884
0.433000000000000274,-5.060945958880029849
0.434000000000000274,-4.991705998980324743
0.435000000000000275,-4.924142509938600476
0.436000000000000276,-4.858232655225116048
0.437000000000000277,-4.793953297912592504
0.438000000000000278,-4.731281027284049756
0.439000000000000279,-4.670192184685896919
0.440000000000000280,-4.610662888631915202
0.441000000000000281,-4.552669059164488274
0.442000000000000282,-4.496186441480004348
0.443000000000000282,-4.441190628825661513
0.444000000000000283,-4.387657084675771202
0.445000000000000284,-4.335561164195780748
0.446000000000000285,-4.284878135002726296
0.447000000000000286,-4.235583197231505004
0.448000000000000287,-4.187651502916155621
0.449000000000000288,-4.141058174696291339
0.450000000000000289,-4.095778323858594305
0.451000000000000290,-4.051787067723859437
0.452000000000000290,-4.009059546390262518
0.453000000000000291,-3.967570938843606232
0.454000000000000292,-3.927296478445716055
0.455000000000000293,-3.888211467812060729
0.456000000000000294,-3.850291293090088995
0.457000000000000295,-3.813511437649658831
0.458000000000000296,-3.777847495197200978
0.459000000000000297,-3.743275182325241701
0.460000000000000298,-3.709770350509062009
0.461000000000000298,-3.677308997562212856
0.462000000000000299,-3.645867278562762159
0.463000000000000300,-3.615421516261996260
0.464000000000000301,-3.585948210987509377
0.465000000000000302,-3.557424050052417019
0.466000000000000303,-3.529825916682477249
0.467000000000000304,-3.503130898472858856
0.468000000000000305,-3.477316295386294165
0.469000000000000306,-3.452359627304135703
0.470000000000000306,-3.428238641141990062
0.471000000000000307,-3.404931317541259439
0.472000000000000308,-3.382415877148103878
0.473000000000000309,-3.360670786490973061
0.474000000000000310,-3.339674763467937346
0.475000000000000311,-3.319406782454846994
0.476000000000000312,-3.299846079045285485
0.477000000000000313,-3.280972154433010157
0.478000000000000314,-3.262764779447621777
0.479000000000000314,-3.245203998254011957
0.480000000000000315,-3.228270131725820224
0.481000000000000316,-3.211943780503327073
0.482000000000000317,-3.196205827745658645
0.483000000000000318,-3.181037441587359460
0.484000000000000319,-3.166420077308996550
0.485000000000000320,-3.152335479231485493
0.486000000000000321,-3.138765682343451324
0.487000000000000322,-3.125693013670987064
0.488000000000000322,-3.113100093398802670
0.489000000000000323,-3.100969835751807402
0.490000000000000324,-3.089285449645752912
0.491000000000000325,-3.078030439115618577
0.492000000000000326,-3.067188603530036861
0.493000000000000327,-3.056744037600088948
0.494000000000000328,-3.046681131190477565
0.495000000000000329,-3.036984568940963580
0.496000000000000330,-3.027639329705768656
0.497000000000000330,-3.018630685818523673
0.498000000000000331,-3.009944202190045992
0.499000000000000332,-3.001565735246226829
0.500000000000000333,-2.993481431713007623
0.501000000000000334,-2.985677727255267477
0.502000000000000335,-2.978141344976364291
0.503000000000000336,-2.970859293784808841
0.504000000000000337,-2.963818866634427174
0.505000000000000338,-2.957007638644206793
0.506000000000000338,-2.950413465103839172
0.507000000000000339,-2.944024479370827674
0.508000000000000340,-2.937829090664853204
0.509000000000000341,-2.931815981764980705
0.510000000000000342,-2.925974106615052417
0.511000000000000343,-2.920292687842531265
0.512000000000000344,-2.914761214195883188
0.513000000000000345,-2.909369437905419353
0.514000000000000346,-2.904107371972465934
0.515000000000000346,-2.898965287391371604
0.516000000000000347,-2.893933710308998819
0.517000000000000348,-2.889003419126029648
0.518000000000000349,-2.884165441544243258
0.519000000000000350,-2.879411051563973700
0.520000000000000351,-2.874731766435651981
0.521000000000000352,-2.870119343569282222
0.522000000000000353,-2.865565777405561398
0.523000000000000353,-2.861063296252216670
0.524000000000000354,-2.856604359089059297
0.525000000000000355,-2.852181652345064489
0.526000000000000356,-2.847788086650686168
0.527000000000000357,-2.843416793568609879
0.528000000000000358,-2.839061122305805984
0.529000000000000359,-2.834714636409906063
0.530000000000000360,-2.830371110452579497
0.531000000000000361,-2.826024526702669348
0.532000000000000361,-2.821669071791599315
0.533000000000000362,-2.817299133373574627
0.534000000000000363,-2.812909296782915902
0.535000000000000364,-2.808494341690842333
0.536000000000000365,-2.804049238763857144
0.537000000000000366,-2.799569146325879831
0.538000000000000367,-2.795049407026059640
0.539000000000000368,-2.790485544514314853
0.540000000000000369,-2.785873260126281004
0.541000000000000369,-2.781208429579584696
0.542000000000000370,-2.776487099683001336
0.543000000000000371,-2.771705485060146579
0.544000000000000372,-2.766859964889255341
0.545000000000000373,-2.761947079660439730
0.546000000000000374,-2.756963527951835857
0.547000000000000375,-2.751906163225971369
0.548000000000000376,-2.746771990647581596
0.549000000000000377,-2.741558163924051161
0.550000000000000377,-2.736261982169576612
0.551000000000000378,-2.730880886794172291
0.552000000000000379,-2.725412458418439154
0.553000000000000380,-2.719854413815094851
0.554000000000000381,-2.714204602878084405
0.555000000000000382,-2.708461005620198314
0.556000000000000383,-2.702621729199835787
0.557000000000000384,-2.696685004977784850
0.558000000000000385,-2.690649185604564231
0.559000000000000385,-2.684512742139079311
0.560000000000000386,-2.678274261199041550
0.561000000000000387,-2.671932442143818420
0.562000000000000388,-2.665486094290103303
0.563000000000000389,-2.658934134160945373
0.564000000000000390,-2.652275582768473416
0.565000000000000391,-2.645509562930751457
0.566000000000000392,-2.638635296623070392
0.567000000000000393,-2.631652102363996271
0.568000000000000393,-2.624559392636413691
0.569000000000000394,-2.617356671343829877
0.570000000000000395,-2.610043531302138398
0.571000000000000396,-2.602619651766970854
0.572000000000000397,-2.595084795996858595
0.573000000000000398,-2.587438808852223104
0.574000000000000399,-2.579681614430370029
0.575000000000000400,-2.571813213736461989
0.576000000000000401,-2.563833682390571855
0.577000000000000401,-2.555743168370813834
0.578000000000000402,-2.547541889792490188
0.579000000000000403,-2.539230132723278022
0.580000000000000404,-2.530808249034378399
0.581000000000000405,-2.522276654287540332
0.582000000000000406,-2.513635825657876577
0.583000000000000407,-2.504886299892352675
0.584000000000000408,-2.496028671303820001
0.585000000000000409,-2.487063589800429853
0.586000000000000409,-2.477991758950294443
0.587000000000000410,-2.468813934081183881
0.588000000000000411,-2.459530920415064603
0.589000000000000412,-2.450143571237327400
0.590000000000000413,-2.440652786100376836
0.591000000000000414,-2.431059509061452850
0.592000000000000415,-2.421364726954401192
0.593000000000000416,-2.411569467695103164
0.594000000000000417,-2.401674798620337725
0.595000000000000417,-2.391681824859830385
0.596000000000000418,-2.381591687741082097
0.597000000000000419,-2.371405563226853808
0.598000000000000420,-2.361124660384845697
0.599000000000000421,-2.350750219889373049
0.600000000000000422,-2.340283512554660383
0.601000000000000423,-2.329725837899461194
0.602000000000000424,-2.319078522742650250
0.603000000000000425,-2.308342919829492246
0.604000000000000425,-2.297520406488194222
0.605000000000000426,-2.286612383316426023
0.606000000000000427,-2.275620272897507679
0.607000000000000428,-2.264545518545757474
0.608000000000000429,-2.253389583080893654
0.609000000000000430,-2.242153947630816546
