# AuFCC100-Ablate25_CYTOSINE
# h[nm],U(h)[kJ/mol]
0.149999999999999994,162.293335760763000053
0.150999999999999995,158.193627345060264133
0.151999999999999996,154.373778555876384644
0.152999999999999997,150.716671887369386695
0.153999999999999998,147.167548830279230287
0.154999999999999999,143.701720065872024179
0.156000000000000000,140.307644841078683839
0.157000000000000001,136.978709391221286751
0.158000000000000002,133.709699836056017830
0.159000000000000002,130.495636271636158199
0.160000000000000003,127.331662377462038194
0.161000000000000004,124.213301221256259055
0.162000000000000005,121.136745791709657283
0.163000000000000006,118.099051352776726276
0.164000000000000007,115.098199622186299962
0.165000000000000008,112.133052183314390504
0.166000000000000009,109.203227275078575076
0.167000000000000010,106.308935132361781939
0.168000000000000010,103.450801075659114758
0.169000000000000011,100.629697389113999861
0.170000000000000012,97.846597139583010971
0.171000000000000013,95.102456554850974157
0.172000000000000014,92.398127707649976514
0.173000000000000015,89.734299960171924226
0.174000000000000016,87.111466653718835573
0.175000000000000017,84.529912572452062136
0.176000000000000018,81.989717476024793541
0.177000000000000018,79.490771234314621552
0.178000000000000019,77.032796612560900940
0.179000000000000020,74.615376402130777933
0.180000000000000021,72.237982270412942398
0.181000000000000022,69.900003348195397734
0.182000000000000023,67.600773146826924176
0.183000000000000024,65.339593882699404048
0.184000000000000025,63.115757678839052858
0.185000000000000026,60.928564417013703292
0.186000000000000026,58.777336238097326770
0.187000000000000027,56.661428845207488791
0.188000000000000028,54.580239865679303080
0.189000000000000029,52.533214586069178154
0.190000000000000030,50.519849399707581483
0.191000000000000031,48.539693307960931179
0.192000000000000032,46.592347801833099652
0.193000000000000033,44.677465425816109246
0.194000000000000034,42.794747295578581259
0.195000000000000034,40.943939808533741598
0.196000000000000035,39.124830753938915961
0.197000000000000036,37.337244998511415872
0.198000000000000037,35.581039895542751594
0.199000000000000038,33.856100540623870643
0.200000000000000039,32.162334975488896305
0.201000000000000040,30.499669423042103489
0.202000000000000041,28.868043621102749796
0.203000000000000042,27.267406309460074709
0.204000000000000042,25.697710914106313140
0.205000000000000043,24.158911463653407026
0.206000000000000044,22.650958765590900157
0.207000000000000045,21.173796863910443022
0.208000000000000046,19.727359794440019414
0.209000000000000047,18.311568649783943386
0.210000000000000048,16.926328961877661783
0.211000000000000049,15.571528406710294590
0.212000000000000050,14.247034832636833457
0.213000000000000050,12.952694610838502598
0.214000000000000051,11.688331303839088804
0.215000000000000052,10.453744645529759794
0.216000000000000053,9.248709823881039682
0.217000000000000054,8.072977055426902027
0.218000000000000055,6.926271438699041383
0.219000000000000056,5.808293072079202979
0.220000000000000057,4.718717420027568110
0.221000000000000058,3.657195910357357693
0.222000000000000058,2.623356744149922815
0.223000000000000059,1.616805899063071816
0.224000000000000060,0.637128306165382297
0.225000000000000061,-0.316110819963968503
0.226000000000000062,-1.243364518304524546
0.227000000000000063,-2.145102506032698919
0.228000000000000064,-3.021809510892935702
0.229000000000000065,-3.873983531049584261
0.230000000000000066,-4.702134041578041490
0.231000000000000066,-5.506780166018150346
0.232000000000000067,-6.288448830541531365
0.233000000000000068,-7.047672917302667983
0.234000000000000069,-7.784989432466581150
0.235000000000000070,-8.500937703255100786
0.236000000000000071,-9.196057617145457996
0.237000000000000072,-9.870887915110635902
0.238000000000000073,-10.525964549523163072
0.239000000000000073,-11.161819116069599644
0.240000000000000074,-11.778977367760125716
0.241000000000000075,-12.377957817871893198
0.242000000000000076,-12.959270437453435321
0.243000000000000077,-13.523415451848602942
0.244000000000000078,-14.070882239579365347
0.245000000000000079,-14.602148335866298012
0.246000000000000080,-15.117678542067404024
0.247000000000000081,-15.617924141387476311
0.248000000000000081,-16.103322220350499094
0.249000000000000082,-16.574295094742339529
0.250000000000000111,-17.031249838019398624
0.251000000000000112,-17.474577909541004317
0.252000000000000113,-17.904654879420625946
0.253000000000000114,-18.321840246296954291
0.254000000000000115,-18.726477343906132944
0.255000000000000115,-19.118893331980380879
0.256000000000000116,-19.499399266709151135
0.257000000000000117,-19.868290245770246827
0.258000000000000118,-20.225845622766279064
0.259000000000000119,-20.572329285785052377
0.260000000000000120,-20.907989994734975880
0.261000000000000121,-21.233061772083921426
0.262000000000000122,-21.547764341651017617
0.263000000000000123,-21.852303610157530755
0.264000000000000123,-22.146872186335524901
0.265000000000000124,-22.431649932513810342
0.266000000000000125,-22.706804543749218084
0.267000000000000126,-22.972492149740926237
0.268000000000000127,-23.228857934956430142
0.269000000000000128,-23.476036772602629554
0.270000000000000129,-23.714153868294783223
0.271000000000000130,-23.943325409505302304
0.272000000000000131,-24.163659217110659228
0.273000000000000131,-24.375255395596472141
0.274000000000000132,-24.578206978725301468
0.275000000000000133,-24.772600567717624642
0.276000000000000134,-24.958516959240480304
0.277000000000000135,-25.136031760740330299
0.278000000000000136,-25.305215990894911471
0.279000000000000137,-25.466136663191367262
0.280000000000000138,-25.618857350863795119
0.281000000000000139,-25.763438731643127255
0.282000000000000139,-25.899939110982085566
0.283000000000000140,-26.028414922620903837
0.284000000000000141,-26.148921205551278746
0.285000000000000142,-26.261512056619910283
0.286000000000000143,-26.366241058185398316
0.287000000000000144,-26.463161680405015375
0.288000000000000145,-26.552327657880915979
0.289000000000000146,-26.633793340536641381
0.290000000000000147,-26.707614018727412031
0.291000000000000147,-26.773846222708549192
0.292000000000000148,-26.832547996698927761
0.293000000000000149,-26.883779147877184812
0.294000000000000150,-26.927601470741610257
0.295000000000000151,-26.964078947347001503
0.296000000000000152,-26.993277924006616075
0.297000000000000153,-27.015267265112168360
0.298000000000000154,-27.030118484782967414
0.299000000000000155,-27.037905857104487239
0.300000000000000155,-27.038706505758909771
0.301000000000000156,-27.032600473885469938
0.302000000000000157,-27.019670775037106125
0.303000000000000158,-27.000003426122095362
0.304000000000000159,-26.973687463236451833
0.305000000000000160,-26.940814941303489860
0.306000000000000161,-26.901480918443912316
0.307000000000000162,-26.855783426001078595
0.308000000000000163,-26.803823425143644243
0.309000000000000163,-26.745704750961287743
0.310000000000000164,-26.681534044959725804
0.311000000000000165,-26.611420676847455269
0.312000000000000166,-26.535476656491532310
0.313000000000000167,-26.453816536900536249
0.314000000000000168,-26.366557309072668147
0.315000000000000169,-26.273818289523923397
0.316000000000000170,-26.175721001287250544
0.317000000000000171,-26.072389049147524531
0.318000000000000171,-25.963947989850101550
0.319000000000000172,-25.850525197993128756
0.320000000000000173,-25.732249728284461554
0.321000000000000174,-25.609252174814816527
0.322000000000000175,-25.481664527969023482
0.323000000000000176,-25.349620029567198287
0.324000000000000177,-25.213253026797023182
0.325000000000000178,-25.072698825468492601
0.326000000000000179,-24.928093543092579409
0.327000000000000179,-24.779573962254822561
0.328000000000000180,-24.627277384725921650
0.329000000000000181,-24.471341486722657521
0.330000000000000182,-24.311904175702942155
0.331000000000000183,-24.149103449052383041
0.332000000000000184,-23.983077254991268745
0.333000000000000185,-23.813963356005238836
0.334000000000000186,-23.641899195076923945
0.335000000000000187,-23.467021764970759534
0.336000000000000187,-23.289467480799594057
0.337000000000000188,-23.109372056077944535
0.338000000000000189,-22.926870382444938912
0.339000000000000190,-22.742096413218426676
0.340000000000000191,-22.555183050920909693
0.341000000000000192,-22.366262038899101583
0.342000000000000193,-22.175463857139455115
0.343000000000000194,-21.982917622364887222
0.344000000000000195,-21.788750992480665047
0.345000000000000195,-21.593090075421862650
0.346000000000000196,-21.396059342439343709
0.347000000000000197,-21.197781545847412588
0.348000000000000198,-20.998377641242797154
0.349000000000000199,-20.797966714192064330
0.350000000000000200,-20.596665911373239766
0.351000000000000201,-20.394590376146062738
0.352000000000000202,-20.191853188515715090
0.353000000000000203,-19.988565309445164075
0.354000000000000203,-19.784835529462945658
0.355000000000000204,-19.580770421504951173
0.356000000000000205,-19.376474297921937762
0.357000000000000206,-19.172049171577828730
0.358000000000000207,-18.967594720957443144
0.359000000000000208,-18.763208259197771355
0.360000000000000209,-18.558984706951392241
0.361000000000000210,-18.355016568986791015
0.362000000000000210,-18.151393914426474652
0.363000000000000211,-17.948204360520527700
0.364000000000000212,-17.745533059850757240
0.365000000000000213,-17.543462690857712261
0.366000000000000214,-17.342073451581700994
0.367000000000000215,-17.141443056506684428
0.368000000000000216,-16.941646736395423289
0.369000000000000217,-16.742757241003033641
0.370000000000000218,-16.544844844555957053
0.371000000000000218,-16.347977353882914286
0.372000000000000219,-16.152220119084880423
0.373000000000000220,-15.957636046631227700
0.374000000000000221,-15.764285614770116695
0.375000000000000222,-15.572226891141687233
0.376000000000000223,-15.381515552484193776
0.377000000000000224,-15.192204906324173308
0.378000000000000225,-15.004345914543145923
0.379000000000000226,-14.817987218715291675
0.380000000000000226,-14.633175167112019821
0.381000000000000227,-14.449953843271194032
0.382000000000000228,-14.268365096031198291
0.383000000000000229,-14.088448570931664250
0.384000000000000230,-13.910241742884995375
0.385000000000000231,-13.733779950025560623
0.386000000000000232,-13.559096428645025512
0.387000000000000233,-13.386222349125352693
0.388000000000000234,-13.215186852783057603
0.389000000000000234,-13.046017089541184220
0.390000000000000235,-12.878738256347485702
0.391000000000000236,-12.713373636260529409
0.392000000000000237,-12.549944638127181307
0.393000000000000238,-12.388470836778491702
0.394000000000000239,-12.228970013672627815
0.395000000000000240,-12.071458197916800970
0.396000000000000241,-11.915949707602322860
0.397000000000000242,-11.762457191389563249
0.398000000000000242,-11.610991670282274413
0.399000000000000243,-11.461562579533044470
0.400000000000000244,-11.314177810624087783
0.401000000000000245,-11.168843753270545349
0.402000000000000246,-11.025565337395098808
0.403000000000000247,-10.884346075025677081
0.404000000000000248,-10.745188102070194702
0.405000000000000249,-10.608092219924539990
0.406000000000000250,-10.473057936872205431
0.407000000000000250,-10.340083509236373871
0.408000000000000251,-10.209165982247126792
0.409000000000000252,-10.080301230588943895
0.410000000000000253,-9.953483998595190840
0.411000000000000254,-9.828707940058858838
0.412000000000000255,-9.705965657630267529
0.413000000000000256,-9.585248741774792691
0.414000000000000257,-9.466547809264936220
0.415000000000000258,-9.349852541183594212
0.416000000000000258,-9.235151720416334697
0.417000000000000259,-9.122433268612713420
0.418000000000000260,-9.011684282598121598
0.419000000000000261,-8.902891070218929670
0.420000000000000262,-8.796039185605780020
0.421000000000000263,-8.691113463840824949
0.422000000000000264,-8.588098055016278209
0.423000000000000265,-8.486976457672978924
0.424000000000000266,-8.387731551609242331
0.425000000000000266,-8.290345630050856229
0.426000000000000267,-8.194800431175000455
0.427000000000000268,-8.101077168981523968
0.428000000000000269,-8.009156563506303783
0.429000000000000270,-7.919018870372445562
0.430000000000000271,-7.830643909675982783
0.431000000000000272,-7.744011094203846923
0.432000000000000273,-7.659099456982575660
0.433000000000000274,-7.575887678157355865
0.434000000000000274,-7.494354111201504409
0.435000000000000275,-7.414476808457544976
0.436000000000000276,-7.336233546011635909
0.437000000000000277,-7.259601847903764060
0.438000000000000278,-7.184559009676886099
0.439000000000000279,-7.111082121268817779
0.440000000000000280,-7.039148089251080265
0.441000000000000281,-6.968733658419660415
0.442000000000000282,-6.899815432743151788
0.443000000000000282,-6.832369895673984672
0.444000000000000283,-6.766373429829236841
0.445000000000000284,-6.701802336047722797
0.446000000000000285,-6.638632851830354120
0.447000000000000286,-6.576841169171585122
0.448000000000000287,-6.516403451789389401
0.449000000000000288,-6.457295851762236971
0.450000000000000289,-6.399494525581240545
0.451000000000000290,-6.342975649626278134
0.452000000000000290,-6.287715435074966663
0.453000000000000291,-6.233690142253512256
0.454000000000000292,-6.180876094438902513
0.455000000000000293,-6.129249691121694710
0.456000000000000294,-6.078787420739214298
0.457000000000000295,-6.029465872888731148
0.458000000000000296,-5.981261750030573587
0.459000000000000297,-5.934151878691067417
0.460000000000000298,-5.888113220175333673
0.461000000000000298,-5.843122880799977104
0.462000000000000299,-5.799158121655886511
0.463000000000000300,-5.756196367911138978
0.464000000000000301,-5.714215217664322388
0.465000000000000302,-5.673192450358391703
0.466000000000000303,-5.633106034765175352
0.467000000000000304,-5.593934136550721803
0.468000000000000305,-5.555655125431646191
0.469000000000000306,-5.518247581932410384
0.470000000000000306,-5.481690303753758542
0.471000000000000307,-5.445962311762031050
0.472000000000000308,-5.411042855609501601
0.473000000000000309,-5.376911418995377723
0.474000000000000310,-5.343547724577268454
0.475000000000000311,-5.310931738542772784
0.476000000000000312,-5.279043674850803392
0.477000000000000313,-5.247863999151915593
0.478000000000000314,-5.217373432397184985
0.479000000000000314,-5.187552954144788231
0.480000000000000315,-5.158383805573334868
0.481000000000000316,-5.129847492211097482
0.482000000000000317,-5.101925786389850614
0.483000000000000318,-5.074600729432162005
0.484000000000000319,-5.047854633580683092
0.485000000000000320,-5.021670083677995500
0.486000000000000321,-4.996029938605241583
0.487000000000000322,-4.970917332487824858
0.488000000000000322,-4.946315675676160595
0.489000000000000323,-4.922208655509469288
0.490000000000000324,-4.898580236870321514
0.491000000000000325,-4.875414662537589372
0.492000000000000326,-4.852696453345214600
0.493000000000000327,-4.830410408154233615
0.494000000000000328,-4.808541603645128504
0.495000000000000329,-4.787075393937610279
0.496000000000000330,-4.765997410044652050
0.497000000000000330,-4.745293559167595099
0.498000000000000331,-4.724950023838795587
0.499000000000000332,-4.704953260918363966
0.500000000000000333,-4.685290000451226788
0.501000000000000334,-4.665947244390647342
0.502000000000000335,-4.646912265194240277
0.503000000000000336,-4.628172604298319115
0.504000000000000337,-4.609716070476266303
0.505000000000000338,-4.591530738086530228
0.506000000000000338,-4.573604945215629769
0.507000000000000339,-4.555927291721507899
0.508000000000000340,-4.538486637182293393
0.509000000000000341,-4.521272098755622970
0.510000000000000342,-4.504273048953218783
0.511000000000000343,-4.487479113335620440
0.512000000000000344,-4.470880168131555088
0.513000000000000345,-4.454466337786520569
0.514000000000000346,-4.438227992444888415
0.515000000000000346,-4.422155745369715341
0.516000000000000347,-4.406240450304393264
0.517000000000000348,-4.390473198780179054
0.518000000000000349,-4.374845317373284637
0.519000000000000350,-4.359348364915426544
0.520000000000000351,-4.343974129661389405
0.521000000000000352,-4.328714626417085043
0.522000000000000353,-4.313562093631523986
0.523000000000000353,-4.298508990455941259
0.524000000000000354,-4.283547993773329843
0.525000000000000355,-4.268671995201336777
0.526000000000000356,-4.253874098071525722
0.527000000000000357,-4.239147614387921870
0.528000000000000358,-4.224486061767464662
0.529000000000000359,-4.209883160365157195
0.530000000000000360,-4.195332829786364570
0.531000000000000361,-4.180829185988816477
0.532000000000000361,-4.166366538176617951
0.533000000000000362,-4.151939385688608652
0.534000000000000363,-4.137542414883217390
0.535000000000000364,-4.123170496021957732
0.536000000000000365,-4.108818680153585312
0.537000000000000366,-4.094482196000856611
0.538000000000000367,-4.080156446851719743
0.539000000000000368,-4.065837007456832630
0.540000000000000369,-4.051519620934956656
0.541000000000000369,-4.037200195688039450
0.542000000000000370,-4.022874802327404353
0.543000000000000371,-4.008539670612611516
0.544000000000000372,-3.994191186404452143
0.545000000000000373,-3.979825888633343745
0.546000000000000374,-3.965440466284480436
0.547000000000000375,-3.951031755400963075
0.548000000000000376,-3.936596736106102945
0.549000000000000377,-3.922132529645958154
0.550000000000000377,-3.907636395453171652
0.551000000000000378,-3.893105728233154927
0.552000000000000379,-3.878538055073500690
0.553000000000000380,-3.863931032577560210
0.554000000000000381,-3.849282444022972705
0.555000000000000382,-3.834590196546020735
0.556000000000000383,-3.819852318352430220
0.557000000000000384,-3.805066955955454411
0.558000000000000385,-3.790232371441738302
0.559000000000000385,-3.775346939765731324
0.560000000000000386,-3.760409146073031117
0.561000000000000387,-3.745417583053361366
0.562000000000000388,-3.730370948323523006
0.563000000000000389,-3.715268041840845026
0.564000000000000390,-3.700107763347507905
0.565000000000000391,-3.684889109846113175
0.566000000000000392,-3.669611173106854807
0.567000000000000393,-3.654273137206573985
0.568000000000000393,-3.638874276099970384
0.569000000000000394,-3.623413951223215967
0.570000000000000395,-3.607891609130208455
0.571000000000000396,-3.592306779161555053
0.572000000000000397,-3.576659071146587543
0.573000000000000398,-3.560948173138372308
0.574000000000000399,-3.545173849181957770
0.575000000000000400,-3.529335937115823274
0.576000000000000401,-3.513434346406663078
0.577000000000000401,-3.497469056017508571
0.578000000000000402,-3.481440112309182489
0.579000000000000403,-3.465347626975067818
0.580000000000000404,-3.449191775009224248
0.581000000000000405,-3.432972792707706500
0.582000000000000406,-3.416690975703090771
0.583000000000000407,-3.400346677032066278
0.584000000000000408,-3.383940305236046608
0.585000000000000409,-3.367472322494612147
0.586000000000000409,-3.350943242791708965
0.587000000000000410,-3.334353630114429201
0.588000000000000411,-3.317704096684184201
0.589000000000000412,-3.300995301220170042
0.590000000000000413,-3.284227947234820366
0.591000000000000414,-3.267402781361156805
0.592000000000000415,-3.250520591711778540
0.593000000000000416,-3.233582206269233872
0.594000000000000417,-3.216588491307592612
0.595000000000000417,-3.199540349845000353
0.596000000000000418,-3.182438720126821163
0.597000000000000419,-3.165284574139330509
0.598000000000000420,-3.148078916153468576
0.599000000000000421,-3.130822781298541635
0.600000000000000422,-3.113517234165495751
0.601000000000000423,-3.096163367439522585
0.602000000000000424,-3.078762300561670440
0.603000000000000425,-3.061315178419196315
0.604000000000000425,-3.043823170064309469
0.605000000000000426,-3.026287467461021841
0.606000000000000427,-3.008709284259841521
0.607000000000000428,-2.991089854599815023
0.608000000000000429,-2.973430431937887253
