# AuFCC100-Ablate25_BSAIV4
# h[nm],U(h)[kJ/mol]
0.149999999999999994,139.332670804869650283
0.150999999999999995,134.820584219635236423
0.151999999999999996,131.482948253707689901
0.152999999999999997,128.424006706922227750
0.153999999999999998,125.316261114928465759
0.154999999999999999,122.099981545015594975
0.156000000000000000,118.820299079296844980
0.157000000000000001,115.545628002582049021
0.158000000000000002,112.332211106864562566
0.159000000000000002,109.213282704227935938
0.160000000000000003,106.200127797413983899
0.161000000000000004,103.287840781775827281
0.162000000000000005,100.461978350510378277
0.163000000000000006,97.704316293715663733
0.164000000000000007,94.997063420208348816
0.165000000000000008,92.325490487029810538
0.166000000000000009,89.679213871487121423
0.167000000000000010,87.052470703499849947
0.168000000000000010,84.443720395223863306
0.169000000000000011,81.854859123061146420
0.170000000000000012,79.290269131286748916
0.171000000000000013,76.755860235525318558
0.172000000000000014,74.258204634819904300
0.173000000000000015,71.803821111791251042
0.174000000000000016,69.398631134120563502
0.175000000000000017,67.047586072127813850
0.176000000000000018,64.754449933866425226
0.177000000000000018,62.521713797291297965
0.178000000000000019,60.350614736894748091
0.179000000000000020,58.241232005084569323
0.180000000000000021,56.192635333168745149
0.181000000000000022,54.203063540332721004
0.182000000000000023,52.270115506235413250
0.183000000000000024,50.390939504559312923
0.184000000000000025,48.562410605522032370
0.185000000000000026,46.781289154515356188
0.186000000000000026,45.044356132964850303
0.187000000000000027,43.348523481927841772
0.188000000000000028,41.690919237443146983
0.189000000000000029,40.068948634143268350
0.190000000000000030,38.480333239230468223
0.191000000000000031,36.923130747196950097
0.192000000000000032,35.395738360835949265
0.193000000000000033,33.896882766189932568
0.194000000000000034,32.425599631828397662
0.195000000000000034,30.981205372576482659
0.196000000000000035,29.563263653254558960
0.197000000000000036,28.171548800523339651
0.198000000000000037,26.806007965208756616
0.199000000000000038,25.466723552197173319
0.200000000000000039,24.153877123716277708
0.201000000000000040,22.867715693851188519
0.202000000000000041,21.608521073314292948
0.203000000000000042,20.376582696866890387
0.204000000000000042,19.172174172337903997
0.205000000000000043,17.995533629292282285
0.206000000000000044,16.846847815342140819
0.207000000000000045,15.726239786403757748
0.208000000000000046,14.633759960972167136
0.209000000000000047,13.569380254590015511
0.210000000000000048,12.532990975967569725
0.211000000000000049,11.524400147600866617
0.212000000000000050,10.543334908337854472
0.213000000000000050,9.589444660516338814
0.214000000000000051,8.662305637651794399
0.215000000000000052,7.761426588099183732
0.216000000000000053,6.886255293838638991
0.217000000000000054,6.036185670005824733
0.218000000000000055,5.210565218730405235
0.219000000000000056,4.408702639223034403
0.220000000000000057,3.629875424033941922
0.221000000000000058,2.873337298368213055
0.222000000000000058,2.138325384799178330
0.223000000000000059,1.424066999353173157
0.224000000000000060,0.729786006521972674
0.225000000000000061,0.054708680180748107
0.226000000000000062,-0.601930965390006678
0.227000000000000063,-1.240886395137942966
0.228000000000000064,-1.862894331349844279
0.229000000000000065,-2.468671087125865249
0.230000000000000066,-3.058909443029887765
0.231000000000000066,-3.634276047375982532
0.232000000000000067,-4.195409314814495083
0.233000000000000068,-4.742917793482955169
0.234000000000000069,-5.277378967823716849
0.235000000000000070,-5.799338462086220503
0.236000000000000071,-6.309309608377028589
0.237000000000000072,-6.807773342757276858
0.238000000000000073,-7.295178393182152554
0.239000000000000073,-7.771941723912763500
0.240000000000000074,-8.238449202302779995
0.241000000000000075,-8.695056455469257983
0.242000000000000076,-9.142089886218981221
0.243000000000000077,-9.579847819642504092
0.244000000000000078,-10.008601753943860757
0.245000000000000079,-10.428597691290622862
0.246000000000000080,-10.840057526699760970
0.247000000000000081,-11.243180475184239242
0.248000000000000081,-11.638144519538448307
0.249000000000000082,-12.025107863216836890
0.250000000000000111,-12.404210374738672940
0.251000000000000112,-12.775575011918096635
0.252000000000000113,-13.139309215966193278
0.253000000000000114,-13.495506267128140721
0.254000000000000115,-13.844246595008991463
0.255000000000000115,-14.185599038097752356
0.256000000000000116,-14.519622048228637112
0.257000000000000117,-14.846364836821027922
0.258000000000000118,-15.165868460720499655
0.259000000000000119,-15.478166846330021045
0.260000000000000120,-15.783287751477368843
0.261000000000000121,-16.081253665119394469
0.262000000000000122,-16.372082645544729473
0.263000000000000123,-16.655789098208700239
0.264000000000000123,-16.932384494727880764
0.265000000000000124,-17.201878034881850965
0.266000000000000125,-17.464277253724709738
0.267000000000000126,-17.719588576105465449
0.268000000000000127,-17.967817821040938497
0.269000000000000128,-18.208970658482989791
0.270000000000000129,-18.443053021080540788
0.271000000000000130,-18.670071473560891917
0.272000000000000131,-18.890033542348419360
0.273000000000000131,-19.102948008008048930
0.274000000000000132,-19.308825163048524587
0.275000000000000133,-19.507677037551339083
0.276000000000000134,-19.699517595008053661
0.277000000000000135,-19.884362900654235062
0.278000000000000136,-20.062231264486641180
0.279000000000000137,-20.233143361041950214
0.280000000000000138,-20.397122327903343120
0.281000000000000139,-20.554193844787928214
0.282000000000000139,-20.704386194953425360
0.283000000000000140,-20.847730310549298594
0.284000000000000141,-20.984259803426091651
0.285000000000000142,-21.114010982808032679
0.286000000000000143,-21.237022861128895812
0.287000000000000144,-21.353337149229954406
0.288000000000000145,-21.462998242022987228
0.289000000000000146,-21.566053195628747119
0.290000000000000147,-21.662551696915716803
0.291000000000000147,-21.752546026281937230
0.292000000000000148,-21.836091014447138292
0.293000000000000149,-21.913243993950992206
0.294000000000000150,-21.984064745988003864
0.295000000000000151,-22.048615443148413817
0.296000000000000152,-22.106960588579113391
0.297000000000000153,-22.159166952026737363
0.298000000000000154,-22.205303503179035118
0.299000000000000155,-22.245441342677569452
0.300000000000000155,-22.279653631136735470
0.301000000000000156,-22.308015516468969963
0.302000000000000157,-22.330604059785191140
0.303000000000000158,-22.347498160111236132
0.304000000000000159,-22.358778478136390078
0.305000000000000160,-22.364527359187515998
0.306000000000000161,-22.364828755603344490
0.307000000000000162,-22.359768148665487786
0.308000000000000163,-22.349432470227984737
0.309000000000000163,-22.333910024173711406
0.310000000000000164,-22.313290407814530880
0.311000000000000165,-22.287664433341763726
0.312000000000000166,-22.257124049425073053
0.313000000000000167,-22.221762263050273134
0.314000000000000168,-22.181673061679997971
0.315000000000000169,-22.136951335815627573
0.316000000000000170,-22.087692802034332828
0.317000000000000171,-22.033993926570619948
0.318000000000000171,-21.975951849508454927
0.319000000000000172,-21.913664309647050032
0.320000000000000173,-21.847229570100566320
0.321000000000000174,-21.776746344689719592
0.322000000000000175,-21.702313725181241466
0.323000000000000176,-21.624031109429360242
0.324000000000000177,-21.541998130471441186
0.325000000000000178,-21.456314586628479901
0.326000000000000179,-21.367080372659859933
0.327000000000000179,-21.274395412019622142
0.328000000000000180,-21.178359590260463108
0.329000000000000181,-21.079072689630265813
0.330000000000000182,-20.976634324903667306
0.331000000000000183,-20.871143880490528488
0.332000000000000184,-20.762700448860719860
0.333000000000000185,-20.651402770323393554
0.334000000000000186,-20.537349174196812385
0.335000000000000187,-20.420637521403257608
0.336000000000000187,-20.301365148521334447
0.337000000000000188,-20.179628813326047521
0.338000000000000189,-20.055524641845206446
0.339000000000000190,-19.929148076958334457
0.340000000000000191,-19.800593828562021770
0.341000000000000192,-19.669955825323960141
0.342000000000000193,-19.537327168044924974
0.343000000000000194,-19.402800084646337098
0.344000000000000195,-19.266465886798194163
0.345000000000000195,-19.128414928200292877
0.346000000000000196,-18.988736564527016526
0.347000000000000197,-18.847519115043649407
0.348000000000000198,-18.704849825900137006
0.349000000000000199,-18.560814835105421849
0.350000000000000200,-18.415499139183754806
0.351000000000000201,-18.268986561511564304
0.352000000000000202,-18.121359722331582986
0.353000000000000203,-17.972700010438835250
0.354000000000000203,-17.823087556530538222
0.355000000000000204,-17.672601208210259927
0.356000000000000205,-17.521318506634560919
0.357000000000000206,-17.369315664788377518
0.358000000000000207,-17.216667547373340597
0.359000000000000208,-17.063447652291845458
0.360000000000000209,-16.909728093707421692
0.361000000000000210,-16.755579586660751090
0.362000000000000210,-16.601071433218699269
0.363000000000000211,-16.446271510132561389
0.364000000000000212,-16.291246257980144918
0.365000000000000213,-16.136060671764909102
0.366000000000000214,-15.980778292944330943
0.367000000000000215,-15.825461202858317478
0.368000000000000216,-15.670170017527556894
0.369000000000000217,-15.514963883790610311
0.370000000000000218,-15.359900476747730735
0.371000000000000218,-15.205035998478432901
0.372000000000000219,-15.050425177999343873
0.373000000000000220,-14.896121272427890858
0.374000000000000221,-14.742176069317233456
0.375000000000000222,-14.588639890126822607
0.376000000000000223,-14.435561594793108853
0.377000000000000224,-14.282988587364133792
0.378000000000000225,-14.130966822661775950
0.379000000000000226,-13.979540813934969279
0.380000000000000226,-13.828753641467448787
0.381000000000000227,-13.678646962102991580
0.382000000000000228,-13.529261019651695364
0.383000000000000229,-13.380634656140482974
0.384000000000000230,-13.232805323871215109
0.385000000000000231,-13.085809098250290816
0.386000000000000232,-12.939680691353288466
0.387000000000000233,-12.794453466189008140
0.388000000000000234,-12.650159451627208895
0.389000000000000234,-12.506829357955037807
0.390000000000000235,-12.364492593027190281
0.391000000000000236,-12.223177278975708049
0.392000000000000237,-12.082910269445374496
0.393000000000000238,-11.943717167321638684
0.394000000000000239,-11.805622342918081102
0.395000000000000240,-11.668648952591436085
0.396000000000000241,-11.532818957752587252
0.397000000000000242,-11.398153144242444412
0.398000000000000242,-11.264671142042724128
0.399000000000000243,-11.132391445291798249
0.400000000000000244,-11.001331432576728631
0.401000000000000245,-10.871507387473467787
0.402000000000000246,-10.742934519307558716
0.403000000000000247,-10.615626984108645914
0.404000000000000248,-10.489597905732814809
0.405000000000000249,-10.364859397127535345
0.406000000000000250,-10.241422581714603623
0.407000000000000250,-10.119297614867434731
0.408000000000000251,-9.998493705459674530
0.409000000000000252,-9.879019137462968558
0.410000000000000253,-9.760881291572342633
0.411000000000000254,-9.644086666838616040
0.412000000000000255,-9.528640902287802916
0.413000000000000256,-9.414548798508450389
0.414000000000000257,-9.301814339188325675
0.415000000000000258,-9.190440712582951477
0.416000000000000258,-9.080430332898895784
0.417000000000000259,-8.971784861575663683
0.418000000000000260,-8.864505228450742180
0.419000000000000261,-8.758591652792890869
0.420000000000000262,-8.654043664189689622
0.421000000000000263,-8.550860123276018854
0.422000000000000264,-8.449039242290552920
0.423000000000000265,-8.348578605448350842
0.424000000000000266,-8.249475189118260943
0.425000000000000266,-8.151725381794118874
0.426000000000000267,-8.055325003849853616
0.427000000000000268,-7.960269327068857592
0.428000000000000269,-7.866553093938773777
0.429000000000000270,-7.774170536703382872
0.430000000000000271,-7.683115396163738176
0.431000000000000272,-7.593380940221510222
0.432000000000000273,-7.504959982157735965
0.433000000000000274,-7.417844898640963081
0.434000000000000274,-7.332027647459075759
0.435000000000000275,-7.247499784969750003
0.436000000000000276,-7.164252483264917259
0.437000000000000277,-7.082276547044935811
0.438000000000000278,-7.001562430198906561
0.439000000000000279,-6.922100252087817651
0.440000000000000280,-6.843879813527522060
0.441000000000000281,-6.766890612469268262
0.442000000000000282,-6.691121859375668279
0.443000000000000282,-6.616562492290310793
0.444000000000000283,-6.543201191599879785
0.445000000000000284,-6.471026394487696010
0.446000000000000285,-6.400026309077962772
0.447000000000000286,-6.330188928270688464
0.448000000000000287,-6.261502043266892414
0.449000000000000288,-6.193953256784747730
0.450000000000000289,-6.127529995966963128
0.451000000000000290,-6.062219524980366536
0.452000000000000290,-5.998008957308803346
0.453000000000000291,-5.934885267740581227
0.454000000000000292,-5.872835304052154370
0.455000000000000293,-5.811845798389747131
0.456000000000000294,-5.751903378350954554
0.457000000000000295,-5.692994577768523357
0.458000000000000296,-5.635105847198662588
0.459000000000000297,-5.578223564116480127
0.460000000000000298,-5.522334042821235300
0.461000000000000298,-5.467423544054296869
0.462000000000000299,-5.413478284332878587
0.463000000000000300,-5.360484445002585474
0.464000000000000301,-5.308428181012200042
0.465000000000000302,-5.257295629414061366
0.466000000000000303,-5.207072917593486672
0.467000000000000304,-5.157746171230920496
0.468000000000000305,-5.109301522000533780
0.469000000000000306,-5.061725115008959719
0.470000000000000306,-5.015003115978190706
0.471000000000000307,-4.969121718176366720
0.472000000000000308,-4.924067149100702423
0.473000000000000309,-4.879825676916368593
0.474000000000000310,-4.836383616655611561
0.475000000000000311,-4.793727336181111909
0.476000000000000312,-4.751843261917981565
0.477000000000000313,-4.710717884358306407
0.478000000000000314,-4.670337763342764070
0.479000000000000314,-4.630689533123439006
0.480000000000000315,-4.591759907212091818
0.481000000000000316,-4.553535683018277602
0.482000000000000317,-4.516003746281490372
0.483000000000000318,-4.479151075301713192
0.484000000000000319,-4.442964744972595525
0.485000000000000320,-4.407431930621642735
0.486000000000000321,-4.372539911661571743
0.487000000000000322,-4.338276075057185821
0.488000000000000322,-4.304627918611938497
0.489000000000000323,-4.271583054078492481
0.490000000000000324,-4.239129210097387634
0.491000000000000325,-4.207254234968053730
0.492000000000000326,-4.175946099256234945
0.493000000000000327,-4.145192898242011204
0.494000000000000328,-4.114982854212448693
0.495000000000000329,-4.085304318602910101
0.496000000000000330,-4.056145773991043590
0.497000000000000330,-4.027495835947391356
0.498000000000000331,-3.999343254746526188
0.499000000000000332,-3.971676916942602276
0.500000000000000333,-3.944485846813133634
0.501000000000000334,-3.917759207674756716
0.502000000000000335,-3.891486303074717767
0.503000000000000336,-3.865656577861778853
0.504000000000000337,-3.840259619140117930
0.505000000000000338,-3.815285157109825853
0.506000000000000338,-3.790723065797527713
0.507000000000000339,-3.766563363680545784
0.508000000000000340,-3.742796214208054639
0.509000000000000341,-3.719411926222567555
0.510000000000000342,-3.696400954285050666
0.511000000000000343,-3.673753898906885418
0.512000000000000344,-3.651461506691884296
0.513000000000000345,-3.629514670391485343
0.514000000000000346,-3.607904428876184344
0.515000000000000346,-3.586621967026209834
0.516000000000000347,-3.565658615544381682
0.517000000000000348,-3.545005850694121108
0.518000000000000349,-3.524655293965322844
0.519000000000000350,-3.504598711670971145
0.520000000000000351,-3.484828014477187708
0.521000000000000352,-3.465335256869371161
0.522000000000000353,-3.446112636557023823
0.523000000000000353,-3.427152493819821011
0.524000000000000354,-3.408447310797457330
0.525000000000000355,-3.389989710725629379
0.526000000000000356,-3.371772457120574273
0.527000000000000357,-3.353788452914542084
0.528000000000000358,-3.336030739544333379
0.529000000000000359,-3.318492495995273739
0.530000000000000360,-3.301167037802666293
0.531000000000000361,-3.284047816012906740
0.532000000000000361,-3.267128416106251709
0.533000000000000362,-3.250402556883296601
0.534000000000000363,-3.233864089317085355
0.535000000000000364,-3.217506995372739986
0.536000000000000365,-3.201325386796485706
0.537000000000000366,-3.185313503875856433
0.538000000000000367,-3.169465714172798432
0.539000000000000368,-3.153776511231458635
0.540000000000000369,-3.138240513262184450
0.541000000000000369,-3.122852461803466095
0.542000000000000370,-3.107607220363294065
0.543000000000000371,-3.092499773041466060
0.544000000000000372,-3.077525223134343069
0.545000000000000373,-3.062678791723441929
0.546000000000000374,-3.047955816249248606
0.547000000000000375,-3.033351749071593773
0.548000000000000376,-3.018862156017921627
0.549000000000000377,-3.004482714920657660
0.550000000000000377,-2.990209214144876171
0.551000000000000378,-2.976037551107531876
0.552000000000000379,-2.961963730789283211
0.553000000000000380,-2.947983864240083740
0.554000000000000381,-2.934094167079547955
0.555000000000000382,-2.920290957993173731
0.556000000000000383,-2.906570657225329590
0.557000000000000384,-2.892929785070041060
0.558000000000000385,-2.879364960360430992
0.559000000000000385,-2.865872898957755321
0.560000000000000386,-2.852450412240809641
0.561000000000000387,-2.839094405596613857
0.562000000000000388,-2.825801876913094368
0.563000000000000389,-2.812569915074557336
0.564000000000000390,-2.799395698460665383
0.565000000000000391,-2.786276493449615366
0.566000000000000392,-2.773209652926196700
0.567000000000000393,-2.760192614795367927
0.568000000000000393,-2.747222900501951948
0.569000000000000394,-2.734298113557047216
0.570000000000000395,-2.721415938071739760
0.571000000000000396,-2.708574137298594753
0.572000000000000397,-2.695770552181504520
0.573000000000000398,-2.683003099914333500
0.574000000000000399,-2.670269772508851336
0.575000000000000400,-2.657568635372374644
0.576000000000000401,-2.644897825895540233
0.577000000000000401,-2.632255552050659198
0.578000000000000402,-2.619640091000926763
0.579000000000000403,-2.607049787720936873
0.580000000000000404,-2.594483053628802161
0.581000000000000405,-2.581938365230189270
0.582000000000000406,-2.569414262774587954
0.583000000000000407,-2.556909348924077285
0.584000000000000408,-2.544422287434870533
0.585000000000000409,-2.531951801851858086
0.586000000000000409,-2.519496674216418874
0.587000000000000410,-2.507055743787675262
0.588000000000000411,-2.494627905777400123
0.589000000000000412,-2.482212110098794167
0.590000000000000413,-2.469807360129228080
0.591000000000000414,-2.457412711487183099
0.592000000000000415,-2.445027270823491250
0.593000000000000416,-2.432650194626985840
0.594000000000000417,-2.420280688044721629
0.595000000000000417,-2.407918003716857935
0.596000000000000418,-2.395561440626226002
0.597000000000000419,-2.383210342962796435
0.598000000000000420,-2.370864099002959247
0.599000000000000421,-2.358522140003800782
0.600000000000000422,-2.346183939112353567
0.601000000000000423,-2.333849010289876791
0.602000000000000424,-2.321516907251191419
0.603000000000000425,-2.309187222419108565
0.604000000000000425,-2.296859585893919586
0.605000000000000426,-2.284533664437977674
0.606000000000000427,-2.272209160475397560
0.607000000000000428,-2.259885811106727704
0.608000000000000429,-2.247563387138790780
0.609000000000000430,-2.235241692129394497
