# AuFCC100-Ablate25_TRP-AC
# h[nm],U(h)[kJ/mol]
0.149999999999999994,178.853553135697723064
0.150999999999999995,171.954954073292071826
0.151999999999999996,168.534838720817276680
0.152999999999999997,165.881572281463661511
0.153999999999999998,162.977099345413165565
0.154999999999999999,159.613723839640044844
0.156000000000000000,155.910697910025817237
0.157000000000000001,152.068727631102490250
0.158000000000000002,148.260545472600199446
0.159000000000000002,144.594961529160286773
0.160000000000000003,141.117098765013395223
0.161000000000000004,137.823513627088743760
0.162000000000000005,134.680784703230926880
0.163000000000000006,131.642069231925745498
0.164000000000000007,128.659519928764240149
0.165000000000000008,125.692275861939876336
0.166000000000000009,122.710613384435490048
0.167000000000000010,119.697166071480040728
0.168000000000000010,116.646147393208451604
0.169000000000000011,113.561389909752989524
0.170000000000000012,110.453840201443767910
0.171000000000000013,107.338969383154108073
0.172000000000000014,104.234399820569052508
0.173000000000000015,101.157919598547962892
0.174000000000000016,98.125958977815599837
0.175000000000000017,95.152534716297665796
0.176000000000000018,92.248624003247087444
0.177000000000000018,89.421904649407437660
0.178000000000000019,86.676787179298173669
0.179000000000000020,84.014663330938248009
0.180000000000000021,81.434300724224002010
0.181000000000000022,78.932322433196063116
0.182000000000000023,76.503720911150054462
0.183000000000000024,74.142366781970409306
0.184000000000000025,71.841483510438706617
0.185000000000000026,69.594068347564629562
0.186000000000000026,67.393247933307407038
0.187000000000000027,65.232563439140221817
0.188000000000000028,63.106185186462354864
0.189000000000000029,61.009060404241132858
0.190000000000000030,58.937000355454223666
0.191000000000000031,56.886714650640598734
0.192000000000000032,54.855801362850840519
0.193000000000000033,52.842701735601849578
0.194000000000000034,50.846627990742454983
0.195000000000000034,48.867472132178463085
0.196000000000000035,46.905702818046435709
0.197000000000000036,44.962256430685798136
0.198000000000000037,43.038427483418821851
0.199000000000000038,41.135762520913232265
0.200000000000000039,39.255960735813040685
0.201000000000000040,37.400783665687711732
0.202000000000000041,35.571975568101557030
0.203000000000000042,33.771195406417028551
0.204000000000000042,31.999960817133977997
0.205000000000000043,30.259603968724938738
0.206000000000000044,28.551238856282395773
0.207000000000000045,26.875739297857069943
0.208000000000000046,25.233726697811707851
0.209000000000000047,23.625566509900703949
0.210000000000000048,22.051372258091184619
0.211000000000000049,20.511015946655447806
0.212000000000000050,19.004143703658940012
0.213000000000000050,17.530195545295871540
0.214000000000000051,16.088428215089155771
0.215000000000000052,14.677940135211184014
0.216000000000000053,13.297697601438949633
0.217000000000000054,11.946561453761344040
0.218000000000000055,10.623313557468808455
0.219000000000000056,9.326682531500816609
0.220000000000000057,8.055368259402047926
0.221000000000000058,6.808064811573712127
0.222000000000000058,5.583481494216409047
0.223000000000000059,4.380361819555129266
0.224000000000000060,3.197500263059946946
0.225000000000000061,2.033756736209514138
0.226000000000000062,0.888068757907788831
0.227000000000000063,-0.240538645825112696
0.228000000000000064,-1.352945245438440525
0.229000000000000065,-2.449930014645476994
0.230000000000000066,-3.532167515392420576
0.231000000000000066,-4.600226117060793207
0.232000000000000067,-5.654567892488330472
0.233000000000000068,-6.695550024733099015
0.234000000000000069,-7.723427554041634835
0.235000000000000070,-8.738357293625938382
0.236000000000000071,-9.740402745045496857
0.237000000000000072,-10.729539848711741712
0.238000000000000073,-11.705663411798081341
0.239000000000000073,-12.668594064215405126
0.240000000000000074,-13.618085602912454846
0.241000000000000075,-14.553832595226287694
0.242000000000000076,-15.475478123042497813
0.243000000000000077,-16.382621560861544197
0.244000000000000078,-17.274826292278117279
0.245000000000000079,-18.151627280678845011
0.246000000000000080,-19.012538420987997512
0.247000000000000081,-19.857059609920320042
0.248000000000000081,-20.684683482326828852
0.249000000000000082,-21.494901770772152361
0.250000000000000111,-22.287211254404518002
0.251000000000000112,-23.061119271432392708
0.252000000000000113,-23.816148777089360067
0.253000000000000114,-24.551842935834375936
0.254000000000000115,-25.267769242715107936
0.255000000000000115,-25.963523174316986086
0.256000000000000116,-26.638731374562212295
0.257000000000000117,-27.293054384831457071
0.258000000000000118,-27.926188931490372624
0.259000000000000119,-28.537869786948554918
0.260000000000000120,-29.127871222899063497
0.261000000000000121,-29.696008076415768784
0.262000000000000122,-30.242136451171454326
0.263000000000000123,-30.766154077212679141
0.264000000000000123,-31.268000353534546321
0.265000000000000124,-31.747656098171614047
0.266000000000000125,-32.205143030701741225
0.267000000000000126,-32.640523011979183821
0.268000000000000127,-33.053897065608119021
0.269000000000000128,-33.445404205165935707
0.270000000000000129,-33.815220090519204632
0.271000000000000130,-34.163555535770413485
0.272000000000000131,-34.490654890453647852
0.273000000000000131,-34.796794314588126440
0.274000000000000132,-35.082279967117713682
0.275000000000000133,-35.347446126133398536
0.276000000000000134,-35.592653258109564263
0.277000000000000135,-35.818286052197620961
0.278000000000000136,-36.024751434429440167
0.279000000000000137,-36.212476575494044084
0.280000000000000138,-36.381906904578137585
0.281000000000000139,-36.533504140611867683
0.282000000000000139,-36.667744351141529080
0.283000000000000140,-36.785116047969005137
0.284000000000000141,-36.886118327656234328
0.285000000000000142,-36.971259063997777616
0.286000000000000143,-37.041053158617366137
0.287000000000000144,-37.096020854946957002
0.288000000000000145,-37.136686120003396638
0.289000000000000146,-37.163575097584761409
0.290000000000000147,-37.177214635770710061
0.291000000000000147,-37.178130890924649066
0.292000000000000148,-37.166848009762844640
0.293000000000000149,-37.143886890472366247
0.294000000000000150,-37.109764023328061455
0.295000000000000151,-37.064990410775052965
0.296000000000000152,-37.010070566504886358
0.297000000000000153,-36.945501592662395751
0.298000000000000154,-36.871772333969161650
0.299000000000000155,-36.789362607241336889
0.300000000000000155,-36.698742504507620765
0.301000000000000156,-36.600371767699286352
0.302000000000000157,-36.494699232683032619
0.303000000000000158,-36.382162340237890419
0.304000000000000159,-36.263186711438869736
0.305000000000000160,-36.138185784796128530
0.306000000000000161,-36.007560512412837284
0.307000000000000162,-35.871699112360275308
0.308000000000000163,-35.730976874425671497
0.309000000000000163,-35.585756016365593268
0.310000000000000164,-35.436385587791164653
0.311000000000000165,-35.283201418821157347
0.312000000000000166,-35.126526110663277791
0.313000000000000167,-34.966669065319919696
0.314000000000000168,-34.803926551662257793
0.315000000000000169,-34.638581805173579653
0.316000000000000170,-34.470905158728996298
0.317000000000000171,-34.301154201850295067
0.318000000000000171,-34.129573965954463688
0.319000000000000172,-33.956397133198166216
0.320000000000000173,-33.781844266608359817
0.321000000000000174,-33.606124059280418237
0.322000000000000175,-33.429433600519139702
0.323000000000000176,-33.251958656893400246
0.324000000000000177,-33.073873966271506220
0.325000000000000178,-32.895343543001075659
0.326000000000000179,-32.716520992494999120
0.327000000000000179,-32.537549833580008851
0.328000000000000180,-32.358563827060422113
0.329000000000000181,-32.179687309043934818
0.330000000000000182,-32.001035527666942926
0.331000000000000183,-31.822714981949264512
0.332000000000000184,-31.644823761593830369
0.333000000000000185,-31.467451886634300706
0.334000000000000186,-31.290681645915078946
0.335000000000000187,-31.114587933469056935
0.336000000000000187,-30.939238581935587291
0.337000000000000188,-30.764694692234758833
0.338000000000000189,-30.591010958786323926
0.339000000000000190,-30.418235989629021532
0.340000000000000191,-30.246412620860837706
0.341000000000000192,-30.075578224883923184
0.342000000000000193,-29.905765011995082858
0.343000000000000194,-29.737000324919943495
0.344000000000000195,-29.569306925940491482
0.345000000000000195,-29.402703276316486836
0.346000000000000196,-29.237203807747185635
0.347000000000000197,-29.072819185664116048
0.348000000000000198,-28.909556564187216310
0.349000000000000199,-28.747419832614149016
0.350000000000000200,-28.586409853349614707
0.351000000000000201,-28.426524691213735707
0.352000000000000202,-28.267759834100019134
0.353000000000000203,-28.110108404981854591
0.354000000000000203,-27.953561365292603824
0.355000000000000204,-27.798107709728121506
0.356000000000000205,-27.643734652543223262
0.357000000000000206,-27.490427805433142794
0.358000000000000207,-27.338171347108954023
0.359000000000000208,-27.186948184692845132
0.360000000000000209,-27.036740107073406136
0.361000000000000210,-26.887527930374073293
0.362000000000000210,-26.739291635699707683
0.363000000000000211,-26.592010499335934526
0.364000000000000212,-26.445663215585181405
0.365000000000000213,-26.300228012430181934
0.366000000000000214,-26.155682760222674688
0.367000000000000215,-26.012005073599631544
0.368000000000000216,-25.869172406834053390
0.369000000000000217,-25.727162142830131586
0.370000000000000218,-25.585951675975266539
0.371000000000000218,-25.445518489062614265
0.372000000000000219,-25.305840224498716395
0.373000000000000220,-25.166894750011238102
0.374000000000000221,-25.028660219070086868
0.375000000000000222,-24.891115126235440869
0.376000000000000223,-24.754238357643409074
0.377000000000000224,-24.618009236838403808
0.378000000000000225,-24.482407566158375545
0.379000000000000226,-24.347413663876203316
0.380000000000000226,-24.213008397297230090
0.381000000000000227,-24.079173212008733174
0.382000000000000228,-23.945890157473932902
0.383000000000000229,-23.813141909158293430
0.384000000000000230,-23.680911787371449861
0.385000000000000231,-23.549183773004266129
0.386000000000000232,-23.417942520334595002
0.387000000000000233,-23.287173367071510199
0.388000000000000234,-23.156862341802028737
0.389000000000000234,-23.026996168999954051
0.390000000000000235,-22.897562271750707907
0.391000000000000236,-22.768548772341514308
0.392000000000000237,-22.639944490860557380
0.393000000000000238,-22.511738941944152259
0.394000000000000239,-22.383922329805308493
0.395000000000000240,-22.256485541672319073
0.396000000000000241,-22.129420139760846098
0.397000000000000242,-22.002718351897691207
0.398000000000000242,-21.876373060910037083
0.399000000000000243,-21.750377792888464512
0.400000000000000244,-21.624726704427562396
0.401000000000000245,-21.499414568943340242
0.402000000000000246,-21.374436762161632686
0.403000000000000247,-21.249789246867486270
0.404000000000000248,-21.125468557000957048
0.405000000000000249,-21.001471781180594434
0.406000000000000250,-20.877796545731282407
0.407000000000000250,-20.754440997289528070
0.408000000000000251,-20.631403785054867939
0.409000000000000252,-20.508684042752566512
0.410000000000000253,-20.386281370368628529
0.411000000000000254,-20.264195815715048354
0.412000000000000255,-20.142427855879056153
0.413000000000000256,-20.020978378607576786
0.414000000000000257,-19.899848663673797233
0.415000000000000258,-19.779040364270723984
0.416000000000000258,-19.658555488472721606
0.417000000000000259,-19.538396380803394692
0.418000000000000260,-19.418565703945692036
0.419000000000000261,-19.299066420626822094
0.420000000000000262,-19.179901775708476208
0.421000000000000263,-19.061075278510436704
0.422000000000000264,-18.942590685392598715
0.423000000000000265,-18.824451982619201829
0.424000000000000266,-18.706663369526204121
0.425000000000000266,-18.589229242010858911
0.426000000000000267,-18.472154176360692901
0.427000000000000268,-18.355442913437279628
0.428000000000000269,-18.239100343228212608
0.429000000000000270,-18.123131489779350289
0.430000000000000271,-18.007541496517422530
0.431000000000000272,-17.892335611972072229
0.432000000000000273,-17.777519175904558324
0.433000000000000274,-17.663097605849326754
0.434000000000000274,-17.549076384073178048
0.435000000000000275,-17.435461044955811616
0.436000000000000276,-17.322257162794251428
0.437000000000000277,-17.209470340032588354
0.438000000000000278,-17.097106195917710636
0.439000000000000279,-16.985170355580692103
0.440000000000000280,-16.873668439542417019
0.441000000000000281,-16.762606053641690096
0.442000000000000282,-16.651988779383067651
0.443000000000000282,-16.541822164700867859
0.444000000000000283,-16.432111715135569341
0.445000000000000284,-16.322862885417841028
0.446000000000000285,-16.214081071455147764
0.447000000000000286,-16.105771602715407198
0.448000000000000287,-15.997939735001477146
0.449000000000000288,-15.890590643610300603
0.450000000000000289,-15.783729416869695328
0.451000000000000290,-15.677361050045742985
0.452000000000000290,-15.571490439613498324
0.453000000000000291,-15.466122377883161576
0.454000000000000292,-15.361261547974024211
0.455000000000000293,-15.256912519127975969
0.456000000000000294,-15.153079742354446324
0.457000000000000295,-15.049767546398403084
0.458000000000000296,-14.946980134022775033
0.459000000000000297,-14.844721578597050993
0.460000000000000298,-14.742995820982972788
0.461000000000000298,-14.641806666709069162
0.462000000000000299,-14.541157783425092020
0.463000000000000300,-14.441052698627506956
0.464000000000000301,-14.341494797647708737
0.465000000000000302,-14.242487321893941399
0.466000000000000303,-14.144033367338327167
0.467000000000000304,-14.046135883240529196
0.468000000000000305,-13.948797671099402606
0.469000000000000306,-13.852021383824183687
0.470000000000000306,-13.755809525116944769
0.471000000000000307,-13.660164449057797142
0.472000000000000308,-13.565088359885029590
0.473000000000000309,-13.470583311961766171
0.474000000000000310,-13.376651209921437413
0.475000000000000311,-13.283293808984097950
0.476000000000000312,-13.190512715436218727
0.477000000000000313,-13.098309387265903325
0.478000000000000314,-13.006685134946613047
0.479000000000000314,-12.915641122362004012
0.480000000000000315,-12.825178367864591422
0.481000000000000316,-12.735297745461663155
0.482000000000000317,-12.645999986121335468
0.483000000000000318,-12.557285679192336403
0.484000000000000319,-12.469155273930914163
0.485000000000000320,-12.381609081128789995
0.486000000000000321,-12.294647274835769579
0.487000000000000322,-12.208269894171229097
0.488000000000000322,-12.122476845218542962
0.489000000000000323,-12.037267902996999780
0.490000000000000324,-11.952642713505548855
0.491000000000000325,-11.868600795833193828
0.492000000000000326,-11.785141544330773655
0.493000000000000327,-11.702264230839306336
0.494000000000000328,-11.619968006969944696
0.495000000000000329,-11.538251906430961213
0.496000000000000330,-11.457114847397168234
0.497000000000000330,-11.376555634917597359
0.498000000000000331,-11.296572963356968700
0.499000000000000332,-11.217165418867276472
0.500000000000000333,-11.138331481885263230
0.501000000000000334,-11.060069529652219344
0.502000000000000335,-10.982377838752444887
0.503000000000000336,-10.905254587667009503
0.504000000000000337,-10.828697859339364129
0.505000000000000338,-10.752705643749699504
0.506000000000000338,-10.677275840495033421
0.507000000000000339,-10.602406261372037122
0.508000000000000340,-10.528094632959852817
0.509000000000000341,-10.454338599200333704
0.510000000000000342,-10.381135723972992224
0.511000000000000343,-10.308483493662397024
0.512000000000000344,-10.236379319715634750
0.513000000000000345,-10.164820541187701508
0.514000000000000346,-10.093804427272761615
0.515000000000000346,-10.023328179819241512
0.516000000000000347,-9.953388935826922079
0.517000000000000348,-9.883983769924444829
0.518000000000000349,-9.815109696825221164
0.519000000000000350,-9.746763673760552749
0.520000000000000351,-9.678942602888271907
0.521000000000000352,-9.611643333675647938
0.522000000000000353,-9.544862665255177347
0.523000000000000353,-9.478597348752089147
0.524000000000000354,-9.412844089582570462
0.525000000000000355,-9.347599549721456569
0.526000000000000356,-9.282860349938559352
0.527000000000000357,-9.218623072002829488
0.528000000000000358,-9.154884260853282996
0.529000000000000359,-9.091640426736235625
0.530000000000000360,-9.028888047307969345
0.531000000000000361,-8.966623569702294461
0.532000000000000361,-8.904843412562488680
0.533000000000000362,-8.843543968037030467
0.534000000000000363,-8.782721603738796290
0.535000000000000364,-8.722372664667265241
0.536000000000000365,-8.662493475093453910
0.537000000000000366,-8.603080340407304405
0.538000000000000367,-8.544129548927214657
0.539000000000000368,-8.485637373671762518
0.540000000000000369,-8.427600074093131610
0.541000000000000369,-8.370013897772521361
0.542000000000000370,-8.312875082077244571
0.543000000000000371,-8.256179855779540944
0.544000000000000372,-8.199924440637266443
0.545000000000000373,-8.144105052936339462
0.546000000000000374,-8.088717904995126773
0.547000000000000375,-8.033759206630898930
0.548000000000000376,-7.979225166588527429
0.549000000000000377,-7.925111993931554188
0.550000000000000377,-7.871415899395836746
0.551000000000000378,-7.818133096706096019
0.552000000000000379,-7.765259803855559362
0.553000000000000380,-7.712792244348987580
0.554000000000000381,-7.660726648409371009
0.555000000000000382,-7.609059254148762719
0.556000000000000383,-7.557786308703326128
0.557000000000000384,-7.506904069333257823
0.558000000000000385,-7.456408804487725028
0.559000000000000385,-7.406296794835393271
0.560000000000000386,-7.356564334260791149
0.561000000000000387,-7.307207730827083303
0.562000000000000388,-7.258223307705570448
0.563000000000000389,-7.209607404072448489
0.564000000000000390,-7.161356375973203292
0.565000000000000391,-7.113466597155171378
0.566000000000000392,-7.065934459868714157
0.567000000000000393,-7.018756375637498657
0.568000000000000393,-6.971928775998327055
0.569000000000000394,-6.925448113211055912
0.570000000000000395,-6.879310860939158445
0.571000000000000396,-6.833513514901244257
0.572000000000000397,-6.788052593494301235
0.573000000000000398,-6.742924638388944736
0.574000000000000399,-6.698126215097343739
0.575000000000000400,-6.653653913514237850
0.576000000000000401,-6.609504348431606502
0.577000000000000401,-6.565674160027578310
0.578000000000000402,-6.522160014329915434
0.579000000000000403,-6.478958603654783488
0.580000000000000404,-6.436066647021240428
0.581000000000000405,-6.393480890541941797
0.582000000000000406,-6.351198107790635206
0.583000000000000407,-6.309215100146887245
0.584000000000000408,-6.267528697118662784
0.585000000000000409,-6.226135756643130570
0.586000000000000409,-6.185033165366317753
0.587000000000000410,-6.144217838902063633
0.588000000000000411,-6.103686722070759352
0.589000000000000412,-6.063436789118442860
0.590000000000000413,-6.023465043916615969
0.591000000000000414,-5.983768520143391001
0.592000000000000415,-5.944344281446452882
0.593000000000000416,-5.905189421588146637
0.594000000000000417,-5.866301064573376856
0.595000000000000417,-5.827676364760737471
0.596000000000000418,-5.789312506957124072
0.597000000000000419,-5.751206706496678756
0.598000000000000420,-5.713356209304114586
0.599000000000000421,-5.675758291943169276
0.600000000000000422,-5.638410261650436794
0.601000000000000423,-5.601309456355146210
0.602000000000000424,-5.564453244685208411
0.603000000000000425,-5.527839025960026298
0.604000000000000425,-5.491464230170453931
0.605000000000000426,-5.455326317946299852
0.606000000000000427,-5.419422780511886195
