# AuFCC100-Ablate25_DIHYDROXYPHOSPHANIUM-AC
# h[nm],U(h)[kJ/mol]
0.149999999999999994,149.385742819599755649
0.150999999999999995,146.463000993952363160
0.151999999999999996,143.784578020172318702
0.152999999999999997,141.188009453861951670
0.153999999999999998,138.620250642954658815
0.154999999999999999,136.075716063288751911
0.156000000000000000,133.564449820683790904
0.157000000000000001,131.097458393406441246
0.158000000000000002,128.681307852983934481
0.159000000000000002,126.317319564529128684
0.160000000000000003,124.002719800051750099
0.161000000000000004,121.732333410984637112
0.162000000000000005,119.500142584959576197
0.163000000000000006,117.300445816969073576
0.164000000000000007,115.128571805955431273
0.165000000000000008,112.981206804445406533
0.166000000000000009,110.856431848743525848
0.167000000000000010,108.753569119489299055
0.168000000000000010,106.672922936536380689
0.169000000000000011,104.615481223232990260
0.170000000000000012,102.582623418456634568
0.171000000000000013,100.575863525888195227
0.172000000000000014,98.596643287063955086
0.173000000000000015,96.646180411454182035
0.174000000000000016,94.725369983927137696
0.175000000000000017,92.834733000665750069
0.176000000000000018,90.974403835000799745
0.177000000000000018,89.144147736344834243
0.178000000000000019,87.343399741326408048
0.179000000000000020,85.571317249003669758
0.180000000000000021,83.826839698273559520
0.181000000000000022,82.108750083042011170
0.182000000000000023,80.415734313361269869
0.183000000000000024,78.746435594093128429
0.184000000000000025,77.099502000694968729
0.185000000000000026,75.473626265883027031
0.186000000000000026,73.867577451256863696
0.187000000000000027,72.280224676327037514
0.188000000000000028,70.710553432346884506
0.189000000000000029,69.157675241547025280
0.190000000000000030,67.620831556014650232
0.191000000000000031,66.099392845690900344
0.192000000000000032,64.592853820908203488
0.193000000000000033,63.100825688159908111
0.194000000000000034,61.623026262337042169
0.195000000000000034,60.159268665809271681
0.196000000000000035,58.709449243394047357
0.197000000000000036,57.273535219230907956
0.198000000000000037,55.851552521794587847
0.199000000000000038,54.443574110156703227
0.200000000000000039,53.049709050304194591
0.201000000000000040,51.670092516029384910
0.202000000000000041,50.304876825058599366
0.203000000000000042,48.954223567565506414
0.204000000000000042,47.618296840509970025
0.205000000000000043,46.297257566589976818
0.206000000000000044,44.991258850066898844
0.207000000000000045,43.700442302331680366
0.208000000000000046,42.424935256812204898
0.209000000000000047,41.164848784704147988
0.210000000000000048,39.920276419120071409
0.211000000000000049,38.691293494761453076
0.212000000000000050,37.477957012370367806
0.213000000000000050,36.280305941365320166
0.214000000000000051,35.098361879639355720
0.215000000000000052,33.932129996028422170
0.216000000000000053,32.781600188052252065
0.217000000000000054,31.646748394869973708
0.218000000000000055,30.527538012728861361
0.219000000000000056,29.423921367326887122
0.220000000000000057,28.335841204308330532
0.221000000000000058,27.263232165478378022
0.222000000000000058,26.206022224176241053
0.223000000000000059,25.164134058565576169
0.224000000000000060,24.137486346359445122
0.225000000000000061,23.125994968704951305
0.226000000000000062,22.129574114624762871
0.227000000000000063,21.148137280575401320
0.228000000000000064,20.181598162371283678
0.229000000000000065,19.229871438972448772
0.230000000000000066,18.292873449488972426
0.231000000000000066,17.370522766250889646
0.232000000000000067,16.462740667974564701
0.233000000000000068,15.569451517959853604
0.234000000000000069,14.690583052916764473
0.235000000000000070,13.826066588478003183
0.236000000000000071,12.975837147738626953
0.237000000000000072,12.139833519300738729
0.238000000000000073,11.317998251319917102
0.239000000000000073,10.510277587972094437
0.240000000000000074,9.716621354600569305
0.241000000000000075,8.936982797588868266
0.242000000000000076,8.171318384742718877
0.243000000000000077,7.419587571670566817
0.244000000000000078,6.681752539337236563
0.245000000000000079,5.957777907636495840
0.246000000000000080,5.247630429495672821
0.247000000000000081,4.551278669690790757
0.248000000000000081,3.868692672223111195
0.249000000000000082,3.199843619788054205
0.250000000000000111,2.544703488558488935
0.251000000000000112,1.903244701209396039
0.252000000000000113,1.275439780828722336
0.253000000000000114,0.661261008095444525
0.254000000000000115,0.060680083853666390
0.255000000000000115,-0.526332201021140533
0.256000000000000116,-1.099806286787516907
0.257000000000000117,-1.659774155562566689
0.258000000000000118,-2.206269630321758601
0.259000000000000119,-2.739328661065999704
0.260000000000000120,-3.258989597210379507
0.261000000000000121,-3.765293445397906336
0.262000000000000122,-4.258284112080592543
0.263000000000000123,-4.738008630336347338
0.264000000000000123,-5.204517370508040308
0.265000000000000124,-5.657864234357735000
0.266000000000000125,-6.098106832528288557
0.267000000000000126,-6.525306645194332233
0.268000000000000127,-6.939529165868398408
0.269000000000000128,-7.340844028402598198
0.270000000000000129,-7.729325117296168557
0.271000000000000130,-8.105050661482295027
0.272000000000000131,-8.468103311824602741
0.273000000000000131,-8.818570202606117903
0.274000000000000132,-9.156542997340528345
0.275000000000000133,-9.482117919277941454
0.276000000000000134,-9.795395767015893540
0.277000000000000135,-10.096481915659456519
0.278000000000000136,-10.385486304005464575
0.279000000000000137,-10.662523408251784574
0.280000000000000138,-10.927712202755525794
0.281000000000000139,-11.181176108384326184
0.282000000000000139,-11.423042929021104186
0.283000000000000140,-11.653444776796758831
0.284000000000000141,-11.872517986636122345
0.285000000000000142,-12.080403020710948070
0.286000000000000143,-12.277244363399816507
0.287000000000000144,-12.463190407357894074
0.288000000000000145,-12.638393331301767120
0.289000000000000146,-12.803008970112765397
0.290000000000000147,-12.957196677860583378
0.291000000000000147,-13.101119184343668067
0.292000000000000148,-13.234942445737413408
0.293000000000000149,-13.358835489932673113
0.294000000000000150,-13.472970257138360495
0.295000000000000151,-13.577521436311112524
0.296000000000000152,-13.672666297963019133
0.297000000000000153,-13.758584523885398099
0.298000000000000154,-13.835458034312726028
0.299000000000000155,-13.903470813035511355
0.300000000000000155,-13.962808730955305947
0.301000000000000156,-14.013659368558251117
0.302000000000000157,-14.056211837766614536
0.303000000000000158,-14.090656603609648556
0.304000000000000159,-14.117185306137320921
0.305000000000000160,-14.135990582981253993
0.306000000000000161,-14.147265892949073773
0.307000000000000162,-14.151205341018620487
0.308000000000000163,-14.148003505079582709
0.309000000000000163,-14.137855264750651685
0.310000000000000164,-14.120955632581324579
0.311000000000000165,-14.097499587927510234
0.312000000000000166,-14.067681913772016600
0.313000000000000167,-14.031697036741126894
0.314000000000000168,-13.989738870550283423
0.315000000000000169,-13.942000663093306656
0.316000000000000170,-13.888674847371657251
0.317000000000000171,-13.829952896442140542
0.318000000000000171,-13.766025182544462169
0.319000000000000172,-13.697080840553022441
0.320000000000000173,-13.623307635880786748
0.321000000000000174,-13.544891836947163810
0.322000000000000175,-13.462018092306408334
0.323000000000000176,-13.374869312518026021
0.324000000000000177,-13.283626556826424903
0.325000000000000178,-13.188468924702783980
0.326000000000000179,-13.089573452289570810
0.327000000000000179,-12.987115013774674921
0.328000000000000180,-12.881266227710284511
0.329000000000000181,-12.772197368280462371
0.330000000000000182,-12.660076281509542895
0.331000000000000183,-12.545068306394082214
0.332000000000000184,-12.427336200930348298
0.333000000000000185,-12.307040073000877101
0.334000000000000186,-12.184337316074323354
0.335000000000000187,-12.059382549665178530
0.336000000000000187,-11.932327564492080541
0.337000000000000188,-11.803321272266405373
0.338000000000000189,-11.672509660036567425
0.339000000000000190,-11.540035749007218513
0.340000000000000191,-11.406039557746982638
0.341000000000000192,-11.270658069693828551
0.342000000000000193,-11.134025204861867309
0.343000000000000194,-10.996271795650185865
0.344000000000000195,-10.857525566649801618
0.345000000000000195,-10.717911118342410504
0.346000000000000196,-10.577549914581123147
0.347000000000000197,-10.436560273741456228
0.348000000000000198,-10.295057363428597341
0.349000000000000199,-10.153153198625190612
0.350000000000000200,-10.010956643162886692
0.351000000000000201,-9.868573414399488541
0.352000000000000202,-9.726106090983083874
0.353000000000000203,-9.583654123584167905
0.354000000000000203,-9.441313848476401205
0.355000000000000204,-9.299178503846999178
0.356000000000000205,-9.157338248718042806
0.357000000000000206,-9.015880184360650418
0.358000000000000207,-8.874888378084609286
0.359000000000000208,-8.734443889287351936
0.360000000000000209,-8.594624797647179903
0.361000000000000210,-8.455506233347058753
0.362000000000000210,-8.317160409216892702
0.363000000000000211,-8.179656654683821415
0.364000000000000212,-8.043061451421991137
0.365000000000000213,-7.907438470595046454
0.366000000000000214,-7.772848611586840484
0.367000000000000215,-7.639350042117800221
0.368000000000000216,-7.506998239646844873
0.369000000000000217,-7.375846033960884895
0.370000000000000218,-7.245943650856494500
0.371000000000000218,-7.117338756820579704
0.372000000000000219,-6.990076504619613829
0.373000000000000220,-6.864199579709369559
0.374000000000000221,-6.739748247379802493
0.375000000000000222,-6.616760400552069044
0.376000000000000223,-6.495271608147736409
0.377000000000000224,-6.375315163952380182
0.378000000000000225,-6.256922135898776993
0.379000000000000226,-6.140121415697359808
0.380000000000000226,-6.024939768744301816
0.381000000000000227,-5.911401884240151894
0.382000000000000228,-5.799530425454669569
0.383000000000000229,-5.689346080076049361
0.384000000000000230,-5.580867610585109162
0.385000000000000231,-5.474111904598008671
0.386000000000000232,-5.369094025123021474
0.387000000000000233,-5.265827260679788679
0.388000000000000234,-5.164323175231634977
0.389000000000000234,-5.064591657884196074
0.390000000000000235,-4.966640972305597757
0.391000000000000236,-4.870477805826200601
0.392000000000000237,-4.776107318177643002
0.393000000000000238,-4.683533189833692489
0.394000000000000239,-4.592757669917084229
0.395000000000000240,-4.503781623638998255
0.396000000000000241,-4.416604579239686856
0.397000000000000242,-4.331224774400823208
0.398000000000000242,-4.247639202102151401
0.399000000000000243,-4.165843655896875219
0.400000000000000244,-4.085832774581899862
0.401000000000000245,-4.007600086241322579
0.402000000000000246,-3.931138051642638409
0.403000000000000247,-3.856438106967325918
0.404000000000000248,-3.783490705858883363
0.405000000000000249,-3.712285360772997311
0.406000000000000250,-3.642810683615967715
0.407000000000000250,-3.575054425659167201
0.408000000000000251,-3.509003516718411042
0.409000000000000252,-3.444644103588843986
0.410000000000000253,-3.381961587726868945
0.411000000000000254,-3.320940662172206181
0.412000000000000255,-3.261565347704156181
0.413000000000000256,-3.203819028227419263
0.414000000000000257,-3.147684485383801967
0.415000000000000258,-3.093143932387346862
0.416000000000000258,-3.040179047081221775
0.417000000000000259,-2.988771004215870164
0.418000000000000260,-2.938900506948667335
0.419000000000000261,-2.890547817566256228
0.420000000000000262,-2.843692787431586044
0.421000000000000263,-2.798314886158427939
0.422000000000000264,-2.754393230016810357
0.423000000000000265,-2.711906609573591087
0.424000000000000266,-2.670833516573157596
0.425000000000000266,-2.631152170063484785
0.426000000000000267,-2.592840541773826946
0.427000000000000268,-2.555876380750529808
0.428000000000000269,-2.520237237258097007
0.429000000000000270,-2.485900485953120853
0.430000000000000271,-2.452843348339071916
0.431000000000000272,-2.421042914510434407
0.432000000000000273,-2.390476164194966113
0.433000000000000274,-2.361119987103314166
0.434000000000000274,-2.332951202595425322
0.435000000000000275,-2.305946578673616187
0.436000000000000276,-2.280082850312333154
0.437000000000000277,-2.255336737134905789
0.438000000000000278,-2.231684960447865684
0.439000000000000279,-2.209104259643544843
0.440000000000000280,-2.187571407981871552
0.441000000000000281,-2.167063227762359823
0.442000000000000282,-2.147556604897653543
0.443000000000000282,-2.129028502899684927
0.444000000000000283,-2.111455976290121939
0.445000000000000284,-2.094816183446385427
0.446000000000000285,-2.079086398894809840
0.447000000000000286,-2.064244025062673682
0.448000000000000287,-2.050266603500491946
0.449000000000000288,-2.037131825586390832
0.450000000000000289,-2.024817542724075103
0.451000000000000290,-2.013301776046027225
0.452000000000000290,-2.002562725633574736
0.453000000000000291,-1.992578779265285149
0.454000000000000292,-1.983328520705282871
0.455000000000000293,-1.974790737542847952
0.456000000000000294,-1.966944428594735061
0.457000000000000295,-1.959768810881462597
0.458000000000000296,-1.953243326188800477
0.459000000000000297,-1.947347647225541767
0.460000000000000298,-1.942061683388627724
0.461000000000000298,-1.937365586146426510
0.462000000000000299,-1.933239754051074399
0.463000000000000300,-1.929664837390395515
0.464000000000000301,-1.926621742490070233
0.465000000000000302,-1.924091635676359102
0.466000000000000303,-1.922055946909681623
0.467000000000000304,-1.920496373099139564
0.468000000000000305,-1.919394881108020146
0.469000000000000306,-1.918733710460010844
0.470000000000000306,-1.918495375755891796
0.471000000000000307,-1.918662668810123817
0.472000000000000308,-1.919218660516794683
0.473000000000000309,-1.920146702454012866
0.474000000000000310,-1.921430428235844090
0.475000000000000311,-1.923053754620673628
0.476000000000000312,-1.925000882384641177
0.477000000000000313,-1.927256296968739235
0.478000000000000314,-1.929804768907891432
0.479000000000000314,-1.932631354050303729
0.480000000000000315,-1.935721393574993510
0.481000000000000316,-1.939060513815511921
0.482000000000000317,-1.942634625897417422
0.483000000000000318,-1.946429925197131094
0.484000000000000319,-1.950432890629485883
0.485000000000000320,-1.954630283771190635
0.486000000000000321,-1.959009147827224240
0.487000000000000322,-1.963556806447034786
0.488000000000000322,-1.968260862397207323
0.489000000000000323,-1.973109196097209805
0.490000000000000324,-1.978089964024522418
0.491000000000000325,-1.983191596995400818
0.492000000000000326,-1.988402798327303156
0.493000000000000327,-1.993712541888912115
0.494000000000000328,-1.999110070043470300
0.495000000000000329,-2.004584891491013376
0.496000000000000330,-2.010126779014947296
0.497000000000000330,-2.015725767138274005
0.498000000000000331,-2.021372149694544262
0.499000000000000332,-2.027056477318580185
0.500000000000000333,-2.032769554861828087
0.501000000000000334,-2.038502438736967459
0.502000000000000335,-2.044246434196422602
0.503000000000000336,-2.049993092549157403
0.504000000000000337,-2.055734208320075140
0.505000000000000338,-2.061461816356136900
0.506000000000000338,-2.067168188883283353
0.507000000000000339,-2.072845832518011910
0.508000000000000340,-2.078487485237392018
0.509000000000000341,-2.084086113311214739
0.510000000000000342,-2.089634908199708097
0.511000000000000343,-2.095127283420333608
0.512000000000000344,-2.100556871386869418
0.513000000000000345,-2.105917520223989037
0.514000000000000346,-2.111203290560468293
0.515000000000000346,-2.116408452303815135
0.516000000000000347,-2.121527481399330117
0.517000000000000348,-2.126555056576278080
0.518000000000000349,-2.131486056083783609
0.519000000000000350,-2.136315554419024210
0.520000000000000351,-2.141038819050179232
0.521000000000000352,-2.145651307136446029
0.522000000000000353,-2.150148662247381992
0.523000000000000353,-2.154526711083753376
0.524000000000000354,-2.158781460201955493
0.525000000000000355,-2.162909092743996897
0.526000000000000356,-2.166905965174907855
0.527000000000000357,-2.170768604029472026
0.528000000000000358,-2.174493702669943129
0.529000000000000359,-2.178078118056465229
0.530000000000000360,-2.181518867531724748
0.531000000000000361,-2.184813125621409391
0.532000000000000361,-2.187958220851864866
0.533000000000000362,-2.190951632586339404
0.534000000000000363,-2.193790987881111931
0.535000000000000364,-2.196474058362738457
0.536000000000000365,-2.198998757127592629
0.537000000000000366,-2.201363135664808013
0.538000000000000367,-2.203565380803640394
0.539000000000000368,-2.205603811686322580
0.540000000000000369,-2.207476876767217266
0.541000000000000369,-2.209183150839280962
0.542000000000000370,-2.210721332088549484
0.543000000000000371,-2.212090239177482598
0.544000000000000372,-2.213288808357875670
0.545000000000000373,-2.214316090614005361
0.546000000000000374,-2.215171248836621309
0.547000000000000375,-2.215853555028384214
0.548000000000000376,-2.216362387541313872
0.549000000000000377,-2.216697228346663273
0.550000000000000377,-2.216857660337742342
0.551000000000000378,-2.216843364666080340
0.552000000000000379,-2.216654118111292426
0.553000000000000380,-2.216289790485014066
0.554000000000000381,-2.215750342069158219
0.555000000000000382,-2.215035821088851442
0.556000000000000383,-2.214146361220158177
0.557000000000000384,-2.213082179132925376
0.558000000000000385,-2.211843572068822983
0.559000000000000385,-2.210430915454798306
0.560000000000000386,-2.208844660551981587
0.561000000000000387,-2.207085332140214184
0.562000000000000388,-2.205153526238174067
0.563000000000000389,-2.203049907859242929
0.564000000000000390,-2.200775208802999483
0.565000000000000391,-2.198330225482439282
0.566000000000000392,-2.195715816786827368
0.567000000000000393,-2.192932901980158888
0.568000000000000393,-2.189982458635121088
0.569000000000000394,-2.186865520602506496
0.570000000000000395,-2.183583176015941429
0.571000000000000396,-2.180136565331778353
0.572000000000000397,-2.176526879404081516
0.573000000000000398,-2.172755357594442049
0.574000000000000399,-2.168823285916542165
0.575000000000000400,-2.164731995215194438
0.576000000000000401,-2.160482859379706078
0.577000000000000401,-2.156077293591361688
0.578000000000000402,-2.151516752604714089
0.579000000000000403,-2.146802729062520676
0.580000000000000404,-2.141936751844060627
0.581000000000000405,-2.136920384446513221
0.582000000000000406,-2.131755223399212529
0.583000000000000407,-2.126442896710390773
0.584000000000000408,-2.120985062346239403
0.585000000000000409,-2.115383406741864647
0.586000000000000409,-2.109639643343937276
0.587000000000000410,-2.103755511184658644
0.588000000000000411,-2.097732773486723268
0.589000000000000412,-2.091573216299020821
0.590000000000000413,-2.085278647162629007
0.591000000000000414,-2.078850893806861500
0.592000000000000415,-2.072291802875006361
0.593000000000000416,-2.065603238679345033
0.594000000000000417,-2.058787081985186340
0.595000000000000417,-2.051845228823538925
0.596000000000000418,-2.044779589331992664
0.597000000000000419,-2.037592086623580823
0.598000000000000420,-2.030284655683135320
0.599000000000000421,-2.022859242290840687
0.600000000000000422,-2.015317801972609679
0.601000000000000423,-2.007662298976890192
0.602000000000000424,-1.999894705277558415
0.603000000000000425,-1.992016999602528982
0.604000000000000425,-1.984031166487678632
0.605000000000000426,-1.975939195355737921
0.606000000000000427,-1.967743079619823643
0.607000000000000428,-1.959444815811085316
0.608000000000000429,-1.951046402730359119
0.609000000000000430,-1.942549840623118751
0.610000000000000431,-1.933957130377709444
