# AuFCC111UCD_TYR
# h[nm],U(h)[kJ/mol]
0.200000000000000011,23.097276219091245508
0.201000000000000012,19.685585540485220690
0.202000000000000013,16.935212271275524643
0.203000000000000014,14.545543414366454371
0.204000000000000015,12.336387925720153191
0.205000000000000016,10.206859349310024143
0.206000000000000016,8.106631671132095818
0.207000000000000017,6.016194373490220570
0.208000000000000018,3.933584884396883474
0.209000000000000019,1.865725954779292595
0.210000000000000020,-0.177011890117716314
0.211000000000000021,-2.184030781233444518
0.212000000000000022,-4.146237555547415354
0.213000000000000023,-6.056807840122503173
0.214000000000000024,-7.911348276288452830
0.215000000000000024,-9.707709645738413329
0.216000000000000025,-11.445621224828814277
0.217000000000000026,-13.126257442806117837
0.218000000000000027,-14.751805943635536877
0.219000000000000028,-16.325076945609545476
0.220000000000000029,-17.849173941927485743
0.221000000000000030,-19.327232711894982486
0.222000000000000031,-20.762227384068715708
0.223000000000000032,-22.156837471093123071
0.224000000000000032,-23.513367319132651545
0.225000000000000033,-24.833708506346852118
0.226000000000000034,-26.119335823998323320
0.227000000000000035,-27.371328181377641897
0.228000000000000036,-28.590406812942980253
0.229000000000000037,-29.776984342846986920
0.230000000000000038,-30.931219453124118246
0.231000000000000039,-32.053073028745316719
0.232000000000000040,-33.142362670180069983
0.233000000000000040,-34.198813349766780334
0.234000000000000041,-35.222102735409883678
0.235000000000000042,-36.211900317369682512
0.236000000000000043,-37.167899960900960821
0.237000000000000044,-38.089845882373154495
0.238000000000000045,-38.977552323945658941
0.239000000000000046,-39.830917396755431525
0.240000000000000047,-40.649931689176611371
0.241000000000000048,-41.434682308166017606
0.242000000000000048,-42.185353049762760236
0.243000000000000049,-42.902221389702482668
0.244000000000000050,-43.585652955564327726
0.245000000000000051,-44.236094095208180477
0.246000000000000052,-44.854063098452812142
0.247000000000000053,-45.440140564815308721
0.248000000000000054,-45.994959343446879529
0.249000000000000055,-46.519194405050157570
0.250000000000000056,-47.013552941687812847
0.251000000000000056,-47.478764930501959896
0.252000000000000057,-47.915574342465212965
0.253000000000000058,-48.324731127967247346
0.254000000000000059,-48.706984067580819442
0.255000000000000060,-49.063074538765803823
0.256000000000000061,-49.393731217402049083
0.257000000000000062,-49.699665706589485126
0.258000000000000063,-49.981569063733658709
0.259000000000000064,-50.240109180099537411
0.260000000000000064,-50.475928954292029971
0.261000000000000065,-50.689645192025047038
0.262000000000000066,-50.881848158595211373
0.263000000000000067,-51.053101707225252426
0.264000000000000068,-51.203943905451865248
0.265000000000000069,-51.334888082610916626
0.266000000000000070,-51.446424223850115709
0.267000000000000071,-51.539020639656619949
0.268000000000000071,-51.613125844331896985
0.269000000000000072,-51.669170581929265040
0.270000000000000073,-51.707569943672069712
0.271000000000000074,-51.728725526609125041
0.272000000000000075,-51.733027589082418274
0.273000000000000076,-51.720857164354320901
0.274000000000000077,-51.692588099363135257
0.275000000000000078,-51.648588990967098766
0.276000000000000079,-51.589224997135907813
0.277000000000000079,-51.514859505308947973
0.278000000000000080,-51.425855644532930455
0.279000000000000081,-51.322577631996999514
0.280000000000000082,-51.205391948195504881
0.281000000000000083,-51.074668338165118087
0.282000000000000084,-50.930780639073496729
0.283000000000000085,-50.774107436892528256
0.284000000000000086,-50.605032556987296744
0.285000000000000087,-50.423945395213735310
0.286000000000000087,-50.231241097564435449
0.287000000000000088,-50.027320597557121573
0.288000000000000089,-49.812590521449997993
0.289000000000000090,-49.587462972015657670
0.290000000000000091,-49.352355202034928539
0.291000000000000092,-49.107689188910690348
0.292000000000000093,-48.853891121868237235
0.293000000000000094,-48.591390813129351045
0.294000000000000095,-48.320621044239416619
0.295000000000000095,-48.042016858412551983
0.296000000000000096,-47.756014809355512796
0.297000000000000097,-47.463052176554000994
0.298000000000000098,-47.163566156469912016
0.299000000000000099,-46.857993038519758500
0.300000000000000100,-46.546767374093441560
0.301000000000000101,-46.230321146240939356
0.302000000000000102,-45.909082947012805676
0.303000000000000103,-45.583477168794011902
0.304000000000000103,-45.253923215330779328
0.305000000000000104,-44.920834737520110025
0.306000000000000105,-44.584618898418092670
0.307000000000000106,-44.245675671329976808
0.308000000000000107,-43.904397174276105886
0.309000000000000108,-43.561167043585740544
0.310000000000000109,-43.216359848857742065
0.311000000000000110,-42.870340551045032385
0.312000000000000111,-42.523464004968708707
0.313000000000000111,-42.176074507149664328
0.314000000000000112,-41.828505389459735397
0.315000000000000113,-41.481078658740372589
0.316000000000000114,-41.134104682215593130
0.317000000000000115,-40.787881918235186163
0.318000000000000116,-40.442696691623339689
0.319000000000000117,-40.098823012677215161
0.320000000000000118,-39.756522438656148211
0.321000000000000119,-39.416043976425299888
0.322000000000000119,-39.077624024766166144
0.323000000000000120,-38.741486354738171372
0.324000000000000121,-38.407842126370006497
0.325000000000000122,-38.076889939873865387
0.326000000000000123,-37.748815919510768424
0.327000000000000124,-37.423793828185829113
0.328000000000000125,-37.101985210821879946
0.329000000000000126,-36.783539564541591460
0.330000000000000127,-36.468594533685504189
0.331000000000000127,-36.157276127701756252
0.332000000000000128,-35.849698959962765343
0.333000000000000129,-35.545966505593462159
0.334000000000000130,-35.246171376433025557
0.335000000000000131,-34.950395611297736309
0.336000000000000132,-34.658710979763824866
0.337000000000000133,-34.371179297746309089
0.338000000000000134,-34.087852753211357992
0.339000000000000135,-33.808774240425776725
0.340000000000000135,-33.533977701214844558
0.341000000000000136,-33.263488471771083255
0.342000000000000137,-32.997323633629036976
0.343000000000000138,-32.735492367494380517
0.344000000000000139,-32.477996308690123328
0.345000000000000140,-32.224829903057205627
0.346000000000000141,-31.975980762219990083
0.347000000000000142,-31.731430017201269322
0.348000000000000143,-31.491152669443117418
0.349000000000000143,-31.255117938361074437
0.350000000000000144,-31.023289604628281779
0.351000000000000145,-30.795626348453829735
0.352000000000000146,-30.572082082185382035
0.353000000000000147,-30.352606276628705473
0.354000000000000148,-30.137144280539139629
0.355000000000000149,-29.925637632797268850
0.356000000000000150,-29.718024366838740491
0.357000000000000151,-29.514239306960980969
0.358000000000000151,-29.314214356181395260
0.359000000000000152,-29.117878775369689492
0.360000000000000153,-28.925159453423713529
0.361000000000000154,-28.735981168301321986
0.362000000000000155,-28.550266838761672261
0.363000000000000156,-28.367937766708372749
0.364000000000000157,-28.188913870061945488
0.365000000000000158,-28.013113906124022634
0.366000000000000159,-27.840455685425531840
0.367000000000000159,-27.670856276081064351
0.368000000000000160,-27.504232198698041145
0.369000000000000161,-27.340499611913752886
0.370000000000000162,-27.179574488656026432
0.371000000000000163,-27.021372783244025584
0.372000000000000164,-26.865810589463666957
0.373000000000000165,-26.712804289769952248
0.374000000000000166,-26.562270695782466134
0.375000000000000167,-26.414127180254808991
0.376000000000000167,-26.268291800709590689
0.377000000000000168,-26.124683414941920034
0.378000000000000169,-25.983221788602396174
0.379000000000000170,-25.843827695079095719
0.380000000000000171,-25.706423007903630662
0.381000000000000172,-25.570930785912324268
0.382000000000000173,-25.437275351397111933
0.383000000000000174,-25.305382361484237919
0.384000000000000175,-25.175178872980833233
0.385000000000000175,-25.046593400930721174
0.386000000000000176,-24.919555971121422289
0.387000000000000177,-24.793998166783900672
0.388000000000000178,-24.669853169725591613
0.389000000000000179,-24.547055796135914818
0.390000000000000180,-24.425542527300827089
0.391000000000000181,-24.305251535460833168
0.392000000000000182,-24.186122705043114678
0.393000000000000183,-24.068097649495356904
0.394000000000000183,-23.951119723944351847
0.395000000000000184,-23.835134033898604855
0.396000000000000185,-23.720087440209294272
0.397000000000000186,-23.605928560498828261
0.398000000000000187,-23.492607767261841190
0.399000000000000188,-23.380077182837212035
0.400000000000000189,-23.268290671445065243
0.401000000000000190,-23.157203828476607299
0.402000000000000191,-23.046773967219159829
0.403000000000000191,-22.936960103192880922
0.404000000000000192,-22.827722936269989162
0.405000000000000193,-22.719024830741158638
0.406000000000000194,-22.610829793488100847
0.407000000000000195,-22.503103450415494535
0.408000000000000196,-22.395813021289331601
0.409000000000000197,-22.288927293123109052
0.410000000000000198,-22.182416592247573561
0.411000000000000199,-22.076252755193799260
0.412000000000000199,-21.970409098513886903
0.413000000000000200,-21.864860387658175966
0.414000000000000201,-21.759582805021977947
0.415000000000000202,-21.654553917269872443
0.416000000000000203,-21.549752642040324702
0.417000000000000204,-21.445159214127915703
0.418000000000000205,-21.340755151235896392
0.419000000000000206,-21.236523219386622685
0.420000000000000207,-21.132447398072663702
0.421000000000000207,-21.028512845227020023
0.422000000000000208,-20.924705862085865249
0.423000000000000209,-20.821013858013575515
0.424000000000000210,-20.717425315354851989
0.425000000000000211,-20.613929754375241998
0.426000000000000212,-20.510517698347072724
0.427000000000000213,-20.407180638834031328
0.428000000000000214,-20.303911001224300037
0.429000000000000214,-20.200702110558012237
0.430000000000000215,-20.097548157691896620
0.431000000000000216,-19.994444165840640437
0.432000000000000217,-19.891385957530992812
0.433000000000000218,-19.788370122002181262
0.434000000000000219,-19.685393983082839497
0.435000000000000220,-19.582455567572335298
0.436000000000000221,-19.479553574151253770
0.437000000000000222,-19.376687342843862183
0.438000000000000222,-19.273856825052469333
0.439000000000000223,-19.171062554181709459
0.440000000000000224,-19.068305616868379104
0.441000000000000225,-18.965587624830487101
0.442000000000000226,-18.862910687347326899
0.443000000000000227,-18.760277384380248833
0.444000000000000228,-18.657690740342580682
0.445000000000000229,-18.555154198524810738
0.446000000000000230,-18.452671596180312719
0.447000000000000230,-18.350247140274802859
0.448000000000000231,-18.247885383901948586
0.449000000000000232,-18.145591203365576405
0.450000000000000233,-18.043369775928457699
0.451000000000000234,-17.941226558225899623
0.452000000000000235,-17.839167265341703938
0.453000000000000236,-17.737197850542855804
0.454000000000000237,-17.635324485668640193
0.455000000000000238,-17.533553542168640149
0.456000000000000238,-17.431891572783818845
0.457000000000000239,-17.330345293863594236
0.458000000000000240,-17.228921568311765355
0.459000000000000241,-17.127627389152799253
0.460000000000000242,-17.026469863710367747
0.461000000000000243,-16.925456198388530993
0.462000000000000244,-16.824593684046373454
0.463000000000000245,-16.723889681955817821
0.464000000000000246,-16.623351610332441908
0.465000000000000246,-16.522986931428654600
0.466000000000000247,-16.422803139178089538
0.467000000000000248,-16.322807747380178256
0.468000000000000249,-16.223008278413537653
0.469000000000000250,-16.123412252466344796
0.470000000000000251,-16.024027177272280653
0.471000000000000252,-15.924860538339837390
0.472000000000000253,-15.825919789663476678
0.473000000000000254,-15.727212344904177854
0.474000000000000254,-15.628745569027667983
0.475000000000000255,-15.530526770388130231
0.476000000000000256,-15.432563193245368183
0.477000000000000257,-15.334862010703378843
0.478000000000000258,-15.237430318058367007
0.479000000000000259,-15.140275126544258555
0.480000000000000260,-15.043403357463935421
0.481000000000000261,-14.946821836694264007
0.482000000000000262,-14.850537289553471965
0.483000000000000262,-14.754556336019248874
0.484000000000000263,-14.658885486286095556
0.485000000000000264,-14.563531136650814446
0.486000000000000265,-14.468499565714893151
0.487000000000000266,-14.373796930892954293
0.488000000000000267,-14.279429265216274203
0.489000000000000268,-14.185402474421101360
0.490000000000000269,-14.091722334310929909
0.491000000000000270,-13.998394488382867706
0.492000000000000270,-13.905424445707723180
0.493000000000000271,-13.812817579054197381
0.494000000000000272,-13.720579123247379272
0.495000000000000273,-13.628714173752049632
0.496000000000000274,-13.537227685471739491
0.497000000000000275,-13.446124471754250962
0.498000000000000276,-13.355409203594920342
0.499000000000000277,-13.265086409029024139
0.500000000000000222,-13.175160472704799730
0.501000000000000334,-13.085635635628927176
0.502000000000000224,-12.996515995076535432
0.503000000000000336,-12.907805504657693163
0.504000000000000226,-12.819507974533227213
0.505000000000000338,-12.731627071771896453
0.506000000000000227,-12.644166320842474605
0.507000000000000339,-12.557129104233005989
0.508000000000000229,-12.470518663191141329
0.509000000000000341,-12.384338098578485443
0.510000000000000231,-12.298590371833011403
0.511000000000000343,-12.213278306032950837
0.512000000000000233,-12.128404587056621722
0.513000000000000345,-12.043971764831963966
0.514000000000000234,-11.959982254670695312
0.515000000000000346,-11.876438338681097662
0.516000000000000236,-11.793342167254838415
0.517000000000000348,-11.710695760622137129
0.518000000000000238,-11.628501010471069321
0.519000000000000350,-11.546759681625625049
0.520000000000000240,-11.465473413778664025
0.521000000000000352,-11.384643723274832539
0.522000000000000242,-11.304272004939711849
0.523000000000000353,-11.224359533950739376
0.524000000000000243,-11.144907467746438812
0.525000000000000355,-11.065916847969818448
0.526000000000000245,-10.987388602442763386
0.527000000000000357,-10.909323547167529611
0.528000000000000247,-10.831722388352577724
0.529000000000000359,-10.754585724459060359
0.530000000000000249,-10.677914048265362723
0.531000000000000361,-10.601707748946470389
0.532000000000000250,-10.525967114165759142
0.533000000000000362,-10.450692332176162225
0.534000000000000252,-10.375883493928579782
0.535000000000000364,-10.301540595184789595
0.536000000000000254,-10.227663538632951301
0.537000000000000366,-10.154252136003018236
0.538000000000000256,-10.081306110180616287
0.539000000000000368,-10.008825097316751851
0.540000000000000258,-9.936808648932190735
0.541000000000000369,-9.865256234013960679
0.542000000000000259,-9.794167241103121313
0.543000000000000371,-9.723540980371490505
0.544000000000000261,-9.653376685686406944
0.545000000000000373,-9.583673516661672664
0.546000000000000263,-9.514430560693801553
0.547000000000000375,-9.445646834981758388
0.548000000000000265,-9.377321288529747889
0.549000000000000377,-9.309452804131186809
0.550000000000000266,-9.242040200333502042
0.551000000000000378,-9.175082233382328312
0.552000000000000268,-9.108577599144579651
0.553000000000000380,-9.042524935009224052
0.554000000000000270,-8.976922821765393579
0.555000000000000382,-8.911769785456693072
0.556000000000000272,-8.847064299211572447
0.557000000000000384,-8.782804785048597296
0.558000000000000274,-8.718989615656690617
0.559000000000000385,-8.655617116149283419
0.560000000000000275,-8.592685565792461233
0.561000000000000387,-8.530193199706269880
0.562000000000000277,-8.468138210539194688
0.563000000000000389,-8.406518750115232308
0.564000000000000279,-8.345332931053530245
0.565000000000000391,-8.284578828360151803
0.566000000000000281,-8.224254480992010841
0.567000000000000393,-8.164357893392541143
0.568000000000000282,-8.104887036999373962
0.569000000000000394,-8.045839851723451730
0.570000000000000284,-7.987214247400058476
0.571000000000000396,-7.929008105211214463
0.572000000000000286,-7.871219279079968878
0.573000000000000398,-7.813845597036087831
0.574000000000000288,-7.756884862553647508
0.575000000000000400,-7.700334855860316630
0.576000000000000290,-7.644193335218614216
0.577000000000000401,-7.588458038179072496
0.578000000000000291,-7.533126682805699303
0.579000000000000403,-7.478196968873615624
0.580000000000000293,-7.423666579039337243
0.581000000000000405,-7.369533179983585924
0.582000000000000295,-7.315794423527205659
0.583000000000000407,-7.262447947719998353
0.584000000000000297,-7.209491377903118448
0.585000000000000409,-7.156922327744919876
0.586000000000000298,-7.104738400250889541
0.587000000000000410,-7.052937188747496755
0.588000000000000300,-7.001516277840752700
0.589000000000000412,-6.950473244349263169
0.590000000000000302,-6.899805658212544657
0.591000000000000414,-6.849511083374506093
0.592000000000000304,-6.799587078642780114
0.593000000000000416,-6.750031198523902098
0.594000000000000306,-6.700840994034926723
0.595000000000000417,-6.652014013491649891
0.596000000000000307,-6.603547803273893457
0.597000000000000419,-6.555439908568066798
0.598000000000000309,-6.507687874087528357
0.599000000000000421,-6.460289244770902606
0.600000000000000311,-6.413241566458912857
0.601000000000000423,-6.366542386549849830
0.602000000000000313,-6.320189254634351883
0.603000000000000425,-6.274179723109435614
0.604000000000000314,-6.228511347772634821
0.605000000000000426,-6.183181688396092390
0.606000000000000316,-6.138188309281489730
0.607000000000000428,-6.093528779795622796
0.608000000000000318,-6.049200674887570628
0.609000000000000430,-6.005201575587269858
0.610000000000000320,-5.961529069486298127
0.611000000000000432,-5.918180751200869949
0.612000000000000322,-5.875154222817736027
0.613000000000000433,-5.832447094323006453
0.614000000000000323,-5.790056984014555042
0.615000000000000435,-5.747981518898108710
0.616000000000000325,-5.706218335067565484
0.617000000000000437,-5.664765078069733839
0.618000000000000327,-5.623619403253963256
0.619000000000000439,-5.582778976106870239
0.620000000000000329,-5.542241472572667860
0.621000000000000441,-5.502004579359241809
0.622000000000000330,-5.462065994230497878
0.623000000000000442,-5.422423426285087444
0.624000000000000332,-5.383074596222095387
0.625000000000000444,-5.344017236593734843
0.626000000000000334,-5.305249092045619008
0.627000000000000446,-5.266767919544698806
0.628000000000000336,-5.228571488595363803
0.629000000000000448,-5.190657581443834268
0.630000000000000338,-5.153023993271354186
0.631000000000000449,-5.115668532376192346
0.632000000000000339,-5.078589020345097182
0.633000000000000451,-5.041783292214121914
0.634000000000000341,-5.005249196619443453
0.635000000000000453,-4.968984595938151116
0.636000000000000343,-4.932987366419538056
0.637000000000000455,-4.897255398306951335
0.638000000000000345,-4.861786595950655432
0.639000000000000457,-4.826578877911744669
0.640000000000000346,-4.791630177057649043
0.641000000000000458,-4.756938440649162381
0.642000000000000348,-4.722501630419548846
0.643000000000000460,-4.688317722645672703
0.644000000000000350,-4.654384708211701138
0.645000000000000462,-4.620700592665285100
0.646000000000000352,-4.587263396266773263
0.647000000000000464,-4.554071154031353430
0.648000000000000353,-4.521121915764696908
0.649000000000000465,-4.488413746091930001
0.650000000000000355,-4.455944724480564112
0.651000000000000467,-4.423712945257173068
0.652000000000000357,-4.391716517618395876
0.653000000000000469,-4.359953565636125461
0.654000000000000359,-4.328422228257426951
0.655000000000000471,-4.297120659299006107
