# Polypropylene-R10-GAFF_PRO-AC
# h[nm],U(h)[kJ/mol]
0.149999999999999994,134.537494046500938794
0.150999999999999995,133.840335362751318371
0.151999999999999996,132.373331567599677783
0.152999999999999997,130.777478358858815000
0.153999999999999998,129.276227471435987582
0.154999999999999999,127.900867595817572919
0.156000000000000000,126.610815794323656291
0.157000000000000001,125.352494357664269842
0.158000000000000002,124.083893193747485384
0.159000000000000002,122.781197546190895764
0.160000000000000003,121.437040982857482163
0.161000000000000004,120.055693911659886908
0.162000000000000005,118.647919602712860865
0.163000000000000006,117.226720923867560487
0.164000000000000007,115.804362838812792802
0.165000000000000008,114.390627123811214005
0.166000000000000009,112.992068504938146134
0.167000000000000010,111.611989174377484346
0.168000000000000010,110.250865875726574927
0.169000000000000011,108.907011416003086879
0.170000000000000012,107.577308432193532894
0.171000000000000013,106.257905914297339223
0.172000000000000014,104.944813129330754009
0.173000000000000015,103.634359639962895017
0.174000000000000016,102.323514482965634897
0.175000000000000017,101.010073618685140673
0.176000000000000018,99.692734158481783879
0.177000000000000018,98.371078280084645939
0.178000000000000019,97.045490620420608252
0.179000000000000020,95.717031504868430147
0.180000000000000021,94.387285578844029033
0.181000000000000022,93.058201956322690762
0.182000000000000023,91.731938386779148686
0.183000000000000024,90.410718495425413721
0.184000000000000025,89.096708069854912537
0.185000000000000026,87.791913751082489625
0.186000000000000026,86.498105371871588432
0.187000000000000027,85.216761557551308215
0.188000000000000028,83.949037022962798460
0.189000000000000029,82.695749206705301049
0.190000000000000030,81.457381416916376793
0.191000000000000031,80.234099457678695444
0.192000000000000032,79.025778701938762083
0.193000000000000033,77.832038721966057437
0.194000000000000034,76.652282835731838873
0.195000000000000034,75.485740238744909902
0.196000000000000035,74.331508734945686001
0.197000000000000036,73.188596433217924186
0.198000000000000037,72.055961119998045206
0.199000000000000038,70.932546340640072913
0.200000000000000039,69.817313514251353013
0.201000000000000040,68.709269663773440584
0.202000000000000041,67.607490563022764718
0.203000000000000042,66.511139285182977687
0.204000000000000042,65.419480284335122633
0.205000000000000043,64.331889255551217843
0.206000000000000044,63.247859103049748342
0.207000000000000045,62.167002403472871208
0.208000000000000046,61.089050786174212249
0.209000000000000047,60.013851668132247141
0.210000000000000048,58.941362781191472209
0.211000000000000049,57.871644916980109485
0.212000000000000050,56.804853292955371558
0.213000000000000050,55.741227914146278977
0.214000000000000051,54.681083271512683552
0.215000000000000052,53.624797681303775221
0.216000000000000053,52.572802531942969040
0.217000000000000054,51.525571667058407854
0.218000000000000055,50.483611096326875156
0.219000000000000056,49.447449190571148847
0.220000000000000057,48.417627484607429267
0.221000000000000058,47.394692181073956760
0.222000000000000058,46.379186421112969185
0.223000000000000059,45.371643363450445463
0.224000000000000060,44.372580092131741480
0.225000000000000061,43.382492354866506901
0.226000000000000062,42.401850118491850594
0.227000000000000063,41.431093915309347153
0.228000000000000064,40.470631943797116037
0.229000000000000065,39.520837879218618127
0.230000000000000066,38.582049343727724988
0.231000000000000066,37.654566981466629727
0.232000000000000067,36.738654081648874694
0.233000000000000068,35.834536691494044192
0.234000000000000069,34.942404160924930068
0.235000000000000070,34.062410061961045926
0.236000000000000071,33.194673427565135171
0.237000000000000072,32.339280257156524101
0.238000000000000073,31.496285238956630792
0.239000000000000073,30.665713642643300574
0.240000000000000074,29.847563339347960465
0.241000000000000075,29.041806909739459996
0.242000000000000076,28.248393804709330368
0.243000000000000077,27.467252526939255119
0.244000000000000078,26.698292805331885091
0.245000000000000079,25.941407737871578831
0.246000000000000080,25.196475881917784534
0.247000000000000081,24.463363274186281870
0.248000000000000081,23.741925365725855102
0.249000000000000082,23.032008860033052144
0.250000000000000111,22.333453445055994280
0.251000000000000112,21.646093412218395002
0.252000000000000113,20.969759157743801836
0.253000000000000114,20.304278563486175102
0.254000000000000115,19.649478256176486468
0.255000000000000115,19.005184745491042975
0.256000000000000116,18.371225442641097914
0.257000000000000117,17.747429562289532612
0.258000000000000118,17.133628911531197048
0.259000000000000119,16.529658570439860199
0.260000000000000120,15.935357469302340760
0.261000000000000121,15.350568868141442280
0.262000000000000122,14.775140744486202848
0.263000000000000123,14.208926095595231232
0.264000000000000123,13.651783161486443774
0.265000000000000124,13.103575575188326496
0.266000000000000125,12.564172446613277145
0.267000000000000126,12.033448386374191230
0.268000000000000127,11.511283475729452874
0.269000000000000128,10.997563188660214095
0.270000000000000129,10.492178271862783845
0.271000000000000130,9.995024588186941727
0.272000000000000131,9.506002928775810545
0.273000000000000131,9.025018798867913361
0.274000000000000132,8.551982181915821712
0.275000000000000133,8.086807286360492952
0.276000000000000134,7.629412279081781989
0.277000000000000135,7.179719009227651050
0.278000000000000136,6.737652725808388254
0.279000000000000137,6.303141792132843868
0.280000000000000138,5.876117399862560653
0.281000000000000139,5.456513285167555516
0.282000000000000139,5.044265449188171324
0.283000000000000140,4.639311884739674596
0.284000000000000141,4.241592310943028465
0.285000000000000142,3.851047917225699280
0.286000000000000143,3.467621117911717565
0.287000000000000144,3.091255318410740305
0.288000000000000145,2.721894693820491540
0.289000000000000146,2.359483980578066742
0.290000000000000147,2.003968281629235459
0.291000000000000147,1.655292885435047934
0.292000000000000148,1.313403098997032004
0.293000000000000149,0.978244094959719868
0.294000000000000150,0.649760772737600356
0.295000000000000151,0.327897633515833842
0.296000000000000152,0.012598668886659148
0.297000000000000153,-0.296192737191782407
0.298000000000000154,-0.598533893493637947
0.299000000000000155,-0.894482874115333670
0.300000000000000155,-1.184098579039350785
0.301000000000000156,-1.467440783191896525
0.302000000000000157,-1.744570174546112185
0.303000000000000158,-2.015548381845447157
0.304000000000000159,-2.280437992539846803
0.305000000000000160,-2.539302561538521186
0.306000000000000161,-2.792206611389433046
0.307000000000000162,-3.039215624497161095
0.308000000000000163,-3.280396027987869445
0.309000000000000163,-3.515815171823649443
0.310000000000000164,-3.745541300758786996
0.311000000000000165,-3.969643520717532681
0.312000000000000166,-4.188191760158085586
0.313000000000000167,-4.401256726969860367
0.314000000000000168,-4.608909861432240795
0.315000000000000169,-4.811223285742386224
0.316000000000000170,-5.008269750598051573
0.317000000000000171,-5.200122579298591674
0.318000000000000171,-5.386855609804086065
0.319000000000000172,-5.568543135169091052
0.320000000000000173,-5.745259842742994394
0.321000000000000174,-5.917080752505371244
0.322000000000000175,-6.084081154880569997
0.323000000000000176,-6.246336548351984597
0.324000000000000177,-6.403922577173228881
0.325000000000000178,-6.556914969450106767
0.326000000000000179,-6.705389475845464631
0.327000000000000179,-6.849421809136520878
0.328000000000000180,-6.989087584833646005
0.329000000000000181,-7.124462263049086808
0.330000000000000182,-7.255621091784256294
0.331000000000000183,-7.382639051786019202
0.332000000000000184,-7.505590803103784125
0.333000000000000185,-7.624550633462703786
0.334000000000000186,-7.739592408551787983
0.335000000000000187,-7.850789524310487266
0.336000000000000187,-7.958214861283030572
0.337000000000000188,-8.061940741095774854
0.338000000000000189,-8.162038885100695751
0.339000000000000190,-8.258580375215910152
0.340000000000000191,-8.351635616983053012
0.341000000000000192,-8.441274304851338783
0.342000000000000193,-8.527565389688481545
0.343000000000000194,-8.610577048510169362
0.344000000000000195,-8.690376656411372025
0.345000000000000195,-8.767030760676282952
0.346000000000000196,-8.840605057036270864
0.347000000000000197,-8.911164368039919736
0.348000000000000198,-8.978772623493606275
0.349000000000000199,-9.043492842926443842
0.350000000000000200,-9.105387120029261538
0.351000000000000201,-9.164516609013629633
0.352000000000000202,-9.220941512833732645
0.353000000000000203,-9.274721073211392053
0.354000000000000203,-9.325913562402217138
0.355000000000000204,-9.374576276638860506
0.356000000000000205,-9.420765531186216180
0.357000000000000206,-9.464536656942334147
0.358000000000000207,-9.505943998517537352
0.359000000000000208,-9.545040913724555764
0.360000000000000209,-9.581879774411762085
0.361000000000000210,-9.616511968571904490
0.362000000000000210,-9.648987903659088872
0.363000000000000211,-9.679357011047176940
0.364000000000000212,-9.707667751563693770
0.365000000000000213,-9.733967622034116474
0.366000000000000214,-9.758303162772559602
0.367000000000000215,-9.780719965956034656
0.368000000000000216,-9.801262684820926552
0.369000000000000217,-9.819975043621649746
0.370000000000000218,-9.836899848293102266
0.371000000000000218,-9.852078997760026269
0.372000000000000219,-9.865553495838275566
0.373000000000000220,-9.877363463674617705
0.374000000000000221,-9.887548152673538482
0.375000000000000222,-9.896145957861193665
0.376000000000000223,-9.903194431638969064
0.377000000000000224,-9.908730297880447679
0.378000000000000225,-9.912789466327767585
0.379000000000000226,-9.915407047245230032
0.380000000000000226,-9.916617366289958824
0.381000000000000227,-9.916453979560937881
0.382000000000000228,-9.914949688790251514
0.383000000000000229,-9.912136556641522489
0.384000000000000230,-9.908045922082781232
0.385000000000000231,-9.902708415802736752
0.386000000000000232,-9.896153975640924472
0.387000000000000233,-9.888411862004344854
0.388000000000000234,-9.879510673244331187
0.389000000000000234,-9.869478360969655029
0.390000000000000235,-9.858342245272870841
0.391000000000000236,-9.846129029848913916
0.392000000000000237,-9.832864816986132794
0.393000000000000238,-9.818575122411640876
0.394000000000000239,-9.803284889974047900
0.395000000000000240,-9.787018506148218222
0.396000000000000241,-9.769799814347823741
0.397000000000000242,-9.751652129032720495
0.398000000000000242,-9.732598249599622164
0.399000000000000243,-9.712660474045289760
0.400000000000000244,-9.691860612392961372
0.401000000000000245,-9.670219999873580718
0.402000000000000246,-9.647759509854363813
0.403000000000000247,-9.624499566508390558
0.404000000000000248,-9.600460157219632862
0.405000000000000249,-9.575660844718816733
0.406000000000000250,-9.550120778946237010
0.407000000000000250,-9.523858708638517356
0.408000000000000251,-9.496892992636997377
0.409000000000000252,-9.469241610916105500
0.410000000000000253,-9.440922175330722865
0.411000000000000254,-9.411951940082234458
0.412000000000000255,-9.382347811903393620
0.413000000000000256,-9.352126359962841917
0.414000000000000257,-9.321303825490357298
0.415000000000000258,-9.289896131124795176
0.416000000000000258,-9.257918889986527233
0.417000000000000259,-9.225387414477225434
0.418000000000000260,-9.192316724809648676
0.419000000000000261,-9.158721557270810720
0.420000000000000262,-9.124616372221973748
0.421000000000000263,-9.090015361839437702
0.422000000000000264,-9.054932457599942808
0.423000000000000265,-9.019381337515273600
0.424000000000000266,-8.983375433120437847
0.425000000000000266,-8.946927936220070876
0.426000000000000267,-8.910051805398044422
0.427000000000000268,-8.872759772295186309
0.428000000000000269,-8.835064347660260609
0.429000000000000270,-8.796977827179464526
0.430000000000000271,-8.758512297089652066
0.431000000000000272,-8.719679639580823149
0.432000000000000273,-8.680491537993123785
0.433000000000000274,-8.640959481814013188
0.434000000000000274,-8.601094771480941148
0.435000000000000275,-8.560908522995159586
0.436000000000000276,-8.520411672352139476
0.437000000000000277,-8.479614979794089180
0.438000000000000278,-8.438529033890061370
0.439000000000000279,-8.397164255449167669
0.440000000000000280,-8.355530901272192779
0.441000000000000281,-8.313639067747097045
0.442000000000000282,-8.271498694293708098
0.443000000000000282,-8.229119566662740581
0.444000000000000283,-8.186511320094528088
0.445000000000000284,-8.143683442342410927
0.446000000000000285,-8.100645276565854758
0.447000000000000286,-8.057406024098396458
0.448000000000000287,-8.013974747095019779
0.449000000000000288,-7.970360371064019844
0.450000000000000289,-7.926571687287792045
0.451000000000000290,-7.882617355137287340
0.452000000000000290,-7.838505904284597925
0.453000000000000291,-7.794245736817917880
0.454000000000000292,-7.749845129263384536
0.455000000000000293,-7.705312234517729841
0.456000000000000294,-7.660655083695990797
0.457000000000000295,-7.615881587898162941
0.458000000000000296,-7.570999539898572550
0.459000000000000297,-7.526016615761898620
0.460000000000000298,-7.480940376389217938
0.461000000000000298,-7.435778268997862206
0.462000000000000299,-7.390537628538297099
0.463000000000000300,-7.345225679051395673
0.464000000000000301,-7.299849534969341747
0.465000000000000302,-7.254416202363256794
0.466000000000000303,-7.208932580140398727
0.467000000000000304,-7.163405461194034096
0.468000000000000305,-7.117841533508586060
0.469000000000000306,-7.072247381222790175
0.470000000000000306,-7.026629485653520746
0.471000000000000307,-6.980994226282578374
0.472000000000000308,-6.935347881709032158
0.473000000000000309,-6.889696630569237534
0.474000000000000310,-6.844046552426840790
0.475000000000000311,-6.798403628634725138
0.476000000000000312,-6.752773743171164078
0.477000000000000313,-6.707162683451782570
0.478000000000000314,-6.661576141119425643
0.479000000000000314,-6.616019712813580256
0.480000000000000315,-6.570498900920989982
0.481000000000000316,-6.525019114309186463
0.482000000000000317,-6.479585669044278795
0.483000000000000318,-6.434203789094601333
0.484000000000000319,-6.388878607021474920
0.485000000000000320,-6.343615164658458205
0.486000000000000321,-6.298418413780252578
0.487000000000000322,-6.253293216762491724
0.488000000000000322,-6.208244347233359051
0.489000000000000323,-6.163276490718326173
0.490000000000000324,-6.118394245278720334
0.491000000000000325,-6.073602122145198123
0.492000000000000326,-6.028904546346873339
0.493000000000000327,-5.984305857337022694
0.494000000000000328,-5.939810309615991102
0.495000000000000329,-5.895422073352092340
0.496000000000000330,-5.851145235001058431
0.497000000000000330,-5.806983797924774926
0.498000000000000331,-5.762941683009635163
0.499000000000000332,-5.719022729285316409
0.500000000000000333,-5.675230694544207033
0.501000000000000334,-5.631569255961967002
0.502000000000000335,-5.588042010719730612
0.503000000000000336,-5.544652476628142423
0.504000000000000337,-5.501404092753679365
0.505000000000000338,-5.458300220047421547
0.506000000000000338,-5.415344141976654591
0.507000000000000339,-5.372539065159405602
0.508000000000000340,-5.329888120002136631
0.509000000000000341,-5.287394361340895799
0.510000000000000342,-5.245060769085795549
0.511000000000000343,-5.202890248869216805
0.512000000000000344,-5.160885632697592484
0.513000000000000345,-5.119049679606990644
0.514000000000000346,-5.077385076322523894
0.515000000000000346,-5.035894437921504263
0.516000000000000347,-4.994580308500451871
0.517000000000000348,-4.953445161845982270
0.518000000000000349,-4.912491402109351313
0.519000000000000350,-4.871721364484878691
0.520000000000000351,-4.831137315891919748
0.521000000000000352,-4.790741455660583625
0.522000000000000353,-4.750535916220869126
0.523000000000000353,-4.710522763795236934
0.524000000000000354,-4.670703999094577341
0.525000000000000355,-4.631081558017283939
0.526000000000000356,-4.591657312351420828
0.527000000000000357,-4.552433070479874999
0.528000000000000358,-4.513410578088173253
0.529000000000000359,-4.474591518875086216
0.530000000000000360,-4.435977515265555837
0.531000000000000361,-4.397570129126032512
0.532000000000000361,-4.359370862481886988
0.533000000000000362,-4.321381158236819786
0.534000000000000363,-4.283602400894021223
0.535000000000000364,-4.246035917278950578
0.536000000000000365,-4.208682977263499936
0.537000000000000366,-4.171544794491420127
0.538000000000000367,-4.134622527104687251
0.539000000000000368,-4.097917278470839975
0.540000000000000369,-4.061430097910796455
0.541000000000000369,-4.025161981427276991
0.542000000000000370,-3.989113872433339480
0.543000000000000371,-3.953286662481045877
0.544000000000000372,-3.917681191989959011
0.545000000000000373,-3.882298250975320997
0.546000000000000374,-3.847138579775651657
0.547000000000000375,-3.812202869779656389
0.548000000000000376,-3.777491764152217435
0.549000000000000377,-3.743005858559254939
0.550000000000000377,-3.708745701891291269
0.551000000000000378,-3.674711796985525414
0.552000000000000379,-3.640904601346260705
0.553000000000000380,-3.607324527863451813
0.554000000000000381,-3.573971945529199612
0.555000000000000382,-3.540847180152129514
0.556000000000000383,-3.507950515069237607
0.557000000000000384,-3.475282191855338709
0.558000000000000385,-3.442842411029666927
0.559000000000000385,-3.410631332759668233
0.560000000000000386,-3.378649077561713288
0.561000000000000387,-3.346895726998615483
0.562000000000000388,-3.315371324373781903
0.563000000000000389,-3.284075875421875512
0.564000000000000390,-3.253009348995805627
0.565000000000000391,-3.222171677749932517
0.566000000000000392,-3.191562758819324497
0.567000000000000393,-3.161182454494986249
0.568000000000000393,-3.131030592894833653
0.569000000000000394,-3.101106968630369387
0.570000000000000395,-3.071411343468936739
0.571000000000000396,-3.041943446991338451
0.572000000000000397,-3.012702977244861913
0.573000000000000398,-2.983689601391430024
0.574000000000000399,-2.954902956350928811
0.575000000000000400,-2.926342649439467980
0.576000000000000401,-2.898008259002574416
0.577000000000000401,-2.869899335043223143
0.578000000000000402,-2.842015399844532109
0.579000000000000403,-2.814355948587088818
0.580000000000000404,-2.786920449960895496
0.581000000000000405,-2.759708346771687193
0.582000000000000406,-2.732719056541729863
0.583000000000000407,-2.705951972104869707
0.584000000000000408,-2.679406462195895067
0.585000000000000409,-2.653081872034069644
0.586000000000000409,-2.626977523900778877
0.587000000000000410,-2.601092717711309454
0.588000000000000411,-2.575426731580576334
0.589000000000000412,-2.549978822382915844
0.590000000000000413,-2.524748226305722376
0.591000000000000414,-2.499734159397029920
0.592000000000000415,-2.474935818106943408
0.593000000000000416,-2.450352379822846594
0.594000000000000417,-2.425983003398395788
0.595000000000000417,-2.401826829676369179
0.596000000000000418,-2.377882982005050216
0.597000000000000419,-2.354150566748532292
0.598000000000000420,-2.330628673790525074
0.599000000000000421,-2.307316377031962240
0.600000000000000422,-2.284212734882190343
0.601000000000000423,-2.261316790743824079
0.602000000000000424,-2.238627573491245304
0.603000000000000425,-2.216144097942718272
0.604000000000000425,-2.193865365326145511
0.605000000000000426,-2.171790363738417717
0.606000000000000427,-2.149918068598481558
0.607000000000000428,-2.128247443093875368
0.608000000000000429,-2.106777438621125320
0.609000000000000430,-2.085506995219558402
0.610000000000000431,-2.064435041998973652
0.611000000000000432,-2.043560497560875433
0.612000000000000433,-2.022882270413393968
