# Polypropylene-R10-GAFF_AMAN-JS
# h[nm],U(h)[kJ/mol]
0.149999999999999994,156.689356388465398595
0.150999999999999995,155.686554555460332949
0.151999999999999996,153.749256902231422828
0.152999999999999997,151.754033316108291274
0.153999999999999998,149.956862749653396349
0.154999999999999999,148.349024360834988556
0.156000000000000000,146.839166218868570013
0.157000000000000001,145.336525396332206128
0.158000000000000002,143.780933596776606009
0.159000000000000002,142.146538196269659693
0.160000000000000003,140.434470105543169893
0.161000000000000004,138.662548870842726956
0.162000000000000005,136.855894471843299698
0.163000000000000006,135.039930169731206888
0.164000000000000007,133.236002256896455265
0.165000000000000008,131.459253432101718317
0.166000000000000009,129.718177344699654441
0.167000000000000010,128.015273654470433939
0.168000000000000010,126.348308492028792216
0.169000000000000011,124.711802995221702872
0.170000000000000012,123.098489722748851705
0.171000000000000013,121.500577605517747770
0.172000000000000014,119.910745157388220150
0.173000000000000015,118.322838897692577120
0.174000000000000016,116.732291997776158610
0.175000000000000017,115.136300742636464634
0.176000000000000018,113.533807286646691637
0.177000000000000018,111.925339795296167722
0.178000000000000019,110.312758245118359923
0.179000000000000020,108.698948128420170178
0.180000000000000021,107.087496732285032408
0.181000000000000022,105.482378695446300298
0.182000000000000023,103.887669956966831819
0.183000000000000024,102.307302454816834825
0.184000000000000025,100.744866240934626944
0.185000000000000026,99.203461122746517731
0.186000000000000026,97.685596483561809578
0.187000000000000027,96.193135474655747430
0.188000000000000028,94.727278174300550972
0.189000000000000029,93.288577424360610735
0.190000000000000030,91.876980735564657721
0.191000000000000031,90.491891761007934747
0.192000000000000032,89.132245252430934102
0.193000000000000033,87.796590032125010339
0.194000000000000034,86.483175250253424338
0.195000000000000034,85.190035985923259432
0.196000000000000035,83.915075039490744757
0.197000000000000036,82.656138516286219442
0.198000000000000037,81.411083492935944150
0.199000000000000038,80.177836671120900291
0.200000000000000039,78.954443451975762969
0.201000000000000040,77.739107305305878981
0.202000000000000041,76.530219663629495130
0.203000000000000042,75.326380847033618693
0.204000000000000042,74.126412728234299720
0.205000000000000043,72.929363986478563220
0.206000000000000044,71.734508882911740102
0.207000000000000045,70.541340527653161985
0.208000000000000046,69.349559608607563632
0.209000000000000047,68.159059521909199475
0.210000000000000048,66.969908791020657191
0.211000000000000049,65.782331592225276040
0.212000000000000050,64.596687124019950943
0.213000000000000050,63.413448471371054893
0.214000000000000051,62.233181526739016931
0.215000000000000052,61.056524441289866445
0.216000000000000053,59.884167994183300721
0.217000000000000054,58.716837187061479142
0.218000000000000055,57.555274296144219193
0.219000000000000056,56.400223546511071504
0.220000000000000057,55.252417512694549373
0.221000000000000058,54.112565296805563264
0.222000000000000058,52.981342489993458855
0.223000000000000059,51.859382884871898511
0.224000000000000060,50.747271875225933968
0.225000000000000061,49.645541454376079571
0.226000000000000062,48.554666704463038229
0.227000000000000063,47.475063655044955624
0.228000000000000064,46.407088380174009501
0.229000000000000065,45.351037197938140366
0.230000000000000066,44.307147834748846549
0.231000000000000066,43.275601417870959153
0.232000000000000067,42.256525163318215732
0.233000000000000068,41.249995631804679874
0.234000000000000069,40.256042432519365093
0.235000000000000070,39.274652262697308913
0.236000000000000071,38.305773179956460694
0.237000000000000072,37.349319013859549443
0.238000000000000073,36.405173832892508301
0.239000000000000073,35.473196392813555633
0.240000000000000074,34.553224501934025170
0.241000000000000075,33.645079248211075651
0.242000000000000076,32.748569041937145130
0.243000000000000077,31.863493436220721833
0.244000000000000078,30.989646695300343993
0.245000000000000079,30.126821087974878566
0.246000000000000080,29.274809890044156901
0.247000000000000081,28.433410085619605923
0.248000000000000081,27.602424762490763044
0.249000000000000082,26.781665201429653678
0.250000000000000111,25.970952663401629223
0.251000000000000112,25.170119882155439939
0.252000000000000113,24.379012272618506785
0.253000000000000114,23.597488867963146930
0.254000000000000115,22.825423000168605370
0.255000000000000115,22.062702740428129289
0.256000000000000116,21.309231116873409206
0.257000000000000117,20.564926127854292304
0.258000000000000118,19.829720569457290225
0.259000000000000119,19.103561696108329215
0.260000000000000120,18.386410733020763786
0.261000000000000121,17.678242258953435595
0.262000000000000122,16.979043477264688988
0.263000000000000123,16.288813392620472342
0.264000000000000123,15.607561909961125579
0.265000000000000124,14.935308871481009163
0.266000000000000125,14.272083046447779253
0.267000000000000126,13.617921087706438499
0.268000000000000127,12.972866467693211945
0.269000000000000128,12.336968405745503574
0.270000000000000129,11.710280797447330414
0.271000000000000130,11.092861155708623855
0.272000000000000131,10.484769572253513914
0.273000000000000131,9.886067707193152643
0.274000000000000132,9.296817813393232655
0.275000000000000133,8.717081801418824938
0.276000000000000134,8.146920349955696139
0.277000000000000135,7.586392065772225024
0.278000000000000136,7.035552696499024705
0.279000000000000137,6.494454398770121983
0.280000000000000138,5.963145063589214701
0.281000000000000139,5.441667700155830012
0.282000000000000139,4.930059878813109364
0.283000000000000140,4.428353233255841737
0.284000000000000141,3.936573021667255201
0.285000000000000142,3.454737746031323553
0.286000000000000143,2.982858828494070025
0.287000000000000144,2.520940343319838295
0.288000000000000145,2.068978802703566711
0.289000000000000146,1.626962994458213574
0.290000000000000147,1.194873869390642884
0.291000000000000147,0.772684476012285626
0.292000000000000148,0.360359940095106190
0.293000000000000149,-0.042142513519117221
0.294000000000000150,-0.434873499524117413
0.295000000000000151,-0.817891373885179740
0.296000000000000152,-1.191262101447618349
0.297000000000000153,-1.555059092162579759
0.298000000000000154,-1.909363008660122762
0.299000000000000155,-2.254261547866328819
0.300000000000000155,-2.589849199313897010
0.301000000000000156,-2.916226982734172246
0.302000000000000157,-3.233502167447046993
0.303000000000000158,-3.541787975982196635
0.304000000000000159,-3.841203274275549084
0.305000000000000160,-4.131872250687451675
0.306000000000000161,-4.413924085986980828
0.307000000000000162,-4.687492616340157348
0.308000000000000163,-4.952715991230286718
0.309000000000000163,-5.209736328127052118
0.310000000000000164,-5.458699365608518761
0.311000000000000165,-5.699754116527024017
0.312000000000000166,-5.933052522697745523
0.313000000000000167,-6.158749112477318377
0.314000000000000168,-6.377000662490286409
0.315000000000000169,-6.587965864653909875
0.316000000000000170,-6.791804999547305322
0.317000000000000171,-6.988679617068908279
0.318000000000000171,-7.178752225228270056
0.319000000000000172,-7.362185987823617772
0.320000000000000173,-7.539144431665462776
0.321000000000000174,-7.709791163919874180
0.322000000000000175,-7.874289600062377659
0.323000000000000176,-8.032802702854720422
0.324000000000000177,-8.185492732682661199
0.325000000000000178,-8.332521009522483979
0.326000000000000179,-8.474047686738817475
0.327000000000000179,-8.610231536854053402
0.328000000000000180,-8.741229749372683600
0.329000000000000181,-8.867197740690553331
0.330000000000000182,-8.988288976069293668
0.331000000000000183,-9.104654803611474279
0.332000000000000184,-9.216444300129584377
0.333000000000000185,-9.323804128764560772
0.334000000000000186,-9.426878408174845347
0.335000000000000187,-9.525808593085837828
0.336000000000000187,-9.620733365962104600
0.337000000000000188,-9.711788539539266907
0.338000000000000189,-9.799106969931564493
0.339000000000000190,-9.882818480011399842
0.340000000000000191,-9.963049792741045962
0.341000000000000192,-10.039924474122852160
0.342000000000000193,-10.113562885422684445
0.343000000000000194,-10.184082144312160523
0.344000000000000195,-10.251596094567489104
0.345000000000000195,-10.316215283958197091
0.346000000000000196,-10.378046949954461198
0.347000000000000197,-10.437195012880673417
0.348000000000000198,-10.493760076141935400
0.349000000000000199,-10.547839433151301236
0.350000000000000200,-10.599527080587984429
0.351000000000000201,-10.648913737619954745
0.352000000000000202,-10.696086870728894525
0.353000000000000203,-10.741130723781063594
0.354000000000000203,-10.784126352993720133
0.355000000000000204,-10.825151666453791677
0.356000000000000205,-10.864281467853320606
0.357000000000000206,-10.901587504114612415
0.358000000000000207,-10.937138516586360382
0.359000000000000208,-10.971000295501838195
0.360000000000000209,-11.003235737399597483
0.361000000000000210,-11.033904905216923353
0.362000000000000210,-11.063065090776710520
0.363000000000000211,-11.090770879398556659
0.364000000000000212,-11.117074216375549156
0.365000000000000213,-11.142024475068536660
0.366000000000000214,-11.165668526380596148
0.367000000000000215,-11.188050809384623818
0.368000000000000216,-11.209213402888096311
0.369000000000000217,-11.229196097728884496
0.370000000000000218,-11.248036469607072263
0.371000000000000218,-11.265769952267465470
0.372000000000000219,-11.282429910857956656
0.373000000000000220,-11.298047715298762839
0.374000000000000221,-11.312652813507263261
0.375000000000000222,-11.326272804332578659
0.376000000000000223,-11.338933510063871068
0.377000000000000224,-11.350659048384747152
0.378000000000000225,-11.361471903655431248
0.379000000000000226,-11.371392997412792525
0.380000000000000226,-11.380441757986716311
0.381000000000000227,-11.388636189139042187
0.382000000000000228,-11.395992937639590536
0.383000000000000229,-11.402527359700624032
0.384000000000000230,-11.408253586198787488
0.385000000000000231,-11.413184586620264582
0.386000000000000232,-11.417332231671453613
0.387000000000000233,-11.420707354504028075
0.388000000000000234,-11.423319810508974825
0.389000000000000234,-11.425178535640380773
0.390000000000000235,-11.426291603234840721
0.391000000000000236,-11.426666279297993611
0.392000000000000237,-11.426309076234232975
0.393000000000000238,-11.425225805000847501
0.394000000000000239,-11.423421625671739577
0.395000000000000240,-11.420901096400637442
0.396000000000000241,-11.417668220777217769
0.397000000000000242,-11.413726493573552290
0.398000000000000242,-11.409078944881711593
0.399000000000000243,-11.403728182646538869
0.400000000000000244,-11.397676433600864243
0.401000000000000245,-11.390925582613078859
0.402000000000000246,-11.383477210459680862
0.403000000000000247,-11.375332630037943815
0.404000000000000248,-11.366492921036037700
0.405000000000000249,-11.356958963080002079
0.406000000000000250,-11.346731467378889491
0.407000000000000250,-11.335811006891209018
0.408000000000000251,-11.324198045037270788
0.409000000000000252,-11.311892962983520761
0.410000000000000253,-11.298896085526234145
0.411000000000000254,-11.285207705603124140
0.412000000000000255,-11.270828107462225631
0.413000000000000256,-11.255757588518715551
0.414000000000000257,-11.239996479930599804
0.415000000000000258,-11.223545165925282063
0.416000000000000258,-11.206404101909262394
0.417000000000000259,-11.188573831393927804
0.418000000000000260,-11.170055001770483827
0.419000000000000261,-11.150848378967616270
0.420000000000000262,-11.130954861025347924
0.421000000000000263,-11.110375490619055938
0.422000000000000264,-11.089111466567105779
0.423000000000000265,-11.067164154356040839
0.424000000000000266,-11.044535095716947026
0.425000000000000266,-11.021226017286188892
0.426000000000000267,-10.997238838384051363
0.427000000000000268,-10.972575677943996908
0.428000000000000269,-10.947238860625258638
0.429000000000000270,-10.921230922141072384
0.430000000000000271,-10.894554613834229073
0.431000000000000272,-10.867212906531609207
0.432000000000000273,-10.839208993708382422
0.433000000000000274,-10.810546293992510769
0.434000000000000274,-10.781228453039309656
0.435000000000000275,-10.751259344805491835
0.436000000000000276,-10.720643072251455408
0.437000000000000277,-10.689383967499910710
0.438000000000000278,-10.657486591478498639
0.439000000000000279,-10.624955733073310427
0.440000000000000280,-10.591796407819478176
0.441000000000000281,-10.558013856154655485
0.442000000000000282,-10.523613541260287363
0.443000000000000282,-10.488601146514891838
0.444000000000000283,-10.452982572583199072
0.445000000000000284,-10.416763934163970617
0.446000000000000285,-10.379951556418795633
0.447000000000000286,-10.342551971103711494
0.448000000000000287,-10.304571912424242086
0.449000000000000288,-10.266018312634567877
0.450000000000000289,-10.226898297400065729
0.451000000000000290,-10.187219180942442165
0.452000000000000290,-10.146988460985701508
0.453000000000000291,-10.106213813520536604
0.454000000000000292,-10.064903087404273307
0.455000000000000293,-10.023064298812659700
0.456000000000000294,-9.980705625559320282
0.457000000000000295,-9.937835401298038107
0.458000000000000296,-9.894462109622290669
0.459000000000000297,-9.850594378076150903
0.460000000000000298,-9.806240972089740993
0.461000000000000298,-9.761410788852181497
0.462000000000000299,-9.716112851134171891
0.463000000000000300,-9.670356301071819871
0.464000000000000301,-9.624150393923041946
0.465000000000000302,-9.577504491806958953
0.466000000000000303,-9.530428057436447276
0.467000000000000304,-9.482930647853496708
0.468000000000000305,-9.435021908176398853
0.469000000000000306,-9.386711565367415133
0.470000000000000306,-9.338009422029189821
0.471000000000000307,-9.288925350237416723
0.472000000000000308,-9.239469285417305500
0.473000000000000309,-9.189651220270484089
0.474000000000000310,-9.139481198758909741
0.475000000000000311,-9.088969310151728820
0.476000000000000312,-9.038125683140957989
0.477000000000000313,-8.986960480030955267
0.478000000000000314,-8.935483891006876789
0.479000000000000314,-8.883706128486613451
0.480000000000000315,-8.831637421560325052
0.481000000000000316,-8.779288010521728580
0.482000000000000317,-8.726668141494464237
0.483000000000000318,-8.673788061157065243
0.484000000000000319,-8.620658011569391377
0.485000000000000320,-8.567288225103329324
0.486000000000000321,-8.513688919480168593
0.487000000000000322,-8.459870292916955137
0.488000000000000322,-8.405842519383499578
0.489000000000000323,-8.351615743972187644
0.490000000000000324,-8.297200078381692379
0.491000000000000325,-8.242605596516046518
0.492000000000000326,-8.187842330200059138
0.493000000000000327,-8.132920265012060668
0.494000000000000328,-8.077849336234461219
0.495000000000000329,-8.022639424922815010
0.496000000000000330,-7.967300354093512560
0.497000000000000330,-7.911841885030503008
0.498000000000000331,-7.856273713710708151
0.499000000000000332,-7.800605467348388444
0.500000000000000333,-7.744846701057869431
0.501000000000000334,-7.689006894634279554
0.502000000000000335,-7.633095449451850811
0.503000000000000336,-7.577121685479070834
0.504000000000000337,-7.521094838409853267
0.505000000000000338,-7.465024056909962624
0.506000000000000338,-7.408918399977629576
0.507000000000000339,-7.352786834417360140
0.508000000000000340,-7.296638232425671333
0.509000000000000341,-7.240481369287775415
0.510000000000000342,-7.184324921183557144
0.511000000000000343,-7.128177463101785349
0.512000000000000344,-7.072047466860901466
0.513000000000000345,-7.015943299235002151
0.514000000000000346,-6.959873220183489195
0.515000000000000346,-6.903845381182631691
0.516000000000000347,-6.847867823657546538
0.517000000000000348,-6.791948477512879556
0.518000000000000349,-6.736095159760361994
0.519000000000000350,-6.680315573241630389
0.520000000000000351,-6.624617305444364668
0.521000000000000352,-6.569007827410120903
0.522000000000000353,-6.513494492731820351
0.523000000000000353,-6.458084536639113082
0.524000000000000354,-6.402785075169894924
0.525000000000000355,-6.347603104425791898
0.526000000000000356,-6.292545499909960149
0.527000000000000357,-6.237619015945247369
0.528000000000000358,-6.182830285170647144
0.529000000000000359,-6.128185818114431527
0.530000000000000360,-6.073692002841696080
0.531000000000000361,-6.019355104674728452
0.532000000000000361,-5.965181265984055514
0.533000000000000362,-5.911176506048393620
0.534000000000000363,-5.857346720981569277
0.535000000000000364,-5.803697683724521994
0.536000000000000365,-5.750235044100505455
0.537000000000000366,-5.696964328931674260
0.538000000000000367,-5.643890942215076478
0.539000000000000368,-5.591020165356463067
0.540000000000000369,-5.538357157459757651
0.541000000000000369,-5.485906955670755814
0.542000000000000370,-5.433674475572940032
0.543000000000000371,-5.381664511633879044
0.544000000000000372,-5.329881737700373101
0.545000000000000373,-5.278330707540659361
0.546000000000000374,-5.227015855431906388
0.547000000000000375,-5.175941496791446994
0.548000000000000376,-5.125111828849999718
0.549000000000000377,-5.074530931365321962
0.550000000000000377,-5.024202767374611689
0.551000000000000378,-4.974131183984158433
0.552000000000000379,-4.924319913194708853
0.553000000000000380,-4.874772572760909028
0.554000000000000381,-4.825492667083439713
0.555000000000000382,-4.776483588132392377
0.556000000000000383,-4.727748616400264225
0.557000000000000384,-4.679290921883444199
0.558000000000000385,-4.631113565090502426
0.559000000000000385,-4.583219498076154252
0.560000000000000386,-4.535611565499463538
0.561000000000000387,-4.488292505704988500
0.562000000000000388,-4.441264951825599994
0.563000000000000389,-4.394531432905766977
0.564000000000000390,-4.348094375044027515
0.565000000000000391,-4.301956102553483596
0.566000000000000392,-4.256118839139161558
0.567000000000000393,-4.210584709091131472
0.568000000000000393,-4.165355738492182880
0.569000000000000394,-4.120433856439049691
0.570000000000000395,-4.075820896276201921
0.571000000000000396,-4.031518596840950153
0.572000000000000397,-3.987528603719149523
0.573000000000000398,-3.943852470510290864
0.574000000000000399,-3.900491660101200075
0.575000000000000400,-3.857447545947299439
0.576000000000000401,-3.814721413360602664
0.577000000000000401,-3.772314460803656289
0.578000000000000402,-3.730227801188348735
0.579000000000000403,-3.688462463178994177
0.580000000000000404,-3.647019392498852763
0.581000000000000405,-3.605899453239185704
0.582000000000000406,-3.565103429170289218
0.583000000000000407,-3.524632025053596074
0.584000000000000408,-3.484485867954336236
0.585000000000000409,-3.444665508553922173
0.586000000000000409,-3.405171422461465092
0.587000000000000410,-3.366004011523854533
0.588000000000000411,-3.327163605133640178
0.589000000000000412,-3.288650461534317948
0.590000000000000413,-3.250464769122258790
0.591000000000000414,-3.212606647744883137
0.592000000000000415,-3.175076149994517927
0.593000000000000416,-3.137873262497348659
0.594000000000000417,-3.100997907197052150
0.595000000000000417,-3.064449942632756052
0.596000000000000418,-3.028229165210523099
0.597000000000000419,-2.992335310468410281
0.598000000000000420,-2.956768054334234286
0.599000000000000421,-2.921527014375990383
0.600000000000000422,-2.886611751044335872
0.601000000000000423,-2.852021768906882748
0.602000000000000424,-2.817756517873918565
0.603000000000000425,-2.783815394415225519
0.604000000000000425,-2.750197742767699349
0.605000000000000426,-2.716902856133442512
0.606000000000000427,-2.683929977868151351
0.607000000000000428,-2.651278302659268782
0.608000000000000429,-2.618946977694083245
0.609000000000000430,-2.586935103817007864
