# Polypropylene-R10-GAFF_CYSSCA-AC
# h[nm],U(h)[kJ/mol]
0.149999999999999994,88.903209530491906776
0.150999999999999995,87.229806061995958544
0.151999999999999996,86.353112387609499478
0.152999999999999997,85.616302473277997365
0.153999999999999998,84.786913974815050210
0.154999999999999999,83.829285244585875603
0.156000000000000000,82.782530964930572281
0.157000000000000001,81.700388390946685035
0.158000000000000002,80.625779988648105245
0.159000000000000002,79.583635011973939299
0.160000000000000003,78.582329825036282500
0.161000000000000004,77.618364508595931284
0.162000000000000005,76.681484066950645229
0.163000000000000006,75.758974722502586019
0.164000000000000007,74.838716360877171496
0.165000000000000008,73.911011360504303980
0.166000000000000009,72.969405776296071053
0.167000000000000010,72.010777551745519531
0.168000000000000010,71.034953884480870556
0.169000000000000011,70.044075409372609897
0.170000000000000012,69.041870933301510149
0.171000000000000013,68.032954937527136963
0.172000000000000014,67.022216435102862420
0.173000000000000015,66.014333791927839457
0.174000000000000016,65.013425531281441749
0.175000000000000017,64.022830709382972714
0.176000000000000018,63.045002585249861227
0.177000000000000018,62.081494415304838697
0.178000000000000019,61.133014853078670114
0.179000000000000020,60.199531438855458987
0.180000000000000021,59.280403089009304551
0.181000000000000022,58.374525641204023430
0.182000000000000023,57.480477882835089076
0.183000000000000024,56.596658753747895787
0.184000000000000025,55.721409365925353541
0.185000000000000026,54.853116013465339051
0.186000000000000026,53.990292414871078108
0.187000000000000027,53.131641041754882338
0.188000000000000028,52.276094578007459290
0.189000000000000029,51.422839372289516291
0.190000000000000030,50.571323252665443704
0.191000000000000031,49.721250324632066508
0.192000000000000032,48.872565428923380182
0.193000000000000033,48.025430843967122030
0.194000000000000034,47.180197623627293524
0.195000000000000034,46.337373700600345217
0.196000000000000035,45.497590589244886417
0.197000000000000036,44.661570211937650754
0.198000000000000037,43.830093067720966360
0.199000000000000038,43.003968673545152512
0.200000000000000039,42.184008945192857709
0.201000000000000040,41.371004952024890144
0.202000000000000041,40.565707279397805962
0.203000000000000042,39.768810065351246408
0.204000000000000042,38.980938642849636722
0.205000000000000043,38.202640613372366829
0.206000000000000044,37.434380099194918046
0.207000000000000045,36.676534867149278796
0.208000000000000046,35.929395982696384237
0.209000000000000047,35.193169636522149801
0.210000000000000048,34.467980783452460969
0.211000000000000049,33.753878242372891805
0.212000000000000050,33.050840923408671301
0.213000000000000050,32.358784872551538569
0.214000000000000051,31.677570852195536588
0.215000000000000052,31.007012206962780709
0.216000000000000053,30.346882796342804056
0.217000000000000054,29.696924807888443354
0.218000000000000055,29.056856296101631898
0.219000000000000056,28.426378322016041977
0.220000000000000057,27.805181596333255811
0.221000000000000058,27.192952554460486425
0.222000000000000058,26.589378814715473709
0.223000000000000059,25.994153991219377531
0.224000000000000060,25.406981850579221316
0.225000000000000061,24.827579816434017346
0.226000000000000062,24.255681838418730933
0.227000000000000063,23.691040652244083731
0.228000000000000064,23.133429465579958162
0.229000000000000065,22.582643110464012182
0.230000000000000066,22.038498707243697083
0.231000000000000066,21.500835887803919633
0.232000000000000067,20.969516627241635121
0.233000000000000068,20.444424733415083040
0.234000000000000069,19.925465043105976548
0.235000000000000070,19.412562372057934112
0.236000000000000071,18.905660264051999064
0.237000000000000072,18.404719581589869648
0.238000000000000073,17.909716977806745319
0.239000000000000073,17.420643286038504982
0.240000000000000074,16.937501860117897934
0.241000000000000075,16.460306895057687626
0.242000000000000076,15.989081754362763022
0.243000000000000077,15.523857326856639105
0.244000000000000078,15.064670432659351462
0.245000000000000079,14.611562294848443599
0.246000000000000080,14.164577090404218751
0.247000000000000081,13.723760591301811473
0.248000000000000081,13.289158904084297674
0.249000000000000082,12.860817313938209594
0.250000000000000111,12.438779237200449757
0.251000000000000112,12.023085284352868385
0.252000000000000113,11.613772433902607162
0.253000000000000114,11.210873316098654229
0.254000000000000115,10.814415604184636877
0.255000000000000115,10.424421509828572852
0.256000000000000116,10.040907378486902957
0.257000000000000117,9.663883379741701418
0.258000000000000118,9.293353287083396808
0.259000000000000119,8.929314341182340797
0.260000000000000120,8.571757190388565206
0.261000000000000121,8.220665902007507242
0.262000000000000122,7.876018037806355565
0.263000000000000123,7.537784787200513037
0.264000000000000123,7.205931151639404675
0.265000000000000124,6.880416173845937067
0.266000000000000125,6.561193205753499846
0.267000000000000126,6.248210209219299927
0.268000000000000127,5.941410083864297142
0.269000000000000128,5.640731016690904376
0.270000000000000129,5.346106848451860571
0.271000000000000130,5.057467452081281678
0.272000000000000131,4.774739118846918373
0.273000000000000131,4.497844948234659412
0.274000000000000132,4.226705237929461845
0.275000000000000133,3.961237870606112210
0.276000000000000134,3.701358694585995757
0.277000000000000135,3.446981895750101721
0.278000000000000136,3.198020358419840115
0.279000000000000137,2.954386013226108165
0.280000000000000138,2.715990170281037397
0.281000000000000139,2.482743836244113655
0.282000000000000139,2.254558014135934041
0.283000000000000140,2.031343984996385021
0.284000000000000141,1.813013570710530376
0.285000000000000142,1.599479377534136715
0.286000000000000143,1.390655020042070866
0.287000000000000144,1.186455325397102856
0.288000000000000145,0.986796517993553834
0.289000000000000146,0.791596384671991116
0.290000000000000147,0.600774420825904154
0.291000000000000147,0.414251957832425244
0.292000000000000148,0.231952272334797011
0.293000000000000149,0.053800677987626513
0.294000000000000150,-0.120275399654378917
0.295000000000000151,-0.290346364365015819
0.296000000000000152,-0.456480405806270695
0.297000000000000153,-0.618743470595724099
0.298000000000000154,-0.777199247030943896
0.299000000000000155,-0.931909162601018304
0.300000000000000155,-1.082932393404424376
0.301000000000000156,-1.230325884588325369
0.302000000000000157,-1.374144380927067477
0.303000000000000158,-1.514440466665460061
0.304000000000000159,-1.651264613765918821
0.305000000000000160,-1.784665237715994834
0.306000000000000161,-1.914688760074412688
0.307000000000000162,-2.041379676958611000
0.308000000000000163,-2.164780632704286667
0.309000000000000163,-2.284932497957532060
0.310000000000000164,-2.401874451492036044
0.311000000000000165,-2.515644065077098368
0.312000000000000166,-2.626277390756866392
0.313000000000000167,-2.733809049936401170
0.314000000000000168,-2.838272323705970379
0.315000000000000169,-2.939699243871039869
0.316000000000000170,-3.038120684191425447
0.317000000000000171,-3.133566451368626549
0.318000000000000171,-3.226065375355785303
0.319000000000000172,-3.315645398599381455
0.320000000000000173,-3.402333663855474644
0.321000000000000174,-3.486156600256422600
0.322000000000000175,-3.567140007335957819
0.323000000000000176,-3.645309136751322399
0.324000000000000177,-3.720688771470913814
0.325000000000000178,-3.793303302224204199
0.326000000000000179,-3.863176801038188835
0.327000000000000179,-3.930333091710085824
0.328000000000000180,-3.994795817090812218
0.329000000000000181,-4.056588503076930863
0.330000000000000182,-4.115734619230350333
0.331000000000000183,-4.172257635965936018
0.332000000000000184,-4.226181078265948798
0.333000000000000185,-4.277528575898331020
0.334000000000000186,-4.326323910132331640
0.335000000000000187,-4.372591056960199118
0.336000000000000187,-4.416354226847905906
0.337000000000000188,-4.457637901050460982
0.338000000000000189,-4.496466864539435448
0.339000000000000190,-4.532866235600764071
0.340000000000000191,-4.566861492170394499
0.341000000000000192,-4.598478494984087561
0.342000000000000193,-4.627743507625113217
0.343000000000000194,-4.654683213560376842
0.344000000000000195,-4.679324730261014587
0.345000000000000195,-4.701695620508930418
0.346000000000000196,-4.721823900994367662
0.347000000000000197,-4.739738048313498986
0.348000000000000198,-4.755467002477544725
0.349000000000000199,-4.769040168047047779
0.350000000000000200,-4.780487413006570208
0.351000000000000201,-4.789839065495867132
0.352000000000000202,-4.797125908514152215
0.353000000000000203,-4.802379172713971300
0.354000000000000203,-4.805630527400809981
0.355000000000000204,-4.806912069853498615
0.356000000000000205,-4.806256313079467546
0.357000000000000206,-4.803696172117289720
0.358000000000000207,-4.799264948996849967
0.359000000000000208,-4.792996316465741202
0.360000000000000209,-4.784924300587805490
0.361000000000000210,-4.775083262317313171
0.362000000000000210,-4.763507878149487063
0.363000000000000211,-4.750233119945123761
0.364000000000000212,-4.735294234024133075
0.365000000000000213,-4.718726719619483312
0.366000000000000214,-4.700566306779954573
0.367000000000000215,-4.680848933806627699
0.368000000000000216,-4.659610724304826590
0.369000000000000217,-4.636887963929595458
0.370000000000000218,-4.612717076899597757
0.371000000000000218,-4.587134602350586121
0.372000000000000219,-4.560177170596423579
0.373000000000000220,-4.531881479362004583
0.374000000000000221,-4.502284270049104364
0.375000000000000222,-4.471422304092714128
0.376000000000000223,-4.439332339462263910
0.377000000000000224,-4.406051107358672780
0.378000000000000225,-4.371615289155036166
0.379000000000000226,-4.336061493625551932
0.380000000000000226,-4.299426234504364785
0.381000000000000227,-4.261745908412649442
0.382000000000000228,-4.223056773189785673
0.383000000000000229,-4.183394926661232915
0.384000000000000230,-4.142796285873108886
0.385000000000000231,-4.101296566820942679
0.386000000000000232,-4.058931264697166696
0.387000000000000233,-4.015735634679778343
0.388000000000000234,-3.971744673281886406
0.389000000000000234,-3.926993100279832394
0.390000000000000235,-3.881515341235145744
0.391000000000000236,-3.835345510623628051
0.392000000000000237,-3.788517395582728930
0.393000000000000238,-3.741064440286584691
0.394000000000000239,-3.693019730956022872
0.395000000000000240,-3.644415981509406155
0.396000000000000241,-3.595285519858250289
0.397000000000000242,-3.545660274850070071
0.398000000000000242,-3.495571763859577796
0.399000000000000243,-3.445051081027693751
0.400000000000000244,-3.394128886146679402
0.401000000000000245,-3.342835394188528486
0.402000000000000246,-3.291200365472376266
0.403000000000000247,-3.239253096465804393
0.404000000000000248,-3.187022411213839224
0.405000000000000249,-3.134536653388510619
0.406000000000000250,-3.081823678950938561
0.407000000000000250,-3.028910849417211004
0.408000000000000251,-2.975825025718465522
0.409000000000000252,-2.922592562645020653
0.410000000000000253,-2.869239303863713175
0.411000000000000254,-2.815790577497103708
0.412000000000000255,-2.762271192252658381
0.413000000000000256,-2.708705434089645259
0.414000000000000257,-2.655117063410951772
0.415000000000000258,-2.601529312766897917
0.416000000000000258,-2.547964885057567130
0.417000000000000259,-2.494445952220128326
0.418000000000000260,-2.440994154387296611
0.419000000000000261,-2.387630599502908790
0.420000000000000262,-2.334375863380499627
0.421000000000000263,-2.281249990190624910
0.422000000000000264,-2.228272493362620565
0.423000000000000265,-2.175462356886360915
0.424000000000000266,-2.122838036999838529
0.425000000000000266,-2.070417464247963579
0.426000000000000267,-2.018218045898506396
0.427000000000000268,-1.966256668700783861
0.428000000000000269,-1.914549701973005780
0.429000000000000270,-1.863113001004305769
0.430000000000000271,-1.811961910757383887
0.431000000000000272,-1.761111269858189887
0.432000000000000273,-1.710575414858922727
0.433000000000000274,-1.660368184761038091
0.434000000000000274,-1.610502925784924155
0.435000000000000275,-1.560992496373380778
0.436000000000000276,-1.511849272416025736
0.437000000000000277,-1.463085152682062962
0.438000000000000278,-1.414711564449155690
0.439000000000000279,-1.366739469316301747
0.440000000000000280,-1.319179369188864026
0.441000000000000281,-1.272041312424251558
0.442000000000000282,-1.225334900126964000
0.443000000000000282,-1.179069292581910400
0.444000000000000283,-1.133253215815376747
0.445000000000000284,-1.087894968273100726
0.446000000000000285,-1.043002427605240978
0.447000000000000286,-0.998583057548507513
0.448000000000000287,-0.954643914895615731
0.449000000000000288,-0.911191656542954198
0.450000000000000289,-0.868232546607250577
0.451000000000000290,-0.825772463602589823
0.452000000000000290,-0.783816907669280027
0.453000000000000291,-0.742371007846339026
0.454000000000000292,-0.701439529379769722
0.455000000000000293,-0.661026881058893401
0.456000000000000294,-0.621137122573485523
0.457000000000000295,-0.581773971884564700
0.458000000000000296,-0.542940812602040412
0.459000000000000297,-0.504640701362698785
0.460000000000000298,-0.466876375202183280
0.461000000000000298,-0.429650258915035166
0.462000000000000299,-0.392964472396949482
0.463000000000000300,-0.356820837963738202
0.464000000000000301,-0.321220887641771979
0.465000000000000302,-0.286165870424858249
0.466000000000000303,-0.251656759492693616
0.467000000000000304,-0.217694259386417233
0.468000000000000305,-0.184278813136903918
0.469000000000000306,-0.151410609341624758
0.470000000000000306,-0.119089589186301886
0.471000000000000307,-0.087315453407517299
0.472000000000000308,-0.056087669192942703
0.473000000000000309,-0.025405477015797474
0.474000000000000310,0.004732102599449029
0.475000000000000311,0.034326262383145865
0.476000000000000312,0.063378401700818057
0.477000000000000313,0.091890120010569912
0.478000000000000314,0.119863210399703851
0.479000000000000314,0.147299653202800584
0.480000000000000315,0.174201609703317134
0.481000000000000316,0.200571415920479973
0.482000000000000317,0.226411576483260768
0.483000000000000318,0.251724758592920095
0.484000000000000319,0.276513786075597179
0.485000000000000320,0.300781633526139902
0.486000000000000321,0.324531420544400817
0.487000000000000322,0.347766406064922762
0.488000000000000322,0.370489982781002702
0.489000000000000323,0.392705671663758971
0.490000000000000324,0.414417116576990541
0.491000000000000325,0.435628078988266665
0.492000000000000326,0.456342432776751850
0.493000000000000327,0.476564159138032628
0.494000000000000328,0.496297341586206808
0.495000000000000329,0.515546161053396013
0.496000000000000330,0.534314891086678845
0.497000000000000330,0.552607893142444073
0.498000000000000331,0.570429611978055084
0.499000000000000332,0.587784571140564815
0.500000000000000333,0.604677368552274386
0.501000000000000334,0.621112672192782767
0.502000000000000335,0.637095215877076848
0.503000000000000336,0.652629795129221812
0.504000000000000337,0.667721263151118016
0.505000000000000338,0.682374526885713983
0.506000000000000338,0.696594543174023917
0.507000000000000339,0.710386315005293700
0.508000000000000340,0.723754887859523244
0.509000000000000341,0.736705346141555140
0.510000000000000342,0.749242809705936375
0.511000000000000343,0.761372430471628614
0.512000000000000344,0.773099389125698422
0.513000000000000345,0.784428891915001869
0.514000000000000346,0.795366167524904299
0.515000000000000346,0.805916464044031167
0.516000000000000347,0.816085046014009330
0.517000000000000348,0.825877191563096580
0.518000000000000349,0.835298189622695753
0.519000000000000350,0.844353337225557388
0.520000000000000351,0.853047936884602342
0.521000000000000352,0.861387294051186414
0.522000000000000353,0.869376714651660998
0.523000000000000353,0.877021502701062161
0.524000000000000354,0.884326957992703777
0.525000000000000355,0.891298373862523086
0.526000000000000356,0.897941035026944889
0.527000000000000357,0.904260215493021269
0.528000000000000358,0.910261176539716166
0.529000000000000359,0.915949164768968260
0.530000000000000360,0.921329410225445899
0.531000000000000361,0.926407124583643382
0.532000000000000361,0.931187499401170626
0.533000000000000362,0.935675704436921940
0.534000000000000363,0.939876886032962489
0.535000000000000364,0.943796165558849487
0.536000000000000365,0.947438637917177751
0.537000000000000366,0.950809370109116259
0.538000000000000367,0.953913399858734246
0.539000000000000368,0.956755734294850280
0.540000000000000369,0.959341348689270235
0.541000000000000369,0.961675185250129849
0.542000000000000370,0.963762151969207226
0.543000000000000371,0.965607121521994571
0.544000000000000372,0.967214930219338909
0.545000000000000373,0.968590377009505232
0.546000000000000374,0.969738222529497151
0.547000000000000375,0.970663188204480498
0.548000000000000376,0.971369955394166373
0.549000000000000377,0.971863164585047512
0.550000000000000377,0.972147414627374196
0.551000000000000378,0.972227262015726956
0.552000000000000379,0.972107220212168777
0.553000000000000380,0.971791759010820044
0.554000000000000381,0.971285303942872602
0.555000000000000382,0.970592235720920904
0.556000000000000383,0.969716889721640052
0.557000000000000384,0.968663555505731466
0.558000000000000385,0.967436476374183618
0.559000000000000385,0.966039848959800884
0.560000000000000386,0.964477822853073485
0.561000000000000387,0.962754500261386426
0.562000000000000388,0.960873935700642279
0.563000000000000389,0.958840135718347364
0.564000000000000390,0.956657058647259029
0.565000000000000391,0.954328614388672336
0.566000000000000392,0.951858664224483730
0.567000000000000393,0.949251020657119859
0.568000000000000393,0.946509447276515870
0.569000000000000394,0.943637658653260325
0.570000000000000395,0.940639320257118938
0.571000000000000396,0.937518048400091120
0.572000000000000397,0.934277410203199210
0.573000000000000398,0.930920923586284532
0.574000000000000399,0.927452057279945175
0.575000000000000400,0.923874230858968359
0.576000000000000401,0.920190814796442269
0.577000000000000401,0.916405130537850665
0.578000000000000402,0.912520450594447530
0.579000000000000403,0.908539998655229164
0.580000000000000404,0.904466949716771440
0.581000000000000405,0.900304430230343788
0.582000000000000406,0.896055518265583828
0.583000000000000407,0.891723243690123901
0.584000000000000408,0.887310588364560671
0.585000000000000409,0.882820486352133393
0.586000000000000409,0.878255824142519126
0.587000000000000410,0.873619440889181420
0.588000000000000411,0.868914128659696194
0.589000000000000412,0.864142632698479907
0.590000000000000413,0.859307651701416431
0.591000000000000414,0.854411838101821752
0.592000000000000415,0.849457798367246775
0.593000000000000416,0.844448093306608860
0.594000000000000417,0.839385238387167498
0.595000000000000417,0.834271704060852715
0.596000000000000418,0.829109916099498356
0.597000000000000419,0.823902255938510963
0.598000000000000420,0.818651061028533578
0.599000000000000421,0.813358625194684826
0.600000000000000422,0.808027199002933516
0.601000000000000423,0.802658990133220840
0.602000000000000424,0.797256163758920722
0.603000000000000425,0.791820842932245306
0.604000000000000425,0.786355108975237860
0.605000000000000426,0.780861001875986949
0.606000000000000427,0.775340520689655976
0.607000000000000428,0.769795623944098395
0.608000000000000429,0.764228230049547652
0.609000000000000430,0.758640217712273079
0.610000000000000431,0.753033426351668256
0.611000000000000432,0.747409656520626964
0.612000000000000433,0.741770670328847581
0.613000000000000433,0.736118191868742833
0.614000000000000434,0.730453907643751954
0.615000000000000435,0.724779466998730637
0.616000000000000436,0.719096482552171734
0.617000000000000437,0.713406530629995261
