# Polypropylene-R10-GAFF_CS-1143-AC
# h[nm],U(h)[kJ/mol]
0.149999999999999994,99.242396814472954247
0.150999999999999995,97.420058111680688739
0.151999999999999996,96.461966112686610586
0.152999999999999997,95.651431718971338114
0.153999999999999998,94.733539453201274227
0.154999999999999999,93.669059554936808354
0.156000000000000000,92.501578422728954365
0.157000000000000001,91.291418561904364992
0.158000000000000002,90.087315093985864678
0.159000000000000002,88.918140183132081233
0.160000000000000003,87.794223841653334262
0.161000000000000004,86.712380385813077055
0.162000000000000005,85.661545265104436453
0.163000000000000006,84.627584011891485716
0.164000000000000007,83.596771714110133189
0.165000000000000008,82.557933213188249510
0.166000000000000009,81.503460150629479131
0.167000000000000010,80.429495232981750519
0.168000000000000010,79.335567868842602479
0.169000000000000011,78.223921711560137737
0.170000000000000012,77.098718540893116824
0.171000000000000013,75.965247823346061296
0.172000000000000014,74.829223679409807346
0.173000000000000015,73.696213198152662471
0.174000000000000016,72.571212120894458053
0.175000000000000017,71.458364758964222574
0.176000000000000018,70.360813044198565080
0.177000000000000018,69.280653192188495382
0.178000000000000019,68.218976080717226296
0.179000000000000020,67.175967831643987438
0.180000000000000021,66.151049210451660088
0.181000000000000022,65.143035543455226843
0.182000000000000023,64.150302331077128315
0.183000000000000024,63.170945216030290226
0.184000000000000025,62.202926196933503888
0.185000000000000026,61.244200816364980255
0.186000000000000026,60.292823430808404339
0.187000000000000027,59.347029575656463862
0.188000000000000028,58.405295894316836325
0.189000000000000029,57.466379150912210605
0.190000000000000030,56.529336546595196467
0.191000000000000031,55.593529969389614109
0.192000000000000032,54.658616984816532636
0.193000000000000033,53.724531373139427615
0.194000000000000034,52.791455886565110234
0.195000000000000034,51.859789676982117612
0.196000000000000035,50.930112565636342481
0.197000000000000036,50.003148017694073246
0.198000000000000037,49.079726368016629579
0.199000000000000038,48.160749535412072930
0.200000000000000039,47.247158172335829818
0.201000000000000040,46.339901932891585545
0.202000000000000041,45.439913308398523384
0.203000000000000042,44.548085278703766221
0.204000000000000042,43.665252858967633642
0.205000000000000043,42.792178484645710057
0.206000000000000044,41.929541069714431956
0.207000000000000045,41.077928492129203164
0.208000000000000046,40.237833203024429451
0.209000000000000047,39.409650619095920376
0.210000000000000048,38.593679937809177716
0.211000000000000049,37.790127009545329884
0.212000000000000050,36.999108906735997948
0.213000000000000050,36.220659844914095515
0.214000000000000051,35.454738132160919406
0.215000000000000052,34.701233849701331735
0.216000000000000053,33.959976995706462333
0.217000000000000054,33.230745855304242298
0.218000000000000055,32.513275391217973720
0.219000000000000056,31.807265480434960381
0.220000000000000057,31.112388852128312067
0.221000000000000058,30.428298610190392282
0.222000000000000058,29.754635249794670671
0.223000000000000059,29.091033101147825590
0.224000000000000060,28.437126154878558992
0.225000000000000061,27.792553242291113236
0.226000000000000062,27.156962560010633467
0.227000000000000063,26.530015542443475596
0.228000000000000064,25.911390097090254869
0.229000000000000065,25.300783227231043782
0.230000000000000066,24.697913074025215963
0.231000000000000066,24.102520415810815280
0.232000000000000067,23.514369666542073389
0.233000000000000068,22.933249418052184865
0.234000000000000069,22.358972572355831687
0.235000000000000070,21.791376110686208278
0.236000000000000071,21.230320545559202117
0.237000000000000072,20.675689101023220218
0.238000000000000073,20.127386664529847593
0.239000000000000073,19.585338551672538898
0.240000000000000074,19.049489122499302596
0.241000000000000075,18.519800285315252353
0.242000000000000076,17.996249920934442201
0.243000000000000077,17.478830257295747685
0.244000000000000078,16.967546221287765462
0.245000000000000079,16.462413791585937872
0.246000000000000080,15.963458373336857576
0.247000000000000081,15.470713212663067537
0.248000000000000081,14.984217866237250050
0.249000000000000082,14.504016738606329895
0.250000000000000111,14.030157697549508811
0.251000000000000112,13.562690775539866905
0.252000000000000113,13.101666963350236728
0.253000000000000114,12.647137100006762722
0.254000000000000115,12.199150861639445509
0.255000000000000115,11.757755850311440327
0.256000000000000116,11.322996782615641465
0.257000000000000117,10.894914776704071713
0.258000000000000118,10.473546735452661238
0.259000000000000119,10.058924822650613606
0.260000000000000120,9.651076028429878662
0.261000000000000121,9.250021819606178752
0.262000000000000122,8.855777870175568722
0.263000000000000123,8.468353866891302317
0.264000000000000123,8.087753384621937158
0.265000000000000124,7.713973826054330019
0.266000000000000125,7.347006420243755720
0.267000000000000126,6.986836274518701373
0.268000000000000127,6.633442474310419001
0.269000000000000128,6.286798225590217726
0.270000000000000129,5.946871034751180396
0.271000000000000130,5.613622920959302931
0.272000000000000131,5.287010656215992199
0.273000000000000131,4.966986028612046411
0.274000000000000132,4.653496124508835763
0.275000000000000133,4.346483625649310234
0.276000000000000134,4.045887117476302919
0.277000000000000135,3.751641405214654501
0.278000000000000136,3.463677834552368218
0.279000000000000137,3.181924614033215359
0.280000000000000138,2.906307136545763559
0.281000000000000139,2.636748297558635379
0.282000000000000139,2.373168808009344044
0.283000000000000140,2.115487500000730936
0.284000000000000141,1.863621623695297602
0.285000000000000142,1.617487134021761808
0.286000000000000143,1.376998966019834514
0.287000000000000144,1.142071297848185729
0.288000000000000145,0.912617800665610934
0.289000000000000146,0.688551874768518757
0.290000000000000147,0.469786871526134853
0.291000000000000147,0.256236300801638617
0.292000000000000148,0.047814023680093423
0.293000000000000149,-0.155565569554440675
0.294000000000000150,-0.353987396141868971
0.295000000000000151,-0.547535532120662194
0.296000000000000152,-0.736293077919559114
0.297000000000000153,-0.920342037955704462
0.298000000000000154,-1.099763213862918532
0.299000000000000155,-1.274636110916859355
0.300000000000000155,-1.445038857176093483
0.301000000000000156,-1.611048134818106714
0.302000000000000157,-1.772739123117344606
0.303000000000000158,-1.930185452486649522
0.304000000000000159,-2.083459168984959753
0.305000000000000160,-2.232630708680756637
0.306000000000000161,-2.377768881253193634
0.307000000000000162,-2.518940862209836151
0.308000000000000163,-2.656212193101242125
0.309000000000000163,-2.789646789117856684
0.310000000000000164,-2.919306953463403964
0.311000000000000165,-3.045253397910352433
0.312000000000000166,-3.167545268957509208
0.313000000000000167,-3.286240179026013841
0.314000000000000168,-3.401394242148521041
0.315000000000000169,-3.513062113626152616
0.316000000000000170,-3.621297033149291078
0.317000000000000171,-3.726150870900189371
0.318000000000000171,-3.827674176178712084
0.319000000000000172,-3.925916228116080653
0.320000000000000173,-4.020925088065350650
0.321000000000000174,-4.112747653281561000
0.322000000000000175,-4.201429711528751554
0.323000000000000176,-4.287015996274879726
0.324000000000000177,-4.369550242159657927
0.325000000000000178,-4.449075240443393753
0.326000000000000179,-4.525632894168299281
0.327000000000000179,-4.599264272785575258
0.328000000000000180,-4.670009666023602790
0.329000000000000181,-4.737908636793591199
0.330000000000000182,-4.803000072949004107
0.331000000000000183,-4.865322237735028921
0.332000000000000184,-4.924912818782503976
0.333000000000000185,-4.981808975518903893
0.334000000000000186,-5.036047384885765865
0.335000000000000187,-5.087664285267968545
0.336000000000000187,-5.136695518555692175
0.337000000000000188,-5.183176570273818839
0.338000000000000189,-5.227142607727435220
0.339000000000000190,-5.268628516124426397
0.340000000000000191,-5.307668932647837678
0.341000000000000192,-5.344298278461881324
0.342000000000000193,-5.378550788645317660
0.343000000000000194,-5.410460540055519019
0.344000000000000195,-5.440061477134703338
0.345000000000000195,-5.467387435678313423
0.346000000000000196,-5.492472164591903017
0.347000000000000197,-5.515349345669968706
0.348000000000000198,-5.536052611435633430
0.349000000000000199,-5.554615561085362252
0.350000000000000200,-5.571071774587601055
0.351000000000000201,-5.585454824988087097
0.352000000000000202,-5.597798288978232506
0.353000000000000203,-5.608135755785953691
0.354000000000000203,-5.616500834450931734
0.355000000000000204,-5.622927159548178011
0.356000000000000205,-5.627448395425725280
0.357000000000000206,-5.630098239023554996
0.358000000000000207,-5.630910421341440042
0.359000000000000208,-5.629918707624574914
0.360000000000000209,-5.627156896335686831
0.361000000000000210,-5.622658816982577967
0.362000000000000210,-5.616458326869744333
0.363000000000000211,-5.608589306842191924
0.364000000000000212,-5.599085656089014762
0.365000000000000213,-5.587981286073182119
0.366000000000000214,-5.575310113653119792
0.367000000000000215,-5.561106053460296295
0.368000000000000216,-5.545403009595730737
0.369000000000000217,-5.528234866706767114
0.370000000000000218,-5.509635480503993321
0.371000000000000218,-5.489638667776199910
0.372000000000000219,-5.468278195959838328
0.373000000000000220,-5.445587772317335151
0.374000000000000221,-5.421601032776813156
0.375000000000000222,-5.396351530483701531
0.376000000000000223,-5.369872724112974893
0.377000000000000224,-5.342197965988484398
0.378000000000000225,-5.313360490053923080
0.379000000000000226,-5.283393399737962959
0.380000000000000226,-5.252329655754083504
0.381000000000000227,-5.220202063873392362
0.382000000000000228,-5.187043262707041080
0.383000000000000229,-5.152885711532572799
0.384000000000000230,-5.117761678196630193
0.385000000000000231,-5.081703227124709343
0.386000000000000232,-5.044742207466396344
0.387000000000000233,-5.006910241402981576
0.388000000000000234,-4.968238712642252253
0.389000000000000234,-4.928758755123721080
0.390000000000000235,-4.888501241955585108
0.391000000000000236,-4.847496774603210490
0.392000000000000237,-4.805775672347108340
0.393000000000000238,-4.763367962027020397
0.394000000000000239,-4.720303368086866236
0.395000000000000240,-4.676611302934206016
0.396000000000000241,-4.632320857626124777
0.397000000000000242,-4.587460792892168904
0.398000000000000242,-4.542059530503820497
0.399000000000000243,-4.496145144998406451
0.400000000000000244,-4.449745355764376242
0.401000000000000245,-4.402887519493704716
0.402000000000000246,-4.355598623005932701
0.403000000000000247,-4.307905276447415055
0.404000000000000248,-4.259833706868416670
0.405000000000000249,-4.211409752179579691
0.406000000000000250,-4.162658855488510667
0.407000000000000250,-4.113606059816412142
0.408000000000000251,-4.064276003193767473
0.409000000000000252,-4.014692914133505930
0.410000000000000253,-3.964880607479216224
0.411000000000000254,-3.914862480625434848
0.412000000000000255,-3.864661510106363718
0.413000000000000256,-3.814300248548876393
0.414000000000000257,-3.763800821984971456
0.415000000000000258,-3.713184927518643264
0.416000000000000258,-3.662473831341341857
0.417000000000000259,-3.611688367090077456
0.418000000000000260,-3.560848934541684940
0.419000000000000261,-3.509975498636438651
0.420000000000000262,-3.459087588823990700
0.421000000000000263,-3.408204298724216041
0.422000000000000264,-3.357344286095384600
0.423000000000000265,-3.306525773101751664
0.424000000000000266,-3.255766546872732814
0.425000000000000266,-3.205083960345228355
0.426000000000000267,-3.154494933381005506
0.427000000000000268,-3.104015954150553647
0.428000000000000269,-3.053663080774941641
0.429000000000000270,-3.003451943217137377
0.430000000000000271,-2.953397745413991693
0.431000000000000272,-2.903515267640385034
0.432000000000000273,-2.853818869096714117
0.433000000000000274,-2.804322490711120164
0.434000000000000274,-2.755039658147711901
0.435000000000000275,-2.705983485012223522
0.436000000000000276,-2.657166676246515813
0.437000000000000277,-2.608601531703317988
0.438000000000000278,-2.560299949892875127
0.439000000000000279,-2.512273431893087938
0.440000000000000280,-2.464533085414843061
0.441000000000000281,-2.417089629014422147
0.442000000000000282,-2.369953396444956173
0.443000000000000282,-2.323134341138902492
0.444000000000000283,-2.276642040813872114
0.445000000000000284,-2.230485702194070718
0.446000000000000285,-2.184674165839768811
0.447000000000000286,-2.139215911077646304
0.448000000000000287,-2.094119061024498407
0.449000000000000288,-2.049391387697500733
0.450000000000000289,-2.005040317203929057
0.451000000000000290,-1.961072935003707940
0.452000000000000290,-1.917495991238185038
0.453000000000000291,-1.874315906118670938
0.454000000000000292,-1.831538775368584782
0.455000000000000293,-1.789170375713045047
0.456000000000000294,-1.747216170410095470
0.457000000000000295,-1.705681314817782734
0.458000000000000296,-1.664570661991541245
0.459000000000000297,-1.623888768306532837
0.460000000000000298,-1.583639899099684056
0.461000000000000298,-1.543828034326462539
0.462000000000000299,-1.504456874227446006
0.463000000000000300,-1.465529845000023590
0.464000000000000301,-1.427050104470720004
0.465000000000000302,-1.389020547763796909
0.466000000000000303,-1.351443812961844682
0.467000000000000304,-1.314322286754457947
0.468000000000000305,-1.277658110071055120
0.469000000000000306,-1.241453183694127604
0.470000000000000306,-1.205709173849439875
0.471000000000000307,-1.170427517769666137
0.472000000000000308,-1.135609429228342071
0.473000000000000309,-1.101255904040929767
0.474000000000000310,-1.067367725530140588
0.475000000000000311,-1.033945469952584073
0.476000000000000312,-1.000989511884278205
0.477000000000000313,-0.968500029562242681
0.478000000000000314,-0.936477010179974756
0.479000000000000314,-0.904920255134489926
0.480000000000000315,-0.873829385222733235
0.481000000000000316,-0.843203845785465589
0.482000000000000317,-0.813042911796620138
0.483000000000000318,-0.783345692896468493
0.484000000000000319,-0.754111138366851397
0.485000000000000320,-0.725338042047028786
0.486000000000000321,-0.697025047188637559
0.487000000000000322,-0.669170651248501946
0.488000000000000322,-0.641773210617987755
0.489000000000000323,-0.614830945287924258
0.490000000000000324,-0.588341943447920679
0.491000000000000325,-0.562304166019255924
0.492000000000000326,-0.536715451120427067
0.493000000000000327,-0.511573518464683352
0.494000000000000328,-0.486875973688828345
0.495000000000000329,-0.462620312612715856
0.496000000000000330,-0.438803925428949804
0.497000000000000330,-0.415424100822369191
0.498000000000000331,-0.392478030018901414
0.499000000000000332,-0.369962810763615924
0.500000000000000333,-0.347875451227657062
0.501000000000000334,-0.326212873843928053
0.502000000000000335,-0.304971919071493847
0.503000000000000336,-0.284149349088618330
0.504000000000000337,-0.263741851414474926
0.505000000000000338,-0.243746042459636575
0.506000000000000338,-0.224158471005475146
0.507000000000000339,-0.204975621612630832
0.508000000000000340,-0.186193917958814625
0.509000000000000341,-0.167809726106249529
0.510000000000000342,-0.149819357698999345
0.511000000000000343,-0.132219073090630246
0.512000000000000344,-0.115005084402554567
0.513000000000000345,-0.098173558513529491
0.514000000000000346,-0.081720619980792608
0.515000000000000346,-0.065642353893307748
0.516000000000000347,-0.049934808657693307
0.517000000000000348,-0.034593998717436313
0.518000000000000349,-0.019615907205891504
0.519000000000000350,-0.004996488533815580
0.520000000000000351,0.009268329088014626
0.521000000000000352,0.023182641190355867
0.522000000000000353,0.036750564650567516
0.523000000000000353,0.049976235360492761
0.524000000000000354,0.062863805956353283
0.525000000000000355,0.075417443609993653
0.526000000000000356,0.087641327880653860
0.527000000000000357,0.099539648626476129
0.528000000000000358,0.111116603975046677
0.529000000000000359,0.122376398352015997
0.530000000000000360,0.133323240567147255
0.531000000000000361,0.143961341956827832
0.532000000000000361,0.154294914582315201
0.533000000000000362,0.164328169482789999
0.534000000000000363,0.174065314982446151
0.535000000000000364,0.183510555050705071
0.536000000000000365,0.192668087714733482
0.537000000000000366,0.201542103523376592
0.538000000000000367,0.210136784061688953
0.539000000000000368,0.218456300515108698
0.540000000000000369,0.226504812282536605
0.541000000000000369,0.234286465637311286
0.542000000000000370,0.241805392435327615
0.543000000000000371,0.249065708869385893
0.544000000000000372,0.256071514268876310
0.545000000000000373,0.262826889943998554
0.546000000000000374,0.269335898073623348
0.547000000000000375,0.275602580635938010
0.548000000000000376,0.281630958381023588
0.549000000000000377,0.287425029844525448
0.550000000000000377,0.292988770401586940
0.551000000000000378,0.298326131360159175
0.552000000000000379,0.303441039092919695
0.553000000000000380,0.308337394206911808
0.554000000000000381,0.313019070750143624
0.555000000000000382,0.317489915454275629
0.556000000000000383,0.321753747012653191
0.557000000000000384,0.325814355392818833
0.558000000000000385,0.329675501182784325
0.559000000000000385,0.333340914970212399
0.560000000000000386,0.336814296753794262
0.561000000000000387,0.340099315386012069
0.562000000000000388,0.343199608046561078
0.563000000000000389,0.346118779745658023
0.564000000000000390,0.348860402856520979
0.565000000000000391,0.351428016676272659
0.566000000000000392,0.353825127014568808
0.567000000000000393,0.356055205809201969
0.568000000000000393,0.358121690768038070
0.569000000000000394,0.360027985036534881
0.570000000000000395,0.361777456890211013
0.571000000000000396,0.363373439451365854
0.572000000000000397,0.364819230429377028
0.573000000000000398,0.366118091883992247
0.574000000000000399,0.367273250010866803
0.575000000000000400,0.368287894948831684
0.576000000000000401,0.369165180608187593
0.577000000000000401,0.369908224519443274
0.578000000000000402,0.370520107701907575
0.579000000000000403,0.371003874551555146
0.580000000000000404,0.371362532747526786
0.581000000000000405,0.371599053176783767
0.582000000000000406,0.371716369876278541
0.583000000000000407,0.371717379992141050
0.584000000000000408,0.371604943755327877
0.585000000000000409,0.371381884473204582
0.586000000000000409,0.371050988536534565
0.587000000000000410,0.370615005441386480
0.588000000000000411,0.370076647825450522
0.589000000000000412,0.369438591518257531
0.590000000000000413,0.368703475604864939
0.591000000000000414,0.367873902502498185
0.592000000000000415,0.366952438049706120
0.593000000000000416,0.365941611607586925
0.594000000000000417,0.364843916172635674
0.595000000000000417,0.363661808500765349
0.596000000000000418,0.362397709242131716
0.597000000000000419,0.361054003086281938
0.598000000000000420,0.359633038917276271
0.599000000000000421,0.358137129978368995
0.600000000000000422,0.356568554045849084
0.601000000000000423,0.354929553611697313
0.602000000000000424,0.353222336074659027
0.603000000000000425,0.351449073939388179
0.604000000000000425,0.349611905023312741
0.605000000000000426,0.347712932670888875
0.606000000000000427,0.345754225974849227
0.607000000000000428,0.343737820004257566
0.608000000000000429,0.341665716038832223
0.609000000000000430,0.339539881809497901
0.610000000000000431,0.337362251744600994
0.611000000000000432,0.335134727221680084
0.612000000000000433,0.332859176824437830
0.613000000000000433,0.330537436604592005
0.614000000000000434,0.328171310348415901
0.615000000000000435,0.325762569847650230
