# Polypropylene-R10-GAFF_CYTOSINE
# h[nm],U(h)[kJ/mol]
0.149999999999999994,116.679469236104722540
0.150999999999999995,115.829988242963935363
0.151999999999999996,114.173138177824355921
0.152999999999999997,112.400506109774283914
0.153999999999999998,110.745432237969751554
0.154999999999999999,109.233934931848949645
0.156000000000000000,107.817107268165841560
0.157000000000000001,106.434843306601038648
0.158000000000000002,105.041617444409936866
0.159000000000000002,103.612734302232041728
0.160000000000000003,102.141688757738691606
0.161000000000000004,100.634465886575029003
0.162000000000000005,99.103719288916011010
0.163000000000000006,97.564094211533330281
0.164000000000000007,96.029048053570079446
0.165000000000000008,94.509065459010273003
0.166000000000000009,93.010976430602497089
0.167000000000000010,91.538043544725184120
0.168000000000000010,90.090515100464955367
0.169000000000000011,88.666401838448777539
0.170000000000000012,87.262301780797685069
0.171000000000000013,85.874158628870731036
0.172000000000000014,84.497888886629340277
0.173000000000000015,83.129850303774887266
0.174000000000000016,81.767150274385713260
0.175000000000000017,80.407809323879291696
0.176000000000000018,79.050803864874922056
0.177000000000000018,77.696015992466954003
0.178000000000000019,76.344117939804434059
0.179000000000000020,74.996416312705747487
0.180000000000000021,73.654677427434123160
0.181000000000000022,72.320950757653164942
0.182000000000000023,70.997403181247648263
0.183000000000000024,69.686172739126348574
0.184000000000000025,68.389247164593825801
0.185000000000000026,67.108369596044695982
0.186000000000000026,65.844971657422604494
0.187000000000000027,64.600132442873885452
0.188000000000000028,63.374560809524567162
0.189000000000000029,62.168597687175029876
0.190000000000000030,60.982234774335232430
0.191000000000000031,59.815145927897887645
0.192000000000000032,58.666727697435781863
0.193000000000000033,57.536145742377641454
0.194000000000000034,56.422384248946549690
0.195000000000000034,55.324295891420590010
0.196000000000000035,54.240650325938233323
0.197000000000000036,53.170179639931141935
0.198000000000000037,52.111619588651421964
0.199000000000000038,51.063745820459658376
0.200000000000000039,50.025404617670375274
0.201000000000000040,48.995537956721726403
0.202000000000000041,47.973202920045352471
0.203000000000000042,46.957585674159389555
0.204000000000000042,45.948010367535594867
0.205000000000000043,44.943943401968510898
0.206000000000000044,43.944993597254850215
0.207000000000000045,42.950908805907545229
0.208000000000000046,41.961569547237829170
0.209000000000000047,40.976980223058390607
0.210000000000000048,39.997258454746884127
0.211000000000000049,39.022623047296228549
0.212000000000000050,38.053381043627595659
0.213000000000000050,37.089914284759821328
0.214000000000000051,36.132665840844552463
0.215000000000000052,35.182126626602716613
0.216000000000000053,34.238822463938632268
0.217000000000000054,33.303301805712592909
0.218000000000000055,32.376124288753793223
0.219000000000000056,31.457850241852838735
0.220000000000000057,30.549031236108532994
0.221000000000000058,29.650201730857979499
0.222000000000000058,28.761871838554014857
0.223000000000000059,27.884521206331026377
0.224000000000000060,27.018593990458377618
0.225000000000000061,26.164494882204348158
0.226000000000000062,25.322586129545285871
0.227000000000000063,24.493185488347819501
0.228000000000000064,23.676565028799636536
0.229000000000000065,22.872950717631344020
0.230000000000000066,22.082522693730236796
0.231000000000000066,21.305416153771790988
0.232000000000000067,20.541722765184651678
0.233000000000000068,19.791492525832076410
0.234000000000000069,19.054735992974805470
0.235000000000000070,18.331426808138100881
0.236000000000000071,17.621504449224669742
0.237000000000000072,16.924877146403510153
0.238000000000000073,16.241424903797870627
0.239000000000000073,15.571002574650421479
0.240000000000000074,14.913442943333484081
0.241000000000000075,14.268559773202502683
0.242000000000000076,13.636150784770919131
0.243000000000000077,13.016000533950819573
0.244000000000000078,12.407883165103616108
0.245000000000000079,11.811565018337720545
0.246000000000000080,11.226807074851397061
0.247000000000000081,10.653367228126608524
0.248000000000000081,10.091002372429985101
0.249000000000000082,9.539470303364367965
0.250000000000000111,8.998531428144932676
0.251000000000000112,8.467950285856614911
0.252000000000000113,7.947496880196441182
0.253000000000000114,7.436947829134811450
0.254000000000000115,6.936087337557035326
0.255000000000000115,6.444708000295960915
0.256000000000000116,5.962611444055173848
0.257000000000000117,5.489608817573636834
0.258000000000000118,5.025521140018518906
0.259000000000000119,4.570179518033052446
0.260000000000000120,4.123425242132789492
0.261000000000000121,3.685109773256982635
0.262000000000000122,3.255094630259333321
0.263000000000000123,2.833251188984743152
0.264000000000000123,2.419460403340287780
0.265000000000000124,2.013612458447767928
0.266000000000000125,1.615606365574361547
0.267000000000000126,1.225349508092200557
0.268000000000000127,0.842757147227439773
0.269000000000000128,0.467751895837953680
0.270000000000000129,0.100263167913599641
0.271000000000000130,-0.259773389066117466
0.272000000000000131,-0.612416472346778207
0.273000000000000131,-0.957719706681296357
0.274000000000000132,-1.295732226232986006
0.275000000000000133,-1.626499250700675248
0.276000000000000134,-1.950062651299489191
0.277000000000000135,-2.266461502744077983
0.278000000000000136,-2.575732617874242791
0.279000000000000137,-2.877911062031234479
0.280000000000000138,-3.173030644736470673
0.281000000000000139,-3.461124386642185691
0.282000000000000139,-3.742224960113090138
0.283000000000000140,-4.016365102161235434
0.284000000000000141,-4.283577998791044728
0.285000000000000142,-4.543897640119508807
0.286000000000000143,-4.797359145917363676
0.287000000000000144,-5.043999061471578393
0.288000000000000145,-5.283855623899414766
0.289000000000000146,-5.516968999248083705
0.290000000000000147,-5.743381490896693364
0.291000000000000147,-5.963137719935236447
0.292000000000000148,-6.176284778334440340
0.293000000000000149,-6.382872355837665879
0.294000000000000150,-6.582952841606460659
0.295000000000000151,-6.776581401733237087
0.296000000000000152,-6.963816033801121463
0.297000000000000153,-7.144717599722274493
0.298000000000000154,-7.319349838124075802
0.299000000000000155,-7.487779357577879935
0.300000000000000155,-7.650075611979259449
0.301000000000000156,-7.806310859392579182
0.302000000000000157,-7.956560105667906058
0.303000000000000158,-8.100901034124586175
0.304000000000000159,-8.239413922575879567
0.305000000000000160,-8.372181548941867391
0.306000000000000161,-8.499289086666182769
0.307000000000000162,-8.620823991115013740
0.308000000000000163,-8.736875878096181935
0.309000000000000163,-8.847536395592117131
0.310000000000000164,-8.952899089754096096
0.311000000000000165,-9.053059266156093798
0.312000000000000166,-9.148113847256794884
0.313000000000000167,-9.238161226966770556
0.314000000000000168,-9.323301123165968818
0.315000000000000169,-9.403634428964565473
0.316000000000000170,-9.479263063448261306
0.317000000000000171,-9.550289822597198608
0.318000000000000171,-9.616818231016946328
0.319000000000000172,-9.678952395069982728
0.320000000000000173,-9.736796857946950823
0.321000000000000174,-9.790456457169581128
0.322000000000000175,-9.840036184970914590
0.323000000000000176,-9.885641051953836467
0.324000000000000177,-9.927375954386210566
0.325000000000000178,-9.965345545449363129
0.326000000000000179,-9.999654110717923317
0.327000000000000179,-10.030405448111022082
0.328000000000000180,-10.057702752519471545
0.329000000000000181,-10.081648505280238481
0.330000000000000182,-10.102344368637048433
0.331000000000000183,-10.119891085296949029
0.332000000000000184,-10.134388383163990710
0.333000000000000185,-10.145934885305557316
0.334000000000000186,-10.154628025182381279
0.335000000000000187,-10.160563967150698872
0.336000000000000187,-10.163837532224581750
0.337000000000000188,-10.164542129066747478
0.338000000000000189,-10.162769690159352720
0.339000000000000190,-10.158610613089923191
0.340000000000000191,-10.152153706873114913
0.341000000000000192,-10.143486143216335904
0.342000000000000193,-10.132693412625309648
0.343000000000000194,-10.119859285235571988
0.344000000000000195,-10.105065776246512144
0.345000000000000195,-10.088393115827145152
0.346000000000000196,-10.069919723355424068
0.347000000000000197,-10.049722185847615563
0.348000000000000198,-10.027875240429223069
0.349000000000000199,-10.004451760695127760
0.350000000000000200,-9.979522746803723976
0.351000000000000201,-9.953157319147422299
0.352000000000000202,-9.925422715440564758
0.353000000000000203,-9.896384291065007943
0.354000000000000203,-9.866105522513418435
0.355000000000000204,-9.834648013770699748
0.356000000000000205,-9.802071505475078439
0.357000000000000206,-9.768433886701789248
0.358000000000000207,-9.733791209213862317
0.359000000000000208,-9.698197704027316846
0.360000000000000209,-9.661705800140257594
0.361000000000000210,-9.624366145278461460
0.362000000000000210,-9.586227628513302790
0.363000000000000211,-9.547337404611225153
0.364000000000000212,-9.507740919977754501
0.365000000000000213,-9.467481940062786094
0.366000000000000214,-9.426602578098005836
0.367000000000000215,-9.385143325041299889
0.368000000000000216,-9.343143080607436701
0.369000000000000217,-9.300639185268426701
0.370000000000000218,-9.257667453111512401
0.371000000000000218,-9.214262205446930309
0.372000000000000219,-9.170456305062337776
0.373000000000000220,-9.126281191024942174
0.374000000000000221,-9.081766913937009633
0.375000000000000222,-9.036942171554510850
0.376000000000000223,-8.991834344683619307
0.377000000000000224,-8.946469533273340602
0.378000000000000225,-8.900872592627422364
0.379000000000000226,-8.855067169662500959
0.380000000000000226,-8.809075739143789718
0.381000000000000227,-8.762919639833381069
0.382000000000000228,-8.716619110490452016
0.383000000000000229,-8.670193325666271988
0.384000000000000230,-8.623660431240676161
0.385000000000000231,-8.577037579650497179
0.386000000000000232,-8.530340964763658107
0.387000000000000233,-8.483585856356294030
0.388000000000000234,-8.436786634153373043
0.389000000000000234,-8.389956821396726383
0.390000000000000235,-8.343109117907095751
0.391000000000000236,-8.296255432610154301
0.392000000000000237,-8.249406915498976645
0.393000000000000238,-8.202573989008389077
0.394000000000000239,-8.155766378778988468
0.395000000000000240,-8.108993143791440872
0.396000000000000241,-8.062262705853717293
0.397000000000000242,-8.015582878426386060
0.398000000000000242,-7.968960894773234216
0.399000000000000243,-7.922403435426440765
0.400000000000000244,-7.875916654957554108
0.401000000000000245,-7.829506208047421367
0.402000000000000246,-7.783177274849748528
0.403000000000000247,-7.736934585644869244
0.404000000000000248,-7.690782444781691929
0.405000000000000249,-7.644724753907334858
0.406000000000000250,-7.598765034485170489
0.407000000000000250,-7.552906449603571382
0.408000000000000251,-7.507151825078480556
0.409000000000000252,-7.461503669854399057
0.410000000000000253,-7.415964195709095819
0.411000000000000254,-7.370535336268571491
0.412000000000000255,-7.325218765339494453
0.413000000000000256,-7.280015914567306012
0.414000000000000257,-7.234927990428739797
0.415000000000000258,-7.189955990568447142
0.416000000000000258,-7.145100719489744456
0.417000000000000259,-7.100362803610363649
0.418000000000000260,-7.055742705694301620
0.419000000000000261,-7.011240738671564721
0.420000000000000262,-6.966857078857830565
0.421000000000000263,-6.922591778586536293
0.422000000000000264,-6.878444778266064930
0.423000000000000265,-6.834415917875067414
0.424000000000000266,-6.790504947909260736
0.425000000000000266,-6.746711539792920931
0.426000000000000267,-6.703035295768815516
0.427000000000000268,-6.659475758280149371
0.428000000000000269,-6.616032418858301511
0.429000000000000270,-6.572704726530179009
0.430000000000000271,-6.529492095758944181
0.431000000000000272,-6.486393913931999933
0.432000000000000273,-6.443409548409936072
0.433000000000000274,-6.400538353150240667
0.434000000000000274,-6.357779674919297186
0.435000000000000275,-6.315132859106345364
0.436000000000000276,-6.272597255152740914
0.437000000000000277,-6.230172221609802108
0.438000000000000278,-6.187857130838434472
0.439000000000000279,-6.145651373363482328
0.440000000000000280,-6.103554361895564107
0.441000000000000281,-6.061565535033047070
0.442000000000000282,-6.019684360656575528
0.443000000000000282,-5.977910339028253972
0.444000000000000283,-5.936243005607586554
0.445000000000000284,-5.894681933595817824
0.446000000000000285,-5.853226736220181969
0.447000000000000286,-5.811877068769478072
0.448000000000000287,-5.770632630391748563
0.449000000000000288,-5.729493165665116905
0.450000000000000289,-5.688458465952058063
0.451000000000000290,-5.647528370547518328
0.452000000000000290,-5.606702767630904916
0.453000000000000291,-5.565981595031547435
0.454000000000000292,-5.525364840817322154
0.455000000000000293,-5.484852543715480699
0.456000000000000294,-5.444444793374794145
0.457000000000000295,-5.404141730477652672
0.458000000000000296,-5.363943546710542520
0.459000000000000297,-5.323850484601196698
0.460000000000000298,-5.283862837230203446
0.461000000000000298,-5.243980947824918637
0.462000000000000299,-5.204205209242990904
0.463000000000000300,-5.164536063352691109
0.464000000000000301,-5.124974000317055634
0.465000000000000302,-5.085519557788495959
0.466000000000000303,-5.046173320020260533
0.467000000000000304,-5.006935916901094963
0.468000000000000305,-4.967808022918992705
0.469000000000000306,-4.928790356059794320
0.470000000000000306,-4.889883676646288535
0.471000000000000307,-4.851088786122931928
0.472000000000000308,-4.812406525791500300
0.473000000000000309,-4.773837775502404845
0.474000000000000310,-4.735383452306457741
0.475000000000000311,-4.697044509071479190
0.476000000000000312,-4.658821933068201915
0.477000000000000313,-4.620716744529347331
0.478000000000000314,-4.582729995185940375
0.479000000000000314,-4.544862766784603103
0.480000000000000315,-4.507116169589222565
0.481000000000000316,-4.469491340870583862
0.482000000000000317,-4.431989443386996186
0.483000000000000318,-4.394611663859073758
0.484000000000000319,-4.357359211441506730
0.485000000000000320,-4.320233316194594053
0.486000000000000321,-4.283235227558102487
0.487000000000000322,-4.246366212829924436
0.488000000000000322,-4.209627555651735520
0.489000000000000323,-4.173020554504027757
0.490000000000000324,-4.136546521212331129
0.491000000000000325,-4.100206779466693874
0.492000000000000326,-4.064002663356098388
0.493000000000000327,-4.027935515919592646
0.494000000000000328,-3.992006687715611513
0.495000000000000329,-3.956217535410981867
0.496000000000000330,-3.920569420390910942
0.497000000000000330,-3.885063707391291477
0.498000000000000331,-3.849701763154302903
0.499000000000000332,-3.814484955108579989
0.500000000000000333,-3.779414650074719439
0.501000000000000334,-3.744492212997069913
0.502000000000000335,-3.709719005702622585
0.503000000000000336,-3.675096385687683487
0.504000000000000337,-3.640625704932959561
0.505000000000000338,-3.606308308747629976
0.506000000000000338,-3.572145534642912512
0.507000000000000339,-3.538138711235517597
0.508000000000000340,-3.504289157181349701
0.509000000000000341,-3.470598180139860212
0.510000000000000342,-3.437067075769126401
0.511000000000000343,-3.403697126752004642
0.512000000000000344,-3.370489601853383643
0.513000000000000345,-3.337445755008699333
0.514000000000000346,-3.304566824443748718
0.515000000000000346,-3.271854031825736975
0.516000000000000347,-3.239308581445565327
0.517000000000000348,-3.206931659431334403
0.518000000000000349,-3.174724432992761525
0.519000000000000350,-3.142688049696577668
0.520000000000000351,-3.110823636772527934
0.521000000000000352,-3.079132300449891613
0.522000000000000353,-3.047615125324185215
0.523000000000000353,-3.016273173753769576
0.524000000000000354,-2.985107485286163431
0.525000000000000355,-2.954119076113586484
0.526000000000000356,-2.923308938557478420
0.527000000000000357,-2.892678040581645238
0.528000000000000358,-2.862227325333507988
0.529000000000000359,-2.831957710713247867
0.530000000000000360,-2.801870088970223716
0.531000000000000361,-2.771965326326387036
0.532000000000000361,-2.742244262626122087
0.533000000000000362,-2.712707711012147360
0.534000000000000363,-2.683356457626920211
0.535000000000000364,-2.654191261339126306
0.536000000000000365,-2.625212853494710341
0.537000000000000366,-2.596421937692012794
0.538000000000000367,-2.567819189580386130
0.539000000000000368,-2.539405256681974254
0.540000000000000369,-2.511180758235890043
0.541000000000000369,-2.483146285064520509
0.542000000000000370,-2.455302399461234852
0.543000000000000371,-2.427649635099071723
0.544000000000000372,-2.400188496959877238
0.545000000000000373,-2.372919461283333753
0.546000000000000374,-2.345842975535330943
0.547000000000000375,-2.318959458395214668
0.548000000000000376,-2.292269299761348300
0.549000000000000377,-2.265772860774458941
0.550000000000000377,-2.239470473858237831
0.551000000000000378,-2.213362442776696248
0.552000000000000379,-2.187449042707764413
0.553000000000000380,-2.161730520332584504
0.554000000000000381,-2.136207093939990642
0.555000000000000382,-2.110878953545755277
0.556000000000000383,-2.085746261025930970
0.557000000000000384,-2.060809150263996692
0.558000000000000385,-2.036067727311124287
0.559000000000000385,-2.011522070559242259
0.560000000000000386,-1.987172230926296468
0.561000000000000387,-1.963018232053315604
0.562000000000000388,-1.939060070512760081
0.563000000000000389,-1.915297716027748676
0.564000000000000390,-1.891731111701652868
0.565000000000000391,-1.868360174257660544
0.566000000000000392,-1.845184794287835661
0.567000000000000393,-1.822204836511283954
0.568000000000000393,-1.799420140040957294
0.569000000000000394,-1.776830518658685021
0.570000000000000395,-1.754435761098089630
0.571000000000000396,-1.732235631334866355
0.572000000000000397,-1.710229868884174831
0.573000000000000398,-1.688418189104619715
0.574000000000000399,-1.666800283508570235
0.575000000000000400,-1.645375820078328388
0.576000000000000401,-1.624144443587882680
0.577000000000000401,-1.603105775929873023
0.578000000000000402,-1.582259416447353795
0.579000000000000403,-1.561604942270093499
0.580000000000000404,-1.541141908655090598
0.581000000000000405,-1.520869849330892309
0.582000000000000406,-1.500788276845511415
0.583000000000000407,-1.480896682917550278
0.584000000000000408,-1.461194538790302033
0.585000000000000409,-1.441681295588484568
0.586000000000000409,-1.422356384677351482
0.587000000000000410,-1.403219218023921799
0.588000000000000411,-1.384269188560005581
0.589000000000000412,-1.365505670546854233
0.590000000000000413,-1.346928019941078913
0.591000000000000414,-1.328535574761670945
0.592000000000000415,-1.310327655457883989
0.593000000000000416,-1.292303565277680866
0.594000000000000417,-1.274462590636580739
0.595000000000000417,-1.256804001486737876
0.596000000000000418,-1.239327051685862546
0.597000000000000419,-1.222030979366035774
0.598000000000000420,-1.204915007301982754
0.599000000000000421,-1.187978343278791593
0.600000000000000422,-1.171220180458788729
0.601000000000000423,-1.154639697747453120
0.602000000000000424,-1.138236060158171581
0.603000000000000425,-1.122008419175684724
0.604000000000000425,-1.105955913118062961
0.605000000000000426,-1.090077667497040492
0.606000000000000427,-1.074372795376653755
0.607000000000000428,-1.058840397729837957
0.608000000000000429,-1.043479563793169085
0.609000000000000430,-1.028289371419240705
0.610000000000000431,-1.013268887426920006
0.611000000000000432,-0.998417167949096962
0.612000000000000433,-0.983733258777924724
