# Polypropylene-R10-GAFF_URACILLACTAM
# h[nm],U(h)[kJ/mol]
0.149999999999999994,111.427226729380436154
0.150999999999999995,110.338523571965964720
0.151999999999999996,108.824559331469302492
0.152999999999999997,107.253012941424003657
0.153999999999999998,105.749541289399374477
0.154999999999999999,104.329278907139183730
0.156000000000000000,102.966656460903294601
0.157000000000000001,101.629337246898415970
0.158000000000000002,100.292212110381896650
0.159000000000000002,98.941041775243107281
0.160000000000000003,97.571312398107693298
0.161000000000000004,96.185375216765294226
0.162000000000000005,94.789435816177928018
0.163000000000000006,93.391083431244311441
0.164000000000000007,91.997568668703891603
0.165000000000000008,90.614794547104935418
0.166000000000000009,89.246881756765532145
0.167000000000000010,87.896142280326515106
0.168000000000000010,86.563307885741323844
0.169000000000000011,85.247889006495370268
0.170000000000000012,83.948572549641738760
0.171000000000000013,82.663597731532831858
0.172000000000000014,81.391074306101245384
0.173000000000000015,80.129226781031093196
0.174000000000000016,78.876561775186686987
0.175000000000000017,77.631964421786193498
0.176000000000000018,76.394734686609183427
0.177000000000000018,75.164576634849879611
0.178000000000000019,73.941553903346630250
0.179000000000000020,72.726023615984459525
0.180000000000000021,71.518559257448544031
0.181000000000000022,70.319870987816969432
0.182000000000000023,69.130729809842208056
0.183000000000000024,67.951900067385892612
0.184000000000000025,66.784083058669608590
0.185000000000000026,65.627873139201554409
0.186000000000000026,64.483726576352211168
0.187000000000000027,63.351942585998585855
0.188000000000000028,62.232655402201032757
0.189000000000000029,61.125835866862509249
0.190000000000000030,60.031300838755171867
0.191000000000000031,58.948728672220568114
0.192000000000000032,57.877679070447001664
0.193000000000000033,56.817615745965042606
0.194000000000000034,55.767930496116470351
0.195000000000000034,54.727967502748676054
0.196000000000000035,53.697046876762954071
0.197000000000000036,52.674486676949733521
0.198000000000000037,51.659622829808334643
0.199000000000000038,50.651826556762650000
0.200000000000000039,49.650519073718200502
0.201000000000000040,48.655183463527372112
0.202000000000000041,47.665373734352129986
0.203000000000000042,46.680721166908767827
0.204000000000000042,45.700938122657781548
0.205000000000000043,44.725819535152034234
0.206000000000000044,43.755242340224874908
0.207000000000000045,42.789163119845447625
0.208000000000000046,41.827614241625255431
0.209000000000000047,40.870698773358228095
0.210000000000000048,39.918584441686505215
0.211000000000000049,38.971496887869626846
0.212000000000000050,38.029712453342177980
0.213000000000000050,37.093550704702131782
0.214000000000000051,36.163366883171207178
0.215000000000000052,35.239544438411158467
0.216000000000000053,34.322487781658892914
0.217000000000000054,33.412615369086346107
0.218000000000000055,32.510353203566140223
0.219000000000000056,31.616128821971642537
0.220000000000000057,30.730365815973879506
0.221000000000000058,29.853478917155836569
0.222000000000000058,28.985869662182217610
0.223000000000000059,28.127922640736102267
0.224000000000000060,27.280002317892428465
0.225000000000000061,26.442450413444667845
0.226000000000000062,25.615583813308727912
0.227000000000000063,24.799692982351196235
0.228000000000000064,23.995040843675994324
0.229000000000000065,23.201862086391344064
0.230000000000000066,22.420362862014400207
0.231000000000000066,21.650720828794657535
0.232000000000000067,20.893085503206457076
0.233000000000000068,20.147578878534073255
0.234000000000000069,19.414296271723792131
0.235000000000000070,18.693307361388562526
0.236000000000000071,17.984657381918008667
0.237000000000000072,17.288368440973723494
0.238000000000000073,16.604440930157529976
0.239000000000000073,15.932855001256672978
0.240000000000000074,15.273572083130108723
0.241000000000000075,14.626536416959215359
0.242000000000000076,13.991676590195842422
0.243000000000000077,13.368907052068795593
0.244000000000000078,12.758129595929514011
0.245000000000000079,12.159234796006289869
0.246000000000000080,11.572103388280904568
0.247000000000000081,10.996607587188695021
0.248000000000000081,10.432612331669801620
0.249000000000000082,9.879976455761452669
0.250000000000000111,9.338553780418820338
0.251000000000000112,8.808194124589791230
0.252000000000000113,8.288744234749271911
0.253000000000000114,7.780048633132267355
0.254000000000000115,7.281950385793618530
0.255000000000000115,6.794291792380806605
0.256000000000000116,6.316915000138754621
0.257000000000000117,5.849662545184722617
0.258000000000000118,5.392377824505953932
0.259000000000000119,4.944905502451516277
0.260000000000000120,4.507091855723105667
0.261000000000000121,4.078785061027085490
0.262000000000000122,3.659835429638712334
0.263000000000000123,3.250095593160152507
0.264000000000000123,2.849420644731902375
0.265000000000000124,2.457668239892221607
0.266000000000000125,2.074698661176261005
0.267000000000000126,1.700374850413320260
0.268000000000000127,1.334562412521391073
0.269000000000000128,0.977129594420158676
0.270000000000000129,0.627947242489377389
0.271000000000000130,0.286888741794416924
0.272000000000000131,-0.046170059911001184
0.273000000000000131,-0.371350940611624991
0.274000000000000132,-0.688773402310871807
0.275000000000000133,-0.998554776804690625
0.276000000000000134,-1.300810336802245448
0.277000000000000135,-1.595653410453634402
0.278000000000000136,-1.883195497546736430
0.279000000000000137,-2.163546385827952001
0.280000000000000138,-2.436814266086064329
0.281000000000000139,-2.703105844813889824
0.282000000000000139,-2.962526453426938655
0.283000000000000140,-3.215180153173454958
0.284000000000000141,-3.461169835014101359
0.285000000000000142,-3.700597313883422945
0.286000000000000143,-3.933563416868344653
0.287000000000000144,-4.160168064951493605
0.288000000000000145,-4.380510348070462356
0.289000000000000146,-4.594688593336089255
0.290000000000000147,-4.802800426337195283
0.291000000000000147,-5.004942825532845418
0.292000000000000148,-5.201212169799652507
0.293000000000000149,-5.391704279258631161
0.294000000000000150,-5.576514449556578157
0.295000000000000151,-5.755737479819553748
0.296000000000000152,-5.929467694532069011
0.297000000000000153,-6.097798959625611914
0.298000000000000154,-6.260824693084244608
0.299000000000000155,-6.418637870393924416
0.300000000000000155,-6.571331025176422536
0.301000000000000156,-6.718996245358239250
0.302000000000000157,-6.861725165231163714
0.303000000000000158,-6.999608953763051034
0.304000000000000159,-7.132738299516939051
0.305000000000000160,-7.261203392532702416
0.306000000000000161,-7.385093903519811320
0.307000000000000162,-7.504498960701376120
0.308000000000000163,-7.619507124639897100
0.309000000000000163,-7.730206361363573642
0.310000000000000164,-7.836684014099505546
0.311000000000000165,-7.939026773906116219
0.312000000000000166,-8.037320649482827761
0.313000000000000167,-8.131650936419609010
0.314000000000000168,-8.222102186133460222
0.315000000000000169,-8.308758174722992607
0.316000000000000170,-8.391701871956289693
0.317000000000000171,-8.471015410590947425
0.318000000000000171,-8.546780056209385634
0.319000000000000172,-8.619076177736875621
0.320000000000000173,-8.687983218794011364
0.321000000000000174,-8.753579670020439352
0.322000000000000175,-8.815943042492015991
0.323000000000000176,-8.875149842339272510
0.324000000000000177,-8.931275546661634479
0.325000000000000178,-8.984394580818422682
0.326000000000000179,-9.034580297165755169
0.327000000000000179,-9.081904955296016269
0.328000000000000180,-9.126439703825710126
0.329000000000000181,-9.168254563766994991
0.330000000000000182,-9.207418413507841848
0.331000000000000183,-9.243998975417087038
0.332000000000000184,-9.278062804081443460
0.333000000000000185,-9.309675276173866365
0.334000000000000186,-9.338900581945175361
0.335000000000000187,-9.365801718323986336
0.336000000000000187,-9.390440483604059807
0.337000000000000188,-9.412877473692027763
0.338000000000000189,-9.433172079884030836
0.339000000000000190,-9.451382488134834503
0.340000000000000191,-9.467565679778923382
0.341000000000000192,-9.481777433659857479
0.342000000000000193,-9.494072329620683703
0.343000000000000194,-9.504503753305911573
0.344000000000000195,-9.513123902222849537
0.345000000000000195,-9.519983793008858441
0.346000000000000196,-9.525133269848945261
0.347000000000000197,-9.528621013987404353
0.348000000000000198,-9.530494554276279118
0.349000000000000199,-9.530800278702702855
0.350000000000000200,-9.529583446837218474
0.351000000000000201,-9.526888203144885381
0.352000000000000202,-9.522757591101356667
0.353000000000000203,-9.517233568056543191
0.354000000000000203,-9.510357020789067306
0.355000000000000204,-9.502167781695458615
0.356000000000000205,-9.492704645559079779
0.357000000000000206,-9.482005386845045791
0.358000000000000207,-9.470106777468064507
0.359000000000000208,-9.457044604982179692
0.360000000000000209,-9.442853691142305550
0.361000000000000210,-9.427567910789134586
0.362000000000000210,-9.411220211010686398
0.363000000000000211,-9.393842630535086613
0.364000000000000212,-9.375466319311325236
0.365000000000000213,-9.356121558235972913
0.366000000000000214,-9.335837778985981217
0.367000000000000215,-9.314643583919135494
0.368000000000000216,-9.292566766005865730
0.369000000000000217,-9.269634328757526021
0.370000000000000218,-9.245872506118340439
0.371000000000000218,-9.221306782289779846
0.372000000000000219,-9.195961911457981586
0.373000000000000220,-9.169861937396586171
0.374000000000000221,-9.143030212918979771
0.375000000000000222,-9.115489419155579753
0.376000000000000223,-9.087261584633697709
0.377000000000000224,-9.058368104138775578
0.378000000000000225,-9.028829757337584638
0.379000000000000226,-8.998666727145423039
0.380000000000000226,-8.967898617820896590
0.381000000000000227,-8.936544472773176651
0.382000000000000228,-8.904622792068140669
0.383000000000000229,-8.872151549621126065
0.384000000000000230,-8.839148210065186362
0.385000000000000231,-8.805629745285235899
0.386000000000000232,-8.771612650609363016
0.387000000000000233,-8.737112960650023297
0.388000000000000234,-8.702146264788623853
0.389000000000000234,-8.666727722298393388
0.390000000000000235,-8.630872077101017226
0.391000000000000236,-8.594593672153926889
0.392000000000000237,-8.557906463465537072
0.393000000000000238,-8.520824033737030234
0.394000000000000239,-8.483359605629724243
0.395000000000000240,-8.445526054658028414
0.396000000000000241,-8.407335921708689597
0.397000000000000242,-8.368801425187495369
0.398000000000000242,-8.329934472795558875
0.399000000000000243,-8.290746672937569173
0.400000000000000244,-8.251249345765112153
0.401000000000000245,-8.211453533858684040
0.402000000000000246,-8.171370012552310769
0.403000000000000247,-8.131009299905340271
0.404000000000000248,-8.090381666326177168
0.405000000000000249,-8.049497143853235670
0.406000000000000250,-8.008365535098551646
0.407000000000000250,-7.966996421860008226
0.408000000000000251,-7.925399173408122167
0.409000000000000252,-7.883582954453848046
0.410000000000000253,-7.841556732803860896
0.411000000000000254,-7.799329286710053211
0.412000000000000255,-7.756909211920135938
0.413000000000000256,-7.714304928436388487
0.414000000000000257,-7.671524686989570796
0.415000000000000258,-7.628576575235369361
0.416000000000000258,-7.585468523680543917
0.417000000000000259,-7.542208311346167982
0.418000000000000260,-7.498803571175341354
0.419000000000000261,-7.455261795192731356
0.420000000000000262,-7.411590339423396401
0.421000000000000263,-7.367796428578233581
0.422000000000000264,-7.323887160513407935
0.423000000000000265,-7.279869510471081995
0.424000000000000266,-7.235750335108792619
0.425000000000000266,-7.191536376324529911
0.426000000000000267,-7.147234264884812838
0.427000000000000268,-7.102850523862717758
0.428000000000000269,-7.058391571892840943
0.429000000000000270,-7.013863726250147757
0.430000000000000271,-6.969273205759310308
0.431000000000000272,-6.924626133541383233
0.432000000000000273,-6.879928539604189375
0.433000000000000274,-6.835186363282947930
0.434000000000000274,-6.790405455537370294
0.435000000000000275,-6.745591581111402668
0.436000000000000276,-6.700750420561699450
0.437000000000000277,-6.655887572160587240
0.438000000000000278,-6.611008553679404542
0.439000000000000279,-6.566118804057789582
0.440000000000000280,-6.521223684964320810
0.441000000000000281,-6.476328482253909335
0.442000000000000282,-6.431438407327125795
0.443000000000000282,-6.386558598396398168
0.444000000000000283,-6.341694121664106731
0.445000000000000284,-6.296849972417208008
0.446000000000000285,-6.252031076042979585
0.447000000000000286,-6.207242288970486577
0.448000000000000287,-6.162488399541835804
0.449000000000000288,-6.117774128817623946
0.450000000000000289,-6.073104131320400612
0.451000000000000290,-6.028482995720150228
0.452000000000000290,-5.983915245465516008
0.453000000000000291,-5.939405339364300929
0.454000000000000292,-5.894957672116817093
0.455000000000000293,-5.850576574805328001
0.456000000000000294,-5.806266315342845097
0.457000000000000295,-5.762031098884366820
0.458000000000000296,-5.717875068203414735
0.459000000000000297,-5.673802304036851929
0.460000000000000298,-5.629816825400512315
0.461000000000000298,-5.585922589878391520
0.462000000000000299,-5.542123493887755714
0.463000000000000300,-5.498423372922561114
0.464000000000000301,-5.454826001777447253
0.465000000000000302,-5.411335094754473829
0.466000000000000303,-5.367954305854510721
0.467000000000000304,-5.324687228955381713
0.468000000000000305,-5.281537397978468995
0.469000000000000306,-5.238508287045555711
0.470000000000000306,-5.195603310627613602
0.471000000000000307,-5.152825823686935536
0.472000000000000308,-5.110179121814266701
0.473000000000000309,-5.067666441362148610
0.474000000000000310,-5.025290959575896110
0.475000000000000311,-4.983055794723298071
0.476000000000000312,-4.940964006224369598
0.477000000000000313,-4.899018594781993308
0.478000000000000314,-4.857222502514616735
0.479000000000000314,-4.815578613091875404
0.480000000000000315,-4.774089751873946241
0.481000000000000316,-4.732758686055549724
0.482000000000000317,-4.691588124815178062
0.483000000000000318,-4.650580719470356783
0.484000000000000319,-4.609739063639467282
0.485000000000000320,-4.569065693410748530
0.486000000000000321,-4.528563087518954866
0.487000000000000322,-4.488233667530143300
0.488000000000000322,-4.448079798034946464
0.489000000000000323,-4.408103786850836592
0.490000000000000324,-4.368307885233539523
0.491000000000000325,-4.328694288097988618
0.492000000000000326,-4.289265134248982925
0.493000000000000327,-4.250022506621840890
0.494000000000000328,-4.210968432533126027
0.495000000000000329,-4.172104883941653242
0.496000000000000330,-4.133433777719795366
0.497000000000000330,-4.094956975935273746
0.498000000000000331,-4.056676286143305887
0.499000000000000332,-4.018593461689337509
0.500000000000000333,-3.980710202022168964
0.501000000000000334,-3.943028153017483106
0.502000000000000335,-3.905548907311788387
0.503000000000000336,-3.868274004646618636
0.504000000000000337,-3.831204932222908699
0.505000000000000338,-3.794343125065438471
0.506000000000000338,-3.757689966397203651
0.507000000000000339,-3.721246788023548469
0.508000000000000340,-3.685014870725873859
0.509000000000000341,-3.648995444664839827
0.510000000000000342,-3.613189689792700499
0.511000000000000343,-3.577598736274723024
0.512000000000000344,-3.542223664919346593
0.513000000000000345,-3.507065507616936806
0.514000000000000346,-3.472125247786894242
0.515000000000000346,-3.437403820832796164
0.516000000000000347,-3.402902114605375061
0.517000000000000348,-3.368620969873138193
0.518000000000000349,-3.334561180800179159
0.519000000000000350,-3.300723495431123755
0.520000000000000351,-3.267108616182770042
0.521000000000000352,-3.233717200342253850
0.522000000000000353,-3.200549860571396898
0.523000000000000353,-3.167607165416931547
0.524000000000000354,-3.134889639826454744
0.525000000000000355,-3.102397765669617336
0.526000000000000356,-3.070131982264418635
0.527000000000000357,-3.038092686908300255
0.528000000000000358,-3.006280235413625324
0.529000000000000359,-2.974694942647464480
0.530000000000000360,-2.943337083075184601
0.531000000000000361,-2.912206891307723033
0.532000000000000361,-2.881304562652164947
0.533000000000000362,-2.850630253665392466
0.534000000000000363,-2.820184082710503581
0.535000000000000364,-2.789966130515719289
0.536000000000000365,-2.759976440735536052
0.537000000000000366,-2.730215020513835356
0.538000000000000367,-2.700681841048635512
0.539000000000000368,-2.671376838158363576
0.540000000000000369,-2.642299912849177534
0.541000000000000369,-2.613450931883313011
0.542000000000000370,-2.584829728348011280
0.543000000000000371,-2.556436102224894480
0.544000000000000372,-2.528269820959516689
0.545000000000000373,-2.500330620030861262
0.546000000000000374,-2.472618203520497993
0.547000000000000375,-2.445132244681259337
0.548000000000000376,-2.417872386505163895
0.549000000000000377,-2.390838242290379778
0.550000000000000377,-2.364029396206984934
0.551000000000000378,-2.337445403861377891
0.552000000000000379,-2.311085792859096433
0.553000000000000380,-2.284950063365855044
0.554000000000000381,-2.259037688666584831
0.555000000000000382,-2.233348115722392446
0.556000000000000383,-2.207880765725075189
0.557000000000000384,-2.182635034649230477
0.558000000000000385,-2.157610293801594192
0.559000000000000385,-2.132805890367603929
0.560000000000000386,-2.108221147954906893
0.561000000000000387,-2.083855367133746306
0.562000000000000388,-2.059707825974009587
0.563000000000000389,-2.035777780578853502
0.564000000000000390,-2.012064465614729958
0.565000000000000391,-1.988567094837689009
0.566000000000000392,-1.965284861615834711
0.567000000000000393,-1.942216939447836577
0.568000000000000393,-1.919362482477311671
0.569000000000000394,-1.896720626003031596
0.570000000000000395,-1.874290486984839799
0.571000000000000396,-1.852071164545109783
0.572000000000000397,-1.830061740465763309
0.573000000000000398,-1.808261279680618117
0.574000000000000399,-1.786668830763121552
0.575000000000000400,-1.765283426409240075
0.576000000000000401,-1.744104083915539949
0.577000000000000401,-1.723129805652356739
0.578000000000000402,-1.702359579531923073
0.579000000000000403,-1.681792379471455989
0.580000000000000404,-1.661427165851142806
0.581000000000000405,-1.641262885966901397
0.582000000000000406,-1.621298474477950169
0.583000000000000407,-1.601532853849048310
0.584000000000000408,-1.581964934787440935
0.585000000000000409,-1.562593616674411878
0.586000000000000409,-1.543417787991422374
0.587000000000000410,-1.524436326740822079
0.588000000000000411,-1.505648100861050942
0.589000000000000412,-1.487051968636373900
0.590000000000000413,-1.468646779101044686
0.591000000000000414,-1.450431372437939403
0.592000000000000415,-1.432404580371632763
0.593000000000000416,-1.414565226555856148
0.594000000000000417,-1.396912126955363043
0.595000000000000417,-1.379444090222253561
0.596000000000000418,-1.362159918066563113
0.597000000000000419,-1.345058405621369468
0.598000000000000420,-1.328138341802177269
0.599000000000000421,-1.311398509660756329
0.600000000000000422,-1.294837686733330440
0.601000000000000423,-1.278454645383185762
0.602000000000000424,-1.262248153137673912
0.603000000000000425,-1.246216973019634189
0.604000000000000425,-1.230359863873253579
0.605000000000000426,-1.214675580684354106
0.606000000000000427,-1.199162874895201236
0.607000000000000428,-1.183820494713684557
0.608000000000000429,-1.168647185417169609
0.609000000000000430,-1.153641689650697355
0.610000000000000431,-1.138802747719902531
0.611000000000000432,-1.124129097878415084
0.612000000000000433,-1.109619476609890132
0.613000000000000433,-1.095272618904722162
