# Polypropylene-R10-GAFF_TANNIC-CENTRAL-AC
# h[nm],U(h)[kJ/mol]
0.149999999999999994,146.172974134462435813
0.150999999999999995,145.440014281562923770
0.151999999999999996,143.595632284507274790
0.152999999999999997,141.536162884311579546
0.153999999999999998,139.588001118545918189
0.154999999999999999,137.809800195287095903
0.156000000000000000,136.155794154328674495
0.157000000000000001,134.557246566450032788
0.158000000000000002,132.957630196843297199
0.159000000000000002,131.323230413327735278
0.160000000000000003,129.641960847698726411
0.161000000000000004,127.917591487375460702
0.162000000000000005,126.163169279707673809
0.163000000000000006,124.395387467828157924
0.164000000000000007,122.630518094445960742
0.165000000000000008,120.881924044063268298
0.166000000000000009,119.158893179055553446
0.167000000000000010,117.466447772832935925
0.168000000000000010,115.805790570238372084
0.169000000000000011,114.175101952339360878
0.170000000000000012,112.570470586893208065
0.171000000000000013,110.986806310016234534
0.172000000000000014,109.418641051181609214
0.173000000000000015,107.860768640231455606
0.174000000000000016,106.308707350518602652
0.175000000000000017,104.758991443750502981
0.176000000000000018,103.209311740245738065
0.177000000000000018,101.658532362460704235
0.178000000000000019,100.106613129954951091
0.179000000000000020,98.554466172323458295
0.180000000000000021,97.003772408926437265
0.181000000000000022,95.456779557061594232
0.182000000000000023,93.916098949067176704
0.183000000000000024,92.384514124060075346
0.184000000000000025,90.864810202481294255
0.185000000000000026,89.359629614139166165
0.186000000000000026,87.871356902939936617
0.187000000000000027,86.402033079783294056
0.188000000000000028,84.953298303350905485
0.189000000000000029,83.526360476353403328
0.190000000000000030,82.121986579758186053
0.191000000000000031,80.740513153803334490
0.192000000000000032,79.381872198924725126
0.193000000000000033,78.045628844921623113
0.194000000000000034,76.731027363711447720
0.195000000000000034,75.437042429735384985
0.196000000000000035,74.162432921262535501
0.197000000000000036,72.905795972713590913
0.198000000000000037,71.665619407488833303
0.199000000000000038,70.440331084095078040
0.200000000000000039,69.228344062689558314
0.201000000000000040,68.028096836201143560
0.202000000000000041,66.838088165365178384
0.203000000000000042,65.656906308635853975
0.204000000000000042,64.483252646492132953
0.205000000000000043,63.315959867194919752
0.206000000000000044,62.154005010693438749
0.207000000000000045,60.996517762902648485
0.208000000000000046,59.842784458099835376
0.209000000000000047,58.692248286928894174
0.210000000000000048,57.544506225586168568
0.211000000000000049,56.399303202104476895
0.212000000000000050,55.256524001856497819
0.213000000000000050,54.116183389730522890
0.214000000000000051,52.978414893756578863
0.215000000000000052,51.843458656779695559
0.216000000000000053,50.711648721202891466
0.217000000000000054,49.583400068620044010
0.218000000000000055,48.459195692764531316
0.219000000000000056,47.339573941755205055
0.220000000000000057,46.225116324999660833
0.221000000000000058,45.116435941974977197
0.222000000000000058,44.014166654884476770
0.223000000000000059,42.918953095188200564
0.224000000000000060,41.831441565357991408
0.225000000000000061,40.752271871962037153
0.226000000000000062,39.682070104278068357
0.227000000000000063,38.621442353954023474
0.228000000000000064,37.570969355602322537
0.229000000000000065,36.531202015422707063
0.230000000000000066,35.502657784767443161
0.231000000000000066,34.485817827742749841
0.232000000000000067,33.481124926235537487
0.233000000000000068,32.488982061912260235
0.234000000000000069,31.509751612519814046
0.235000000000000070,30.543755098993081276
0.236000000000000071,29.591273420227555135
0.237000000000000072,28.652547513704103466
0.238000000000000073,27.727779382276480646
0.239000000000000073,26.817133430184441067
0.240000000000000074,25.920738054583388532
0.241000000000000075,25.038687442462585153
0.242000000000000076,24.171043526635571652
0.243000000000000077,23.317838058433526527
0.244000000000000078,22.479074758731083961
0.245000000000000079,21.654731512910551317
0.246000000000000080,20.844762579270614822
0.247000000000000081,20.049100784156500765
0.248000000000000081,19.267659680698912439
0.249000000000000082,18.500335651465544373
0.250000000000000111,17.747009938533455653
0.251000000000000112,17.007550587468415415
0.252000000000000113,16.281814294438937907
0.253000000000000114,15.569648148199226156
0.254000000000000115,14.870891260940108936
0.255000000000000115,14.185376284042783723
0.256000000000000116,13.512930806576580522
0.257000000000000117,12.853378635972916300
0.258000000000000118,12.206540961692068592
0.259000000000000119,11.572237403888706808
0.260000000000000120,10.950286950090092120
0.261000000000000121,10.340508783741274357
0.262000000000000122,9.742723009155739078
0.263000000000000123,9.156751277954512602
0.264000000000000123,8.582417322491647127
0.265000000000000124,8.019547402065127173
0.266000000000000125,7.467970667910170057
0.267000000000000126,6.927519453079497680
0.268000000000000127,6.398029493342542118
0.269000000000000128,5.879340085195738475
0.270000000000000129,5.371294186975627660
0.271000000000000130,4.873738468916824829
0.272000000000000131,4.386523317806355848
0.273000000000000131,3.909502801660428961
0.274000000000000132,3.442534599598407574
0.275000000000000133,2.985479901816122439
0.276000000000000134,2.538203284273079507
0.277000000000000135,2.100572562411620048
0.278000000000000136,1.672458627921834973
0.279000000000000137,1.253735272261813360
0.280000000000000138,0.844279000339568597
0.281000000000000139,0.443968837463121324
0.282000000000000139,0.052686132373663062
0.283000000000000140,-0.329685641107617222
0.284000000000000141,-0.703261081561375234
0.285000000000000142,-1.068153054584860984
0.286000000000000143,-1.424472882792839901
0.287000000000000144,-1.772330529693255219
0.288000000000000145,-2.111834776148648452
0.289000000000000146,-2.443093388340650929
0.290000000000000147,-2.766213276349203998
0.291000000000000147,-3.081300642635837139
0.292000000000000148,-3.388461119885835870
0.293000000000000149,-3.687799897813874850
0.294000000000000150,-3.979421838675579526
0.295000000000000151,-4.263431581350928923
0.296000000000000152,-4.539933633977146776
0.297000000000000153,-4.809032455207747248
0.298000000000000154,-5.070832524262570473
0.299000000000000155,-5.325438400010507500
0.300000000000000155,-5.572954769393436258
0.301000000000000156,-5.813486485557005423
0.302000000000000157,-6.047138596102649366
0.303000000000000158,-6.274016361914588558
0.304000000000000159,-6.494225267048562955
0.305000000000000160,-6.707871020193823419
0.306000000000000161,-6.915059548239156584
0.307000000000000162,-7.115896982486627387
0.308000000000000163,-7.310489638064237461
0.309000000000000163,-7.498943987091796437
0.310000000000000164,-7.681366626152936306
0.311000000000000165,-7.857864238620817510
0.312000000000000166,-8.028543552376884662
0.313000000000000167,-8.193511293450297828
0.314000000000000168,-8.352874136091811508
0.315000000000000169,-8.506738649779727268
0.316000000000000170,-8.655211243637728202
0.317000000000000171,-8.798398108724637012
0.318000000000000171,-8.936405158635713164
0.319000000000000172,-9.069337968833538710
0.320000000000000173,-9.197301715104014619
0.321000000000000174,-9.320401111510252079
0.322000000000000175,-9.438740348194210483
0.323000000000000176,-9.552423029352514305
0.324000000000000177,-9.661552111689944766
0.325000000000000178,-9.766229843630851448
0.326000000000000179,-9.866557705546629364
0.327000000000000179,-9.962636351234529286
0.328000000000000180,-10.054565550861923384
0.329000000000000181,-10.142444135568904784
0.330000000000000182,-10.226369943901469028
0.331000000000000183,-10.306439770228323027
0.332000000000000184,-10.382749315274924840
0.333000000000000185,-10.455393138890656246
0.334000000000000186,-10.524464615147573809
0.335000000000000187,-10.590055889852806104
0.336000000000000187,-10.652257840541311751
0.337000000000000188,-10.711160039000546362
0.338000000000000189,-10.766850716365507168
0.339000000000000190,-10.819416730809159333
0.340000000000000191,-10.868943537841296632
0.341000000000000192,-10.915515163217881067
0.342000000000000193,-10.959214178452278077
0.343000000000000194,-11.000121678910460332
0.344000000000000195,-11.038317264463014311
0.345000000000000195,-11.073879022659523841
0.346000000000000196,-11.106883514382715816
0.347000000000000197,-11.137405761933869996
0.348000000000000198,-11.165519239494702930
0.349000000000000199,-11.191295865905782847
0.350000000000000200,-11.214805999696974226
0.351000000000000201,-11.236118436301186563
0.352000000000000202,-11.255300407379309036
0.353000000000000203,-11.272417582181279982
0.354000000000000203,-11.287534070865756775
0.355000000000000204,-11.300712429698592132
0.356000000000000205,-11.312013668049221593
0.357000000000000206,-11.321497257102631551
0.358000000000000207,-11.329221140203618035
0.359000000000000208,-11.335241744750067738
0.360000000000000209,-11.339613995551605541
0.361000000000000210,-11.342391329570117975
0.362000000000000210,-11.343625711959390401
0.363000000000000211,-11.343367653321518418
0.364000000000000212,-11.341666228099089864
0.365000000000000213,-11.338569094022883377
0.366000000000000214,-11.334122512536609406
0.367000000000000215,-11.328371370121326223
0.368000000000000216,-11.321359200444362614
0.369000000000000217,-11.313128207258779767
0.370000000000000218,-11.303719287981937924
0.371000000000000218,-11.293172057883193560
0.372000000000000219,-11.281524874813365855
0.373000000000000220,-11.268814864410437337
0.374000000000000221,-11.255077945718422683
0.375000000000000222,-11.240348857158284801
0.376000000000000223,-11.224661182792681657
0.377000000000000224,-11.208047378828062790
0.378000000000000225,-11.190538800300295463
0.379000000000000226,-11.172165727892322096
0.380000000000000226,-11.152957394834814409
0.381000000000000227,-11.132942013842770379
0.382000000000000228,-11.112146804043829817
0.383000000000000229,-11.090598017856031277
0.384000000000000230,-11.068320967775026276
0.385000000000000231,-11.045340053033363859
0.386000000000000232,-11.021678786096094527
0.387000000000000233,-10.997359818959669298
0.388000000000000234,-10.972404969222747440
0.389000000000000234,-10.946835245900039979
0.390000000000000235,-10.920670874951850848
0.391000000000000236,-10.893931324504411151
0.392000000000000237,-10.866635329737587057
0.393000000000000238,-10.838800917418742742
0.394000000000000239,-10.810445430062985750
0.395000000000000240,-10.781585549702061400
0.396000000000000241,-10.752237321245633694
0.397000000000000242,-10.722416175420224960
0.398000000000000242,-10.692136951273017331
0.399000000000000243,-10.661413918228552333
0.400000000000000244,-10.630260797688467989
0.401000000000000245,-10.598690784165320622
0.402000000000000246,-10.566716565942908090
0.403000000000000247,-10.534350345256907389
0.404000000000000248,-10.501603857990648550
0.405000000000000249,-10.468488392882091986
0.406000000000000250,-10.435014810238943284
0.407000000000000250,-10.401193560160141516
0.408000000000000251,-10.367034700262607316
0.409000000000000252,-10.332547912913222277
0.410000000000000253,-10.297742521966817719
0.411000000000000254,-10.262627509011675642
0.412000000000000255,-10.227211529124840439
0.413000000000000256,-10.191502926140348251
0.414000000000000257,-10.155509747433812962
0.415000000000000258,-10.119239758227825732
0.416000000000000258,-10.082700455422836328
0.417000000000000259,-10.045899080958886174
0.418000000000000260,-10.008842634714053332
0.419000000000000261,-9.971537886945741391
0.420000000000000262,-9.933991390281585510
0.421000000000000263,-9.896209491266935387
0.422000000000000264,-9.858198341476221316
0.423000000000000265,-9.819963908195887825
0.424000000000000266,-9.781511984686927619
0.425000000000000266,-9.742848200034893935
0.426000000000000267,-9.703978028596036864
0.427000000000000268,-9.664906799047962238
0.428000000000000269,-9.625639703053474605
0.429000000000000270,-9.586181803546612201
0.430000000000000271,-9.546538042649565625
0.431000000000000272,-9.506713249229770568
0.432000000000000273,-9.466712146106024406
0.433000000000000274,-9.426539356912936540
0.434000000000000274,-9.386199412632779016
0.435000000000000275,-9.345696757803903409
0.436000000000000276,-9.305035756415021453
0.437000000000000277,-9.264220697494257806
0.438000000000000278,-9.223255800402288429
0.439000000000000279,-9.182145219838540484
0.440000000000000280,-9.140893050569408373
0.441000000000000281,-9.099503331887436985
0.442000000000000282,-9.057980051810375244
0.443000000000000282,-9.016327151028660225
0.444000000000000283,-8.974548526610179877
0.445000000000000284,-8.932648035470673875
0.446000000000000285,-8.890629497618196098
0.447000000000000286,-8.848496699180076419
0.448000000000000287,-8.806253395220233315
0.449000000000000288,-8.763903312355161290
0.450000000000000289,-8.721450151176195931
0.451000000000000290,-8.678897588485899206
0.452000000000000290,-8.636249279356139397
0.453000000000000291,-8.593508859015177137
0.454000000000000292,-8.550679944571111690
0.455000000000000293,-8.507766136578684524
0.456000000000000294,-8.464771020456430151
0.457000000000000295,-8.421698167760917286
0.458000000000000296,-8.378551137324629750
0.459000000000000297,-8.335333476264020547
0.460000000000000298,-8.292048720863860467
0.461000000000000298,-8.248700397344128632
0.462000000000000299,-8.205292022515267902
0.463000000000000300,-8.161827104327546323
0.464000000000000301,-8.118309142320262239
0.465000000000000302,-8.074741627976106173
0.466000000000000303,-8.031128044985912595
0.467000000000000304,-7.987471869429069393
0.468000000000000305,-7.943776569874354543
0.469000000000000306,-7.900045607406066317
0.470000000000000306,-7.856282435580150825
0.471000000000000307,-7.812490500314559938
0.472000000000000308,-7.768673239718458134
0.473000000000000309,-7.724834083864235090
0.474000000000000310,-7.680976454506388329
0.475000000000000311,-7.637103764751176804
0.476000000000000312,-7.593219418680814847
0.477000000000000313,-7.549326810935655274
0.478000000000000314,-7.505429326257939238
0.479000000000000314,-7.461530339000395529
0.480000000000000315,-7.417633212602787296
0.481000000000000316,-7.373741299039616948
0.482000000000000317,-7.329857938241730153
0.483000000000000318,-7.285986457494736612
0.484000000000000319,-7.242130170816902357
0.485000000000000320,-7.198292378319034235
0.486000000000000321,-7.154476365548847916
0.487000000000000322,-7.110685402822134904
0.488000000000000322,-7.066922744542853074
0.489000000000000323,-7.023191628514477536
0.490000000000000324,-6.979495275244405050
0.491000000000000325,-6.935836887243413962
0.492000000000000326,-6.892219648321974645
0.493000000000000327,-6.848646722885182392
0.494000000000000328,-6.805121255227814636
0.495000000000000329,-6.761646368831209841
0.496000000000000330,-6.718225165663239906
0.497000000000000330,-6.674860725482953505
0.498000000000000331,-6.631556105150885116
0.499000000000000332,-6.588314337946579613
0.500000000000000333,-6.545138432894208158
0.501000000000000334,-6.502031374097387406
0.502000000000000335,-6.458996120084276704
0.503000000000000336,-6.416035603163773082
0.504000000000000337,-6.373152728793732180
0.505000000000000338,-6.330350374961932758
0.506000000000000338,-6.287631391580593032
0.507000000000000339,-6.244998599895037472
0.508000000000000340,-6.202454791907150877
0.509000000000000341,-6.160002729814284983
0.510000000000000342,-6.117645145463914247
0.511000000000000343,-6.075384739824722047
0.512000000000000344,-6.033224182474368646
0.513000000000000345,-5.991166111104366365
0.514000000000000346,-5.949213131042491831
0.515000000000000346,-5.907367814792777061
0.516000000000000347,-5.865632701593531451
0.517000000000000348,-5.824010296993566982
0.518000000000000349,-5.782503072446644410
0.519000000000000350,-5.741113464924509913
0.520000000000000351,-5.699843876548381871
0.521000000000000352,-5.658696674239178215
0.522000000000000353,-5.617674189386351991
0.523000000000000353,-5.576778717535404439
0.524000000000000354,-5.536012518094147516
0.525000000000000355,-5.495377814057516908
0.526000000000000356,-5.454876791750967513
0.527000000000000357,-5.414511600592417651
0.528000000000000358,-5.374284352872441772
0.529000000000000359,-5.334197123552852915
0.530000000000000360,-5.294251950083240565
0.531000000000000361,-5.254450832235557201
0.532000000000000361,-5.214795731956382241
0.533000000000000362,-5.175288573236779044
0.534000000000000363,-5.135931241999484698
0.535000000000000364,-5.096725586003218567
0.536000000000000365,-5.057673414763877773
0.537000000000000366,-5.018776499492389576
0.538000000000000367,-4.980036573048865378
0.539000000000000368,-4.941455329912992411
0.540000000000000369,-4.903034426170113314
0.541000000000000369,-4.864775479512980283
0.542000000000000370,-4.826680069258658001
0.543000000000000371,-4.788749736380452759
0.544000000000000372,-4.750985983554443237
0.545000000000000373,-4.713390275220393555
0.546000000000000374,-4.675964037656645367
0.547000000000000375,-4.638708659068712770
0.548000000000000376,-4.601625489691305582
0.549000000000000377,-4.564715841903369764
0.550000000000000377,-4.527980990355847446
0.551000000000000378,-4.491422172111838584
0.552000000000000379,-4.455040586798860502
0.553000000000000380,-4.418837396772794079
0.554000000000000381,-4.382813727293226158
0.555000000000000382,-4.346970666709944808
0.556000000000000383,-4.311309266660015460
0.557000000000000384,-4.275830542275432578
0.558000000000000385,-4.240535472400693173
0.559000000000000385,-4.205424999820207788
0.560000000000000386,-4.170500031495075532
0.561000000000000387,-4.135761438808991386
0.562000000000000388,-4.101210057822841648
0.563000000000000389,-4.066846689537836568
0.564000000000000390,-4.032672100166696971
0.565000000000000391,-3.998687021412668408
0.566000000000000392,-3.964892150756034628
0.567000000000000393,-3.931288151747838633
0.568000000000000393,-3.897875654310445359
0.569000000000000394,-3.864655255044679993
0.570000000000000395,-3.831627517543329198
0.571000000000000396,-3.798792972710499871
0.572000000000000397,-3.766152119086798589
0.573000000000000398,-3.733705423179837002
0.574000000000000399,-3.701453319799925534
0.575000000000000400,-3.669396212400576562
0.576000000000000401,-3.637534473423596815
0.577000000000000401,-3.605868444648550053
0.578000000000000402,-3.574398437546190799
0.579000000000000403,-3.543124733635713230
0.580000000000000404,-3.512047584845607417
0.581000000000000405,-3.481167213877701894
0.582000000000000406,-3.450483814574350383
0.583000000000000407,-3.419997552288342568
0.584000000000000408,-3.389708564255475842
0.585000000000000409,-3.359616959969410566
0.586000000000000409,-3.329722821558676493
0.587000000000000410,-3.300026204165597221
0.588000000000000411,-3.270527136326865758
0.589000000000000412,-3.241225620355680181
0.590000000000000413,-3.212121632725069453
0.591000000000000414,-3.183215124452356992
0.592000000000000415,-3.154506021484536404
0.593000000000000416,-3.125994225084279599
0.594000000000000417,-3.097679612216485356
0.595000000000000417,-3.069562035935260003
0.596000000000000418,-3.041641325770876314
0.597000000000000419,-3.013917288116937154
0.598000000000000420,-2.986389706617199824
0.599000000000000421,-2.959058342552189025
0.600000000000000422,-2.931922935225261817
0.601000000000000423,-2.904983202348071725
0.602000000000000424,-2.878238840425249467
0.603000000000000425,-2.851689525138161763
0.604000000000000425,-2.825334911727614084
0.605000000000000426,-2.799174635375366371
0.606000000000000427,-2.773208311584379082
0.607000000000000428,-2.747435536557498725
0.608000000000000429,-2.721855887574771593
0.609000000000000430,-2.696468923368887438
0.610000000000000431,-2.671274184499013327
