# Polypropylene-R10-GAFF_PYRIDINE-AC
# h[nm],U(h)[kJ/mol]
0.149999999999999994,113.434244192855047118
0.150999999999999995,112.591623192756401295
0.151999999999999996,111.315869871042281147
0.152999999999999997,109.965327609039803747
0.153999999999999998,108.658891914245671728
0.154999999999999999,107.409620078443026614
0.156000000000000000,106.193882630979373971
0.157000000000000001,104.983734009990627101
0.158000000000000002,103.759353586736892794
0.159000000000000002,102.511512696524988542
0.160000000000000003,101.239713672323219384
0.161000000000000004,99.949017114748485824
0.162000000000000005,98.647018783828755772
0.163000000000000006,97.341557626388137692
0.164000000000000007,96.039270349111319547
0.165000000000000008,94.744887501457554890
0.166000000000000009,93.461085014731025922
0.167000000000000010,92.188697983318249385
0.168000000000000010,90.927130945890638714
0.169000000000000011,89.674838578332781935
0.170000000000000012,88.429790543164131122
0.171000000000000013,87.189868564581246346
0.172000000000000014,85.953170588231586180
0.173000000000000015,84.718216107165559947
0.174000000000000016,83.484059327185264010
0.175000000000000017,82.250324111027637741
0.176000000000000018,81.017177918949300874
0.177000000000000018,79.785262453507669989
0.178000000000000019,78.555597411332087177
0.179000000000000020,77.329471416180979304
0.180000000000000021,76.108331423003235727
0.181000000000000022,74.893679035335765093
0.182000000000000023,73.686979521454730957
0.183000000000000024,72.489586994343639503
0.184000000000000025,71.302687304510783406
0.185000000000000026,70.127258696343716338
0.186000000000000026,68.964049175989245555
0.187000000000000027,67.813568788656340303
0.188000000000000028,66.676094552314594921
0.189000000000000029,65.551685586521088567
0.190000000000000030,64.440205954943849065
0.191000000000000031,63.341352858312745866
0.192000000000000032,62.254688027738737333
0.193000000000000033,61.179670440396833442
0.194000000000000034,60.115688781308072919
0.195000000000000034,59.062092383771506832
0.196000000000000035,58.018219680132347094
0.197000000000000036,56.983423472294632006
0.198000000000000037,55.957092580129838666
0.199000000000000038,54.938669641496872487
0.200000000000000039,53.927665018389859597
0.201000000000000040,52.923666910142969755
0.202000000000000041,51.926347888433227240
0.203000000000000042,50.935468152759270311
0.204000000000000042,49.950875862431246333
0.205000000000000043,48.972504935462005449
0.206000000000000044,48.000370719725708568
0.207000000000000045,47.034563940870199872
0.208000000000000046,46.075243318028100248
0.209000000000000047,45.122627215371807097
0.210000000000000048,44.176984667662303252
0.211000000000000049,43.238626083465632632
0.212000000000000050,42.307893892607744135
0.213000000000000050,41.385153366336275838
0.214000000000000051,40.470783800856395374
0.215000000000000052,39.565170218435241623
0.216000000000000053,38.668695705889035708
0.217000000000000054,37.781734478529088506
0.218000000000000055,36.904645728905407509
0.219000000000000056,36.037768294153153192
0.220000000000000057,35.181416153485955078
0.221000000000000058,34.335874748369718645
0.222000000000000058,33.501398102029227744
0.223000000000000059,32.678206702029100938
0.224000000000000060,31.866486099510062502
0.225000000000000061,31.066386171014631401
0.226000000000000062,30.278020983445856018
0.227000000000000063,29.501469199307479130
0.228000000000000064,28.736774957713532075
0.229000000000000065,27.983949166477280812
0.230000000000000066,27.242971141656738610
0.231000000000000066,26.513790533019403028
0.232000000000000067,25.796329476791481028
0.233000000000000068,25.090484920585609530
0.234000000000000069,24.396131069393728552
0.235000000000000070,23.713121905837759584
0.236000000000000071,23.041293742365553499
0.237000000000000072,22.380467767649939503
0.238000000000000073,21.730452554005701415
0.239000000000000073,21.091046497105310209
0.240000000000000074,20.462040163584060082
0.241000000000000075,19.843218526236526600
0.242000000000000076,19.234363070374804749
0.243000000000000077,18.635253758522850376
0.244000000000000078,18.045670843939809913
0.245000000000000079,17.465396526489364248
0.246000000000000080,16.894216447098759915
0.247000000000000081,16.331921019479658241
0.248000000000000081,15.778306599923146436
0.249000000000000082,15.233176497840574370
0.250000000000000111,14.696341831313517901
0.251000000000000112,14.167622233256537356
0.252000000000000113,13.646846414898911704
0.253000000000000114,13.133852594178620166
0.254000000000000115,12.628488797325129411
0.255000000000000115,12.130613042411335201
0.256000000000000116,11.640093413993193749
0.257000000000000117,11.156808038147598694
0.258000000000000118,10.680644967282592717
0.259000000000000119,10.211501984043421132
0.260000000000000120,9.749286333490399414
0.261000000000000121,9.293914392494489363
0.262000000000000122,8.845311284995975853
0.263000000000000123,8.403410451415419757
0.264000000000000123,7.968153180102888200
0.265000000000000124,7.539488108274457367
0.266000000000000125,7.117370699421064373
0.267000000000000126,6.701762703694302381
0.268000000000000127,6.292631607281995443
0.269000000000000128,5.889950076292573833
0.270000000000000129,5.493695400174333443
0.271000000000000130,5.103848939209785662
0.272000000000000131,4.720395580151327763
0.273000000000000131,4.343323203603752347
0.274000000000000132,3.972622166316861492
0.275000000000000133,3.608284801127843000
0.276000000000000134,3.250304936891167618
0.277000000000000135,2.898677440355037938
0.278000000000000136,2.553397781586883131
0.279000000000000137,2.214461624219050684
0.280000000000000138,1.881864441478652950
0.281000000000000139,1.555601158681608309
0.282000000000000139,1.235665822612332043
0.283000000000000140,0.922051297974110007
0.284000000000000141,0.614748990882585722
0.285000000000000142,0.313748599183536592
0.286000000000000143,0.019037889206335201
0.287000000000000144,-0.269397501584894727
0.288000000000000145,-0.551574236711572352
0.289000000000000146,-0.827511428353010503
0.290000000000000147,-1.097230761447933745
0.291000000000000147,-1.360756595180997675
0.292000000000000148,-1.618116042875878735
0.293000000000000149,-1.869339031366984205
0.294000000000000150,-2.114458340961371086
0.295000000000000151,-2.353509627129244830
0.296000000000000152,-2.586531425078756108
0.297000000000000153,-2.813565138377991826
0.298000000000000154,-3.034655012786417139
0.299000000000000155,-3.249848096449363233
0.300000000000000155,-3.459194187594079928
0.301000000000000156,-3.662745770844645588
0.302000000000000157,-3.860557943247306500
0.303000000000000158,-4.052688331066740091
0.304000000000000159,-4.239196998379988202
0.305000000000000160,-4.420146348457043572
0.306000000000000161,-4.595601018877499833
0.307000000000000162,-4.765627771290636971
0.308000000000000163,-4.930295376682875208
0.309000000000000163,-5.089674496972039108
0.310000000000000164,-5.243837563702777871
0.311000000000000165,-5.392858654571700328
0.312000000000000166,-5.536813368465502094
0.313000000000000167,-5.675778699649809411
0.314000000000000168,-5.809832911701817260
0.315000000000000169,-5.939055411735663093
0.316000000000000170,-6.063526625426490568
0.317000000000000171,-6.183327873296877719
0.318000000000000171,-6.298541248688686700
0.319000000000000172,-6.409249497803912732
0.320000000000000173,-6.515535902159991011
0.321000000000000174,-6.617484163768540206
0.322000000000000175,-6.715178293311687696
0.323000000000000176,-6.808702501556687992
0.324000000000000177,-6.898141094217999481
0.325000000000000178,-6.983578370445785666
0.326000000000000179,-7.065098525091817905
0.327000000000000179,-7.142785554876733833
0.328000000000000180,-7.216723168557709123
0.329000000000000181,-7.286994701172413436
0.330000000000000182,-7.353683032412800635
0.331000000000000183,-7.416870509162670544
0.332000000000000184,-7.476638872213631437
0.333000000000000185,-7.533069187157137137
0.334000000000000186,-7.586241779434357291
0.335000000000000187,-7.636236173511048442
0.336000000000000187,-7.683131036131709557
0.337000000000000188,-7.727004123594852558
0.338000000000000189,-7.767932232981159757
0.339000000000000190,-7.805991157256315205
0.340000000000000191,-7.841255644161778449
0.341000000000000192,-7.873799358799661086
0.342000000000000193,-7.903694849811006229
0.343000000000000194,-7.931013519041561821
0.344000000000000195,-7.955825594583925131
0.345000000000000195,-7.978200107081745429
0.346000000000000196,-7.998204869177766518
0.347000000000000197,-8.015906457985591871
0.348000000000000198,-8.031370200463001652
0.349000000000000199,-8.044660161563395917
0.350000000000000200,-8.055839135041567900
0.351000000000000201,-8.064968636789490830
0.352000000000000202,-8.072108900578456314
0.353000000000000203,-8.077318876084396138
0.354000000000000203,-8.080656229074687502
0.355000000000000204,-8.082177343635667199
0.356000000000000205,-8.081937326322547577
0.357000000000000206,-8.079990012115059628
0.358000000000000207,-8.076387972064456022
0.359000000000000208,-8.071182522520397029
0.360000000000000209,-8.064423735828643913
0.361000000000000210,-8.056160452393465121
0.362000000000000210,-8.046440294001818927
0.363000000000000211,-8.035309678309319636
0.364000000000000212,-8.022813834391470778
0.365000000000000213,-8.008996819266751999
0.366000000000000214,-7.993901535301693784
0.367000000000000215,-7.977569748411328376
0.368000000000000216,-7.960042106972093912
0.369000000000000217,-7.941358161367377377
0.370000000000000218,-7.921556384089726066
0.371000000000000218,-7.900674190326762769
0.372000000000000219,-7.878747958961649367
0.373000000000000220,-7.855813053922081401
0.374000000000000221,-7.831903845815169518
0.375000000000000222,-7.807053733788791305
0.376000000000000223,-7.781295167563437865
0.377000000000000224,-7.754659669581434045
0.378000000000000225,-7.727177857223656687
0.379000000000000226,-7.698879465046873705
0.380000000000000226,-7.669793366997796902
0.381000000000000227,-7.639947598562566000
0.382000000000000228,-7.609369378813509499
0.383000000000000229,-7.578085132317357697
0.384000000000000230,-7.546120510871814346
0.385000000000000231,-7.513500415040023306
0.386000000000000232,-7.480249015454530692
0.387000000000000233,-7.446389773865055517
0.388000000000000234,-7.411945463906223885
0.389000000000000234,-7.376938191563911396
0.390000000000000235,-7.341389415320541900
0.391000000000000236,-7.305319965961946771
0.392000000000000237,-7.268750066029951995
0.393000000000000238,-7.231699348906960090
0.394000000000000239,-7.194186877520122536
0.395000000000000240,-7.156231162654631994
0.396000000000000241,-7.117850180866986065
0.397000000000000242,-7.079061391990494556
0.398000000000000242,-7.039881756226880505
0.399000000000000243,-7.000327750818803096
0.400000000000000244,-6.960415386299570351
0.401000000000000245,-6.920160222317401910
0.402000000000000246,-6.879577383032524196
0.403000000000000247,-6.838681572086571236
0.404000000000000248,-6.797487087144574502
0.405000000000000249,-6.756007834010742563
0.406000000000000250,-6.714257340319956135
0.407000000000000250,-6.672248768807820696
0.408000000000000251,-6.629994930162574462
0.409000000000000252,-6.587508295463019081
0.410000000000000253,-6.544801008207043580
0.411000000000000254,-6.501884895935949871
0.412000000000000255,-6.458771481460222397
0.413000000000000256,-6.415471993692902331
0.414000000000000257,-6.371997378096942555
0.415000000000000258,-6.328358306753564477
0.416000000000000258,-6.284565188058634178
0.417000000000000259,-6.240628176054637599
0.418000000000000260,-6.196557179405867366
0.419000000000000261,-6.152361870024778412
0.420000000000000262,-6.108051691357587742
0.421000000000000263,-6.063635866337397928
0.422000000000000264,-6.019123405013134587
0.423000000000000265,-5.974523111862803049
0.424000000000000266,-5.929843592799689311
0.425000000000000266,-5.885093261879882576
0.426000000000000267,-5.840280347719949638
0.427000000000000268,-5.795412899633246795
0.428000000000000269,-5.750498793493505012
0.429000000000000270,-5.705545737334340117
0.430000000000000271,-5.660561276693091060
0.431000000000000272,-5.615552799707601572
0.432000000000000273,-5.570527541974264807
0.433000000000000274,-5.525492591175694024
0.434000000000000274,-5.480454891486173707
0.435000000000000275,-5.435421247763108532
0.436000000000000276,-5.390398329532406940
0.437000000000000277,-5.345392674775633068
0.438000000000000278,-5.300410693526747430
0.439000000000000279,-5.255458671286013406
0.440000000000000280,-5.210542772258450306
0.441000000000000281,-5.165669042424217317
0.442000000000000282,-5.120843412448072840
0.443000000000000282,-5.076071700434775735
0.444000000000000283,-5.031359614537426417
0.445000000000000284,-4.986712755425246613
0.446000000000000285,-4.942136618617310795
0.447000000000000286,-4.897636596688665023
0.448000000000000287,-4.853217981354747579
0.449000000000000288,-4.808885965440330423
0.450000000000000289,-4.764645644738535246
0.451000000000000290,-4.720502019765715929
0.452000000000000290,-4.676459997417596881
0.453000000000000291,-4.632524392531889745
0.454000000000000292,-4.588699929362586083
0.455000000000000293,-4.544991242970766621
0.456000000000000294,-4.501402880536740092
0.457000000000000295,-4.457939302598120435
0.458000000000000296,-4.414604884218196190
0.459000000000000297,-4.371403916088972608
0.460000000000000298,-4.328340605572861932
0.461000000000000298,-4.285419077687103950
0.462000000000000299,-4.242643376034610725
0.463000000000000300,-4.200017463684895702
0.464000000000000301,-4.157545224008622142
0.465000000000000302,-4.115230461469099765
0.466000000000000303,-4.073076902373849784
0.467000000000000304,-4.031088195589434875
0.468000000000000305,-3.989267913222375395
0.469000000000000306,-3.947619551268945592
0.470000000000000306,-3.906146530236624503
0.471000000000000307,-3.864852195739528984
0.472000000000000308,-3.823739819070448132
0.473000000000000309,-3.782812597751612937
0.474000000000000310,-3.742073656066472243
0.475000000000000311,-3.701526045574419221
0.476000000000000312,-3.661172745610606682
0.477000000000000313,-3.621016663772451238
0.478000000000000314,-3.581060636394732821
0.479000000000000314,-3.541307429014911801
0.480000000000000315,-3.501759736830091008
0.481000000000000316,-3.462420185147236928
0.482000000000000317,-3.423291329827848450
0.483000000000000318,-3.384375657728480036
0.484000000000000319,-3.345675587138210005
0.485000000000000320,-3.307193468214234322
0.486000000000000321,-3.268931583416539333
0.487000000000000322,-3.230892147942692194
0.488000000000000322,-3.193077310163499050
0.489000000000000323,-3.155489152060527935
0.490000000000000324,-3.118129689666077287
0.491000000000000325,-3.081000873506366311
0.492000000000000326,-3.044104589048501452
0.493000000000000327,-3.007442657151884635
0.494000000000000328,-2.971016834524464745
0.495000000000000329,-2.934828814184363921
0.496000000000000330,-2.898880225927233489
0.497000000000000330,-2.863172636799769855
0.498000000000000331,-2.827707551579571099
0.499000000000000332,-2.792486413261791700
0.500000000000000333,-2.757510603552665529
0.501000000000000334,-2.722781443370125398
0.502000000000000335,-2.688300193351728318
0.503000000000000336,-2.654068054369949525
0.504000000000000337,-2.620086168054937659
0.505000000000000338,-2.586355617324793243
0.506000000000000338,-2.552877426923402915
0.507000000000000339,-2.519652563965796954
0.508000000000000340,-2.486681938490999499
0.509000000000000341,-2.453966404022404735
0.510000000000000342,-2.421506758135443249
0.511000000000000343,-2.389303743032600291
0.512000000000000344,-2.357358046125539452
0.513000000000000345,-2.325670300624284259
0.514000000000000346,-2.294241086133282259
0.515000000000000346,-2.263070929254134889
0.516000000000000347,-2.232160304194852785
0.517000000000000348,-2.201509633385489551
0.518000000000000349,-2.171119288099792044
0.519000000000000350,-2.140989589082825439
0.520000000000000351,-2.111120807184198256
0.521000000000000352,-2.081513163996763449
0.522000000000000353,-2.052166832500460281
0.523000000000000353,-2.023081937711049161
0.524000000000000354,-1.994258557333588255
0.525000000000000355,-1.965696722420206211
0.526000000000000356,-1.937396418032047762
0.527000000000000357,-1.909357583905082034
0.528000000000000358,-1.881580115119390495
0.529000000000000359,-1.854063862771867521
0.530000000000000360,-1.826808634651796881
0.531000000000000361,-1.799814195919244852
0.532000000000000361,-1.773080269785814567
0.533000000000000362,-1.746606538197609471
0.534000000000000363,-1.720392642520013116
0.535000000000000364,-1.694438184224071664
0.536000000000000365,-1.668742725574173136
0.537000000000000366,-1.643305790316744508
0.538000000000000367,-1.618126864369652029
0.539000000000000368,-1.593205396512137773
0.540000000000000369,-1.568540799074847669
0.541000000000000369,-1.544132448629867982
0.542000000000000370,-1.519979686680346775
0.543000000000000371,-1.496081820349524305
0.544000000000000372,-1.472438123068895433
0.545000000000000373,-1.449047835265254047
0.546000000000000374,-1.425910165046319733
0.547000000000000375,-1.403024288884770820
0.548000000000000376,-1.380389352300414485
0.549000000000000377,-1.358004470540246533
0.550000000000000377,-1.335868729256159071
0.551000000000000378,-1.313981185180116862
0.552000000000000379,-1.292340866796540588
0.553000000000000380,-1.270946775011706054
0.554000000000000381,-1.249797883819896871
0.555000000000000382,-1.228893140966228037
0.556000000000000383,-1.208231468605764691
0.557000000000000384,-1.187811763958936950
0.558000000000000385,-1.167632899962887993
0.559000000000000385,-1.147693725918709662
0.560000000000000386,-1.127993068134313548
0.561000000000000387,-1.108529730562795024
0.562000000000000388,-1.089302495436119234
0.563000000000000389,-1.070310123893982945
0.564000000000000390,-1.051551356607692389
0.565000000000000391,-1.033024914398906091
0.566000000000000392,-1.014729498853107259
0.567000000000000393,-0.996663792927699022
0.568000000000000393,-0.978826461554531901
0.569000000000000394,-0.961216152236796573
0.570000000000000395,-0.943831495640160667
0.571000000000000396,-0.926671106177981430
0.572000000000000397,-0.909733582590589784
0.573000000000000398,-0.893017508518419989
0.574000000000000399,-0.876521453069027623
0.575000000000000400,-0.860243971377764205
0.576000000000000401,-0.844183605162134088
0.577000000000000401,-0.828338883269728377
0.578000000000000402,-0.812708322219611090
0.579000000000000403,-0.797290426737132352
0.580000000000000404,-0.782083690282133426
0.581000000000000405,-0.767086595570398488
0.582000000000000406,-0.752297615088386218
0.583000000000000407,-0.737715211601127741
0.584000000000000408,-0.723337838653287268
0.585000000000000409,-0.709163941063317926
0.586000000000000409,-0.695191955410686346
0.587000000000000410,-0.681420310516145156
0.588000000000000411,-0.667847427914987080
0.589000000000000412,-0.654471722323323291
0.590000000000000413,-0.641291602097275870
0.591000000000000414,-0.628305469685152440
0.592000000000000415,-0.615511722072552558
0.593000000000000416,-0.602908751220379679
0.594000000000000417,-0.590494944495773333
0.595000000000000417,-0.578268685096014701
0.596000000000000418,-0.566228352465249829
0.597000000000000419,-0.554372322704247855
0.598000000000000420,-0.542698968973005513
0.599000000000000421,-0.531206661886346243
0.600000000000000422,-0.519893769902456171
0.601000000000000423,-0.508758659704400706
0.602000000000000424,-0.497799696574633799
0.603000000000000425,-0.487015244762528332
0.604000000000000425,-0.476403667844946643
0.605000000000000426,-0.465963329079866984
0.606000000000000427,-0.455692591753166287
0.607000000000000428,-0.445589819518422914
0.608000000000000429,-0.435653376730044228
0.609000000000000430,-0.425881628769430531
0.610000000000000431,-0.416272942364524390
0.611000000000000432,-0.406825685902565737
0.612000000000000433,-0.397538229736174198
0.613000000000000433,-0.388408946482854511
