# Polypropylene-R10-GAFF_CHLORANE-AC
# h[nm],U(h)[kJ/mol]
0.149999999999999994,76.496958190163383051
0.150999999999999995,74.518917378791428519
0.151999999999999996,73.757691313221783957
0.152999999999999997,73.210718039549703917
0.153999999999999998,72.526013613896907373
0.154999999999999999,71.651204751578632113
0.156000000000000000,70.646432071339887671
0.157000000000000001,69.592845863933604278
0.158000000000000002,68.554415401542684094
0.159000000000000002,67.567552701853415442
0.160000000000000003,66.643702441127189218
0.161000000000000004,65.776670687334302556
0.162000000000000005,64.950471651520359728
0.163000000000000006,64.145809460134302071
0.164000000000000007,63.344606292518413682
0.165000000000000008,62.532647249806451839
0.166000000000000009,61.700698306268783710
0.167000000000000010,60.844531905075960765
0.168000000000000010,59.964266699214547884
0.169000000000000011,59.063353813127832836
0.170000000000000012,58.147455765855511345
0.171000000000000013,57.223383508065538194
0.172000000000000014,56.298189742914360068
0.173000000000000015,55.378465061768210376
0.174000000000000016,54.469846669116371629
0.175000000000000017,53.576725436841385886
0.176000000000000018,52.702123095905349714
0.177000000000000018,51.847704977821784667
0.178000000000000019,51.013892602177897118
0.179000000000000020,50.200042719322674145
0.180000000000000021,49.404663723253072760
0.181000000000000022,48.625645589775935207
0.182000000000000023,47.860484929302941737
0.183000000000000024,47.106491888420954695
0.184000000000000025,46.360970202674806728
0.185000000000000026,45.621365552560448009
0.186000000000000026,44.885380464977643555
0.187000000000000027,44.151056360184220750
0.188000000000000028,43.416825037704981582
0.189000000000000029,42.681533013631870688
0.190000000000000030,41.944442764433745197
0.191000000000000031,41.205215195803575057
0.192000000000000032,40.463877629302643868
0.193000000000000033,39.720781364438984440
0.194000000000000034,38.976552497414346021
0.195000000000000034,38.232039216134886317
0.196000000000000035,37.488258288805795360
0.197000000000000036,36.746342954709277251
0.198000000000000037,36.007493935694341758
0.199000000000000038,35.272934832875499467
0.200000000000000039,34.543872766101884508
0.201000000000000040,33.821464759918669074
0.202000000000000041,33.106790081090110789
0.203000000000000042,32.400828488462465771
0.204000000000000042,31.704444163115493183
0.205000000000000043,31.018374941099683184
0.206000000000000044,30.343226367467689641
0.207000000000000045,29.679470023276326884
0.208000000000000046,29.027445541180945554
0.209000000000000047,28.387365714764854374
0.210000000000000048,27.759324116774916291
0.211000000000000049,27.143304667353060466
0.212000000000000050,26.539192631043921011
0.213000000000000050,25.946786567244011223
0.214000000000000051,25.365810809777340040
0.215000000000000052,24.795928104893800281
0.216000000000000053,24.236752091114958318
0.217000000000000054,23.687859357353811873
0.218000000000000055,23.148800866352509331
0.219000000000000056,22.619112577792471086
0.220000000000000057,22.098325148795474604
0.221000000000000058,21.585972628565883724
0.222000000000000058,21.081600098420960165
0.223000000000000059,20.584770238396181696
0.224000000000000060,20.095068827083164109
0.225000000000000061,19.612109202556702314
0.226000000000000062,19.135535729435755314
0.227000000000000063,18.665026330613436301
0.228000000000000064,18.200294152326030428
0.229000000000000065,17.741088438366940494
0.230000000000000066,17.287194693750976171
0.231000000000000066,16.838434220347416215
0.232000000000000067,16.394663107271014724
0.233000000000000068,15.955770757464293297
0.234000000000000069,15.521678029222886863
0.235000000000000070,15.092335067677741023
0.236000000000000071,14.667718896700836950
0.237000000000000072,14.247830836560813950
0.238000000000000073,13.832693807115447271
0.239000000000000073,13.422349570554803933
0.240000000000000074,13.016855961842043854
0.241000000000000075,12.616284149161248962
0.242000000000000076,12.220715960968139058
0.243000000000000077,11.830241310730993831
0.244000000000000078,11.444955745207991527
0.245000000000000079,11.064958137179141673
0.246000000000000080,10.690348538971774062
0.247000000000000081,10.321226208907456012
0.248000000000000081,9.957687818969997551
0.249000000000000082,9.599825848551216012
0.250000000000000111,9.247727166069619642
0.251000000000000112,8.901471797569868727
0.252000000000000113,8.561131879081484541
0.253000000000000114,8.226770787530389484
0.254000000000000115,7.898442443332126750
0.255000000000000115,7.576190776433525009
0.256000000000000116,7.260049346484260369
0.257000000000000117,6.950041106989030659
0.258000000000000118,6.646178302691316375
0.259000000000000119,6.348462489046427848
0.260000000000000120,6.056884662432611144
0.261000000000000121,5.771425489702497025
0.262000000000000122,5.492055625771107508
0.263000000000000123,5.218736108152045361
0.264000000000000123,4.951418817671089379
0.265000000000000124,4.690046994989205409
0.266000000000000125,4.434555803038985999
0.267000000000000126,4.184872926005135163
0.268000000000000127,3.940919196047481421
0.269000000000000128,3.702609239562903554
0.270000000000000129,3.469852135399158044
0.271000000000000130,3.242552078059834919
0.272000000000000131,3.020609039568047827
0.273000000000000131,2.803919424278664252
0.274000000000000132,2.592376711540246070
0.275000000000000133,2.385872081702153480
0.276000000000000134,2.184295021535997972
0.277000000000000135,1.987533905690478608
0.278000000000000136,1.795476551320868142
0.279000000000000137,1.608010743528406339
0.280000000000000138,1.425024729708359583
0.281000000000000139,1.246407681337259543
0.282000000000000139,1.072050122130285166
0.283000000000000140,0.901844321867960153
0.284000000000000141,0.735684655527990672
0.285000000000000142,0.573467927663400379
0.286000000000000143,0.415093662243220696
0.287000000000000144,0.260464358417650033
0.288000000000000145,0.109485712886563211
0.289000000000000146,-0.037933190258989044
0.290000000000000147,-0.181879721188645233
0.291000000000000147,-0.322437576303496953
0.292000000000000148,-0.459686679234185547
0.293000000000000149,-0.593703109478016078
0.294000000000000150,-0.724559057210521718
0.295000000000000151,-0.852322802748401998
0.296000000000000152,-0.977058719099189732
0.297000000000000153,-1.098827296006577470
0.298000000000000154,-1.217685183887987188
0.299000000000000155,-1.333685256060824553
0.300000000000000155,-1.446876687665129113
0.301000000000000156,-1.557305049711366962
0.302000000000000157,-1.665012416712131182
0.303000000000000158,-1.770037486393716275
0.304000000000000159,-1.872415710027893976
0.305000000000000160,-1.972179431973533070
0.306000000000000161,-2.069358037072216217
0.307000000000000162,-2.163978104600002617
0.308000000000000163,-2.256063567538602044
0.309000000000000163,-2.345635875992672315
0.310000000000000164,-2.432714163645106176
0.311000000000000165,-2.517315416208158130
0.312000000000000166,-2.599454640895094926
0.313000000000000167,-2.679145036003636626
0.314000000000000168,-2.756398159768743472
0.315000000000000169,-2.831224097707833565
0.316000000000000170,-2.903631627745991928
0.317000000000000171,-2.973628382471517728
0.318000000000000171,-3.041221007933617049
0.319000000000000172,-3.106415318453533025
0.320000000000000173,-3.169216446977602519
0.321000000000000174,-3.229628990556076218
0.322000000000000175,-3.287657150584346599
0.323000000000000176,-3.343304867493666954
0.324000000000000177,-3.396575949626468027
0.325000000000000178,-3.447474196076667052
0.326000000000000179,-3.496003513318613365
0.327000000000000179,-3.542168025488263261
0.328000000000000180,-3.585972178218270301
0.329000000000000181,-3.627420835963971690
0.330000000000000182,-3.666519372789841746
0.331000000000000183,-3.703273756616753509
0.332000000000000184,-3.737690626958002582
0.333000000000000185,-3.769777366198115320
0.334000000000000186,-3.799542164491669816
0.335000000000000187,-3.826994078380836051
0.336000000000000187,-3.852143083249569777
0.337000000000000188,-3.875000119749438365
0.338000000000000189,-3.895577134347723014
0.339000000000000190,-3.913887114161710201
0.340000000000000191,-3.929944116254918463
0.341000000000000192,-3.943763291581292130
0.342000000000000193,-3.955360903771850900
0.343000000000000194,-3.964754342965657319
0.344000000000000195,-3.971962134892417229
0.345000000000000195,-3.977003945419053110
0.346000000000000196,-3.979900580775436847
0.347000000000000197,-3.980673983677001981
0.348000000000000198,-3.979347225563112822
0.349000000000000199,-3.975944495170199211
0.350000000000000200,-3.970491083658271858
0.351000000000000201,-3.963013366507838420
0.352000000000000202,-3.953538782402196805
0.353000000000000203,-3.942095809307352816
0.354000000000000203,-3.928713937958349334
0.355000000000000204,-3.913423642956879611
0.356000000000000205,-3.896256351680746466
0.357000000000000206,-3.877244411200997831
0.358000000000000207,-3.856421053397093512
0.359000000000000208,-3.833820358455423793
0.360000000000000209,-3.809477216930397869
0.361000000000000210,-3.783427290541545140
0.362000000000000210,-3.755706971873792988
0.363000000000000211,-3.726353343141853625
0.364000000000000212,-3.695404134173269739
0.365000000000000213,-3.662897679757990854
0.366000000000000214,-3.628872876506043177
0.367000000000000215,-3.593369139348064234
0.368000000000000216,-3.556426357807078720
0.369000000000000217,-3.518084852163212872
0.370000000000000218,-3.478385329626692002
0.371000000000000218,-3.437368840627827549
0.372000000000000219,-3.395076735326619577
0.373000000000000220,-3.351550620438143113
0.374000000000000221,-3.306832316463898191
0.375000000000000222,-3.260963815413131961
0.376000000000000223,-3.213987239092530590
0.377000000000000224,-3.165944798036709251
0.378000000000000225,-3.116878751146486159
0.379000000000000226,-3.066831366096502087
0.380000000000000226,-3.015844880568576247
0.381000000000000227,-2.963961464361916764
0.382000000000000228,-2.911223182426705414
0.383000000000000229,-2.857671958862650463
0.384000000000000230,-2.803349541919576637
0.385000000000000231,-2.748297470032983192
0.386000000000000232,-2.692557038923019341
0.387000000000000233,-2.636169269781633684
0.388000000000000234,-2.579174878568592177
0.389000000000000234,-2.521614246433685480
0.390000000000000235,-2.463527391278755196
0.391000000000000236,-2.404953940470099472
0.392000000000000237,-2.345933104708538330
0.393000000000000238,-2.286503653061667585
0.394000000000000239,-2.226703889159863614
0.395000000000000240,-2.166571628555189033
0.396000000000000241,-2.106144177239802406
0.397000000000000242,-2.045458311318104627
0.398000000000000242,-1.984550257824976072
0.399000000000000243,-1.923455676680147164
0.400000000000000244,-1.862209643767061662
0.401000000000000245,-1.800846635122958617
0.402000000000000246,-1.739400512225066420
0.403000000000000247,-1.677904508356550251
0.404000000000000248,-1.616391216034464673
0.405000000000000249,-1.554892575480719019
0.406000000000000250,-1.493439864115944093
0.407000000000000250,-1.432063687055260104
0.408000000000000251,-1.370793968583881473
0.409000000000000252,-1.309659944589894209
0.410000000000000253,-1.248690155930676893
0.411000000000000254,-1.187912442708951355
0.412000000000000255,-1.127353939433849206
0.413000000000000256,-1.067041071042007516
0.414000000000000257,-1.006999549753237355
0.415000000000000258,-0.947254372735196859
0.416000000000000258,-0.887829820551072069
0.417000000000000259,-0.828749456364288761
0.418000000000000260,-0.770036125874093647
0.419000000000000261,-0.711711957955803109
0.420000000000000262,-0.653798365979620266
0.421000000000000263,-0.596316049781868252
0.422000000000000264,-0.539284998262749893
0.423000000000000265,-0.482724492584699238
0.424000000000000266,-0.426653109945901943
0.425000000000000266,-0.371088727903422122
0.426000000000000267,-0.316048529221003183
0.427000000000000268,-0.261549007216649587
0.428000000000000269,-0.207605971585586108
0.429000000000000270,-0.154234554674568841
0.430000000000000271,-0.101449218183702491
0.431000000000000272,-0.049263760272646631
0.432000000000000273,0.002308676951765909
0.433000000000000274,0.053255599588805637
0.434000000000000274,0.103565153760075759
0.435000000000000275,0.153226117110027593
0.436000000000000276,0.202227890011808104
0.437000000000000277,0.250560486498926316
0.438000000000000278,0.298214524942629067
0.439000000000000279,0.345181218494473363
0.440000000000000280,0.391452365313024631
0.441000000000000281,0.437020338593046731
0.442000000000000282,0.481878076415029166
0.443000000000000282,0.526019071432459184
0.444000000000000283,0.569437360413518112
0.445000000000000284,0.612127513653538236
0.446000000000000285,0.654084624273996496
0.447000000000000286,0.695304297423075424
0.448000000000000287,0.735782639392675408
0.449000000000000288,0.775516246665841402
0.450000000000000289,0.814502194908376387
0.451000000000000290,0.852738027917668617
0.452000000000000290,0.890221746541372427
0.453000000000000291,0.926951797578080217
0.454000000000000292,0.962927062671528056
0.455000000000000293,0.998146847209550159
0.456000000000000294,1.032610869238358875
0.457000000000000295,1.066319248402360254
0.458000000000000296,1.099272494919220966
0.459000000000000297,1.131471498599434300
0.460000000000000298,1.162917517919224597
0.461000000000000298,1.193612169155132907
0.462000000000000299,1.223557415588281572
0.463000000000000300,1.252755556785849267
0.464000000000000301,1.281209217966873259
0.465000000000000302,1.308921339459101052
0.466000000000000303,1.335895166253326716
0.467000000000000304,1.362134237661099423
0.468000000000000305,1.387642377081437894
0.469000000000000306,1.412423681881856741
0.470000000000000306,1.436482513398527505
0.471000000000000307,1.459823487060244007
0.472000000000000308,1.482451462640360207
0.473000000000000309,1.504371534640704722
0.474000000000000310,1.525589022811035145
0.475000000000000311,1.546109462807452761
0.476000000000000312,1.565938596992699328
0.477000000000000313,1.585082365381274006
0.478000000000000314,1.603546896731746330
0.479000000000000314,1.621338499788561593
0.480000000000000315,1.638463654675379022
0.481000000000000316,1.654929004441646923
0.482000000000000317,1.670741346764009760
0.483000000000000318,1.685907625803823251
0.484000000000000319,1.700434924221932764
0.485000000000000320,1.714330455351549265
0.486000000000000321,1.727601555530020816
0.487000000000000322,1.740255676589945733
0.488000000000000322,1.752300378510052381
0.489000000000000323,1.763743322225928667
0.490000000000000324,1.774592262600715342
0.491000000000000325,1.784855041555551081
0.492000000000000326,1.794539581359528624
0.493000000000000327,1.803653878078710138
0.494000000000000328,1.812205995183633123
0.495000000000000329,1.820204057314671386
0.496000000000000330,1.827656244204372893
0.497000000000000330,1.834570784755916950
0.498000000000000331,1.840955951276636693
0.499000000000000332,1.846820053865465328
0.500000000000000333,1.852171434953114870
0.501000000000000334,1.857018463993659996
0.502000000000000335,1.861369532306119456
0.503000000000000336,1.865233048064569799
0.504000000000000337,1.868617431435260601
0.505000000000000338,1.871531109859072783
0.506000000000000338,1.873982513477663758
0.507000000000000339,1.875980070701573243
0.508000000000000340,1.877532203918464759
0.509000000000000341,1.878647325339666718
0.510000000000000342,1.879333832983133279
0.511000000000000343,1.879600106790881187
0.512000000000000344,1.879454504878931953
0.513000000000000345,1.878905359917756090
0.514000000000000346,1.877960975641174812
0.515000000000000346,1.876629623481665066
0.516000000000000347,1.874919539329982232
0.517000000000000348,1.872838920416954211
0.518000000000000349,1.870395922315380322
0.519000000000000350,1.867598656059841655
0.520000000000000351,1.864455185382279723
0.521000000000000352,1.860973524061198869
0.522000000000000353,1.857161633382285570
0.523000000000000353,1.853027419708302093
0.524000000000000354,1.848578732156055837
0.525000000000000355,1.843823360378250786
0.526000000000000356,1.838769032448094309
0.527000000000000357,1.833423412844400691
0.528000000000000358,1.827794100535135247
0.529000000000000359,1.821888627157110863
0.530000000000000360,1.815714455289796359
0.531000000000000361,1.809278976821023122
0.532000000000000361,1.802589511402498790
0.533000000000000362,1.795653304992976373
0.534000000000000363,1.788477528487032231
0.535000000000000364,1.781069276427309278
0.536000000000000365,1.773435565798195501
0.537000000000000366,1.765583334898878531
0.538000000000000367,1.757519442293747236
0.539000000000000368,1.749250665838121721
0.540000000000000369,1.740783701777349979
0.541000000000000369,1.732125163917270783
0.542000000000000370,1.723281582864128136
0.543000000000000371,1.714259405332013486
0.544000000000000372,1.705064993515919891
0.545000000000000373,1.695704624528570958
0.546000000000000374,1.686184489899155370
0.547000000000000375,1.676510695132160667
0.548000000000000376,1.666689259324503514
0.549000000000000377,1.656726114839205177
0.550000000000000377,1.646627107033871606
0.551000000000000378,1.636397994042235293
0.552000000000000379,1.626044446607147531
0.553000000000000380,1.615572047963270252
0.554000000000000381,1.604986293767928007
0.555000000000000382,1.594292592078466742
0.556000000000000383,1.583496263374561952
0.557000000000000384,1.572602540623946332
0.558000000000000385,1.561616569390027909
0.559000000000000385,1.550543407979908084
0.560000000000000386,1.539388027631374722
0.561000000000000387,1.528155312737400129
0.562000000000000388,1.516850061106771452
0.563000000000000389,1.505476984259467077
0.564000000000000390,1.494040707755451614
0.565000000000000391,1.482545771555547010
0.566000000000000392,1.470996630413129225
0.567000000000000393,1.459397654295352842
0.568000000000000393,1.447753128832700797
0.569000000000000394,1.436067255795621334
0.570000000000000395,1.424344153597133289
0.571000000000000396,1.412587857820174486
0.572000000000000397,1.400802321768615410
0.573000000000000398,1.388991417040853937
0.574000000000000399,1.377158934124860235
0.575000000000000400,1.365308583013698396
0.576000000000000401,1.353443993840452331
0.577000000000000401,1.341568717531584465
0.578000000000000402,1.329686226477748257
0.579000000000000403,1.317799915221136597
0.580000000000000404,1.305913101158400647
0.581000000000000405,1.294029025258285115
0.582000000000000406,1.282150852793094042
0.583000000000000407,1.270281674083108880
0.584000000000000408,1.258424505253205927
0.585000000000000409,1.246582289000794486
0.586000000000000409,1.234757895374327230
0.587000000000000410,1.222954122561644263
0.588000000000000411,1.211173697687379480
0.589000000000000412,1.199419277618731128
0.590000000000000413,1.187693449778910670
0.591000000000000414,1.175998732967577176
0.592000000000000415,1.164337578187626177
0.593000000000000416,1.152712369477679299
0.594000000000000417,1.141125424749672268
0.595000000000000417,1.129578996630956400
0.596000000000000418,1.118075273310304762
0.597000000000000419,1.106616379387322935
0.598000000000000420,1.095204376724652207
0.599000000000000421,1.083841265302523782
0.600000000000000422,1.072528984075084679
0.601000000000000423,1.061269411828074327
0.602000000000000424,1.050064368037339380
0.603000000000000425,1.038915613727739329
0.604000000000000425,1.027824852332030581
0.605000000000000426,1.016793730549288011
0.606000000000000427,1.005823839202436343
0.607000000000000428,0.994916714094574717
0.608000000000000429,0.984073836863590401
0.609000000000000430,0.973296635834871582
0.610000000000000431,0.962586486871589764
0.611000000000000432,0.951944714222350719
0.612000000000000433,0.941372591365848832
0.613000000000000433,0.930871341852177792
0.614000000000000434,0.920442140140576015
0.615000000000000435,0.910086112433270200
0.616000000000000436,0.899804337505160645
0.617000000000000437,0.889597847529096541
0.618000000000000438,0.879467628896488329
