# CNT15-NH2-14_THR
# h[nm],U(h)[kJ/mol]
0.200000000000000011,68.405352152790072751
0.201000000000000012,66.193804031703706414
0.202000000000000013,64.808426902221512478
0.203000000000000014,63.777631450111002209
0.204000000000000015,62.842918578879242375
0.205000000000000016,61.878901980971008356
0.206000000000000016,60.839377721118907516
0.207000000000000017,59.721838625826421776
0.208000000000000018,58.544869286372978934
0.209000000000000019,57.334383961847400712
0.210000000000000020,56.115806645323651480
0.211000000000000021,54.910134061675236694
0.212000000000000022,53.732440668674485096
0.213000000000000023,52.591835219167066384
0.214000000000000024,51.492203423253741335
0.215000000000000024,50.433302936690388663
0.216000000000000025,49.411939720529481690
0.217000000000000026,48.423067207313394533
0.218000000000000027,47.460725522787676312
0.219000000000000028,46.518787595588676709
0.220000000000000029,45.591510018521425707
0.221000000000000030,44.673904658471727203
0.222000000000000031,43.761956375345576475
0.223000000000000032,42.852715785013018035
0.224000000000000032,41.944295912898873269
0.225000000000000033,41.035799325477142929
0.226000000000000034,40.127198922314228469
0.227000000000000035,39.219191707994568219
0.228000000000000036,38.313040983599726985
0.229000000000000037,37.410418770519633824
0.230000000000000038,36.513257053694601950
0.231000000000000039,35.623613673236185662
0.232000000000000040,34.743556414986258574
0.233000000000000040,33.875067030196746032
0.234000000000000041,33.019965510621872795
0.235000000000000042,32.179853906454752632
0.236000000000000043,31.356078245944178917
0.237000000000000044,30.549706643436913112
0.238000000000000045,29.761521416876938417
0.239000000000000046,28.992022931441407962
0.240000000000000047,28.241442903736828640
0.241000000000000048,27.509765007434005213
0.242000000000000048,26.796750788637659468
0.243000000000000049,26.101969105115006897
0.244000000000000050,25.424827529851526720
0.245000000000000051,24.764604392404628186
0.246000000000000052,24.120480360805249376
0.247000000000000053,23.491568684810665957
0.248000000000000054,22.876943423026425251
0.249000000000000055,22.275665158587504067
0.250000000000000056,21.686803869028274505
0.251000000000000056,21.109458755155081633
0.252000000000000057,20.542774951511034942
0.253000000000000058,19.985957138373045439
0.254000000000000059,19.438280153556192431
0.255000000000000060,18.899096763309930935
0.256000000000000061,18.367842797108750119
0.257000000000000062,17.844039883054971796
0.258000000000000063,17.327296040790155729
0.259000000000000064,16.817304399047635854
0.260000000000000064,16.313840306953927950
0.261000000000000065,15.816757103451021038
0.262000000000000066,15.325980799162300272
0.263000000000000067,14.841503910911921338
0.264000000000000068,14.363378672021443805
0.265000000000000069,13.891709822393357499
0.266000000000000070,13.426647162053956919
0.267000000000000071,12.968378030937577350
0.268000000000000071,12.517119856807015665
0.269000000000000072,12.073112892762862813
0.270000000000000073,11.636613246149249079
0.271000000000000074,11.207886282078787232
0.272000000000000075,10.787200467467652487
0.273000000000000076,10.374821705522922599
0.274000000000000077,9.971008196134381052
0.275000000000000078,9.576005844626227059
0.276000000000000079,9.190044229816910715
0.277000000000000079,8.813333132285738003
0.278000000000000080,8.446059615100981688
0.279000000000000081,8.088385641951663985
0.280000000000000082,7.740446211563723367
0.281000000000000083,7.402347982376758395
0.282000000000000084,7.074168357614499136
0.283000000000000085,6.755954998000930800
0.284000000000000086,6.447725727355082981
0.285000000000000087,6.149468795044928271
0.286000000000000087,5.861143458698982123
0.287000000000000088,5.582680850574702980
0.288000000000000089,5.313985091480560641
0.289000000000000090,5.054934617064605895
0.290000000000000091,4.805383682544902335
0.291000000000000092,4.565164013497582829
0.292000000000000093,4.334086572078666322
0.293000000000000094,4.111943409979681441
0.294000000000000095,3.898509581457781259
0.295000000000000095,3.693545091894621102
0.296000000000000096,3.496796859488783049
0.297000000000000097,3.308000669840643670
0.298000000000000098,3.126883105319957057
0.299000000000000099,2.953163433191086096
0.300000000000000100,2.786555438490584180
0.301000000000000101,2.626769189590332676
0.302000000000000102,2.473512726225653768
0.303000000000000103,2.326493661510865785
0.304000000000000103,2.185420691100001367
0.305000000000000104,2.050005004171403300
0.306000000000000105,1.919961592320631905
0.307000000000000106,1.795010453735359945
0.308000000000000107,1.674877691199138541
0.309000000000000108,1.559296503530776645
0.310000000000000109,1.448008071014543541
0.311000000000000110,1.340762336218727313
0.312000000000000111,1.237318682338836684
0.313000000000000111,1.137446511844035557
0.314000000000000112,1.040925728754723112
0.315000000000000113,0.947547128342528078
0.316000000000000114,0.857112698426208630
0.317000000000000115,0.769435836744724821
0.318000000000000116,0.684341489127151092
0.319000000000000117,0.601666213354588919
0.320000000000000118,0.521258173727078722
0.321000000000000119,0.442977071414344170
0.322000000000000119,0.366694015688411867
0.323000000000000120,0.292291341113869674
0.324000000000000121,0.219662375712158436
0.325000000000000122,0.148711165025148001
0.326000000000000123,0.079352156884094943
0.327000000000000124,0.011509851547079503
0.328000000000000125,-0.054881578295144243
0.329000000000000126,-0.119878693324345711
0.330000000000000127,-0.183529215083765573
0.331000000000000127,-0.245872471226949024
0.332000000000000128,-0.306939854813855550
0.333000000000000129,-0.366755294158423450
0.334000000000000130,-0.425335729951490549
0.335000000000000131,-0.482691596604367945
0.336000000000000132,-0.538827304978678367
0.337000000000000133,-0.593741723887029171
0.338000000000000134,-0.647428657964261856
0.339000000000000135,-0.699877319719755642
0.340000000000000135,-0.751072793786774495
0.341000000000000136,-0.800996491583615744
0.342000000000000137,-0.849626594793437939
0.343000000000000138,-0.896938486253832656
0.344000000000000139,-0.942905167023718738
0.345000000000000140,-0.987497658562894065
0.346000000000000141,-1.030685389118964013
0.347000000000000142,-1.072436563566812495
0.348000000000000143,-1.112718516087547682
0.349000000000000143,-1.151498045206446719
0.350000000000000144,-1.188741730833565491
0.351000000000000145,-1.224416233065723780
0.352000000000000146,-1.258488572615407364
0.353000000000000147,-1.290926392830264779
0.354000000000000148,-1.321698203357161372
0.355000000000000149,-1.350773605586866211
0.356000000000000150,-1.378123500090167486
0.357000000000000151,-1.403720276323459970
0.358000000000000151,-1.427537984942175431
0.359000000000000152,-1.449552493113951179
0.360000000000000153,-1.469741623270838016
0.361000000000000154,-1.488085275780808736
0.362000000000000155,-1.504565536054585095
0.363000000000000156,-1.519166766633814891
0.364000000000000157,-1.531875684831715434
0.365000000000000158,-1.542681426517962251
0.366000000000000159,-1.551575596655299760
0.367000000000000159,-1.558552307207618615
0.368000000000000160,-1.563608203047317957
0.369000000000000161,-1.566742476494529690
0.370000000000000162,-1.567956871122365481
0.371000000000000163,-1.567255675461033615
0.372000000000000164,-1.564645707229595173
0.373000000000000165,-1.560136288717860253
0.374000000000000166,-1.553739213932358698
0.375000000000000167,-1.545468708109754674
0.376000000000000167,-1.535341380189128468
0.377000000000000168,-1.523376168820673726
0.378000000000000169,-1.509594282473444293
0.379000000000000170,-1.494019134188752540
0.380000000000000171,-1.476676271508564620
0.381000000000000172,-1.457593302090521181
0.382000000000000173,-1.436799815502503463
0.383000000000000174,-1.414327301670754711
0.384000000000000175,-1.390209066435934115
0.385000000000000175,-1.364480144651807780
0.386000000000000176,-1.337177211241381780
0.387000000000000177,-1.308338490605120530
0.388000000000000178,-1.278003664756139468
0.389000000000000179,-1.246213780537049898
0.390000000000000180,-1.213011156253695599
0.391000000000000181,-1.178439288041247979
0.392000000000000182,-1.142542756259117276
0.393000000000000183,-1.105367132192079049
0.394000000000000183,-1.066958885316640737
0.395000000000000184,-1.027365291373599554
0.396000000000000185,-0.986634341470030485
0.397000000000000186,-0.944814652417007017
0.398000000000000187,-0.901955378492626414
0.399000000000000188,-0.858106124803909465
0.400000000000000189,-0.813316862405696228
0.401000000000000190,-0.767637845319585121
0.402000000000000191,-0.721119529581873753
0.403000000000000191,-0.673812494435360843
0.404000000000000192,-0.625767365766999983
0.405000000000000193,-0.577034741880592783
0.406000000000000194,-0.527665121681821225
0.407000000000000195,-0.477708835341511040
0.408000000000000196,-0.427215977492051369
0.409000000000000197,-0.376236343001782991
0.410000000000000198,-0.324819365362426116
0.411000000000000199,-0.273014057715346259
0.412000000000000199,-0.220868956534010896
0.413000000000000200,-0.168432067971814037
0.414000000000000201,-0.115750816876913104
0.415000000000000202,-0.062871998468566032
0.416000000000000203,-0.009841732663079427
0.417000000000000204,0.043294578968922158
0.418000000000000205,0.096492293637569948
0.419000000000000206,0.149707565190192737
0.420000000000000207,0.202897379423027407
0.421000000000000207,0.256019586886173434
0.422000000000000208,0.309032933224219653
0.423000000000000209,0.361897087098109638
0.424000000000000210,0.414572665737451718
0.425000000000000211,0.467021258175217668
0.426000000000000212,0.519205446219366817
0.427000000000000213,0.571088823218344865
0.428000000000000214,0.622636010679205265
0.429000000000000214,0.673812672799024459
0.430000000000000215,0.724585528971593673
0.431000000000000216,0.774922364332540581
0.432000000000000217,0.824792038407191952
0.433000000000000218,0.874164491926006648
0.434000000000000219,0.923010751873085566
0.435000000000000220,0.971302934833542131
0.436000000000000221,1.019014248705728320
0.437000000000000222,1.066118992844273805
0.438000000000000222,1.112592556699695923
0.439000000000000223,1.158411417020088319
0.440000000000000224,1.203553133679901022
0.441000000000000225,1.247996344200330565
0.442000000000000226,1.291720757024943156
0.443000000000000227,1.334707143613682145
0.444000000000000228,1.376937329417204925
0.445000000000000229,1.418394183792739405
0.446000000000000230,1.459061608921472075
0.447000000000000230,1.498924527786407612
0.448000000000000231,1.537968871268429627
0.449000000000000232,1.576181564417080239
0.450000000000000233,1.613550511951202582
0.451000000000000234,1.650064583043365118
0.452000000000000235,1.685713595440493595
0.453000000000000236,1.720488298971867280
0.454000000000000237,1.754380358494024295
0.455000000000000238,1.787382336320887832
0.456000000000000238,1.819487674185741755
0.457000000000000239,1.850690674780409939
0.458000000000000240,1.880986482915286473
0.459000000000000241,1.910371066342648971
0.460000000000000242,1.938841196283878743
0.461000000000000243,1.966394427700058900
0.462000000000000244,1.993029079343618282
0.463000000000000245,2.018744213627565731
0.464000000000000246,2.043539616347046284
0.465000000000000246,2.067415776286799733
0.466000000000000247,2.090373864746525978
0.467000000000000248,2.112415715014808626
0.468000000000000249,2.133543801820825703
0.469000000000000250,2.153761220791774456
0.470000000000000251,2.173071667942531260
0.471000000000000252,2.191479419222849501
0.472000000000000253,2.208989310145952789
0.473000000000000254,2.225606715521329715
0.474000000000000254,2.241337529313129018
0.475000000000000255,2.256188144644442062
0.476000000000000256,2.270165433966585766
0.477000000000000257,2.283276729411297001
0.478000000000000258,2.295529803342733821
0.479000000000000259,2.306932849125007845
0.480000000000000260,2.317494462119976006
0.481000000000000261,2.327223620929008696
0.482000000000000262,2.336129668891408162
0.483000000000000262,2.344222295851261961
0.484000000000000263,2.351511520203574346
0.485000000000000264,2.358007671229593427
0.486000000000000265,2.363721371730431287
0.487000000000000266,2.368663520967229097
0.488000000000000267,2.372845277915341278
0.489000000000000268,2.376278044839168935
0.490000000000000269,2.378973451193658217
0.491000000000000270,2.380943337857639008
0.492000000000000270,2.382199741703607376
0.493000000000000271,2.382754880507806927
0.494000000000000272,2.382621138203937061
0.495000000000000273,2.381811050483121583
0.496000000000000274,2.380337290742271072
0.497000000000000275,2.378212656382427515
0.498000000000000276,2.375450055458068643
0.499000000000000277,2.372062493678018136
0.500000000000000222,2.368063061757959442
0.501000000000000334,2.363464923124275252
0.502000000000000224,2.358281301968352839
0.503000000000000336,2.352525471650236177
0.504000000000000226,2.346210743450051872
0.505000000000000338,2.339350455665270445
0.506000000000000227,2.331957963051587424
0.507000000000000339,2.324046626604851173
0.508000000000000229,2.315629803681188648
0.509000000000000341,2.306720838452170685
0.510000000000000231,2.297333052691657329
0.511000000000000343,2.287479736890657200
0.512000000000000233,2.277174141696409304
0.513000000000000345,2.266429469671523478
0.514000000000000234,2.255258867369023701
0.515000000000000346,2.243675417718802301
0.516000000000000236,2.231692132720946908
0.517000000000000348,2.219321946441117799
0.518000000000000238,2.206577708303224750
0.519000000000000350,2.193472176674272855
0.520000000000000240,2.180018012736418598
0.521000000000000352,2.166227774640892445
0.522000000000000242,2.152113911938664081
0.523000000000000353,2.137688760282316913
0.524000000000000243,2.122964536393905810
0.525000000000000355,2.107953333293133280
0.526000000000000245,2.092667115780499021
0.527000000000000357,2.077117716169720296
0.528000000000000247,2.061316830263974165
0.529000000000000359,2.045276013570261231
0.530000000000000249,2.029006677746358456
0.531000000000000361,2.012520087274684677
0.532000000000000250,1.995827356357552373
0.533000000000000362,1.978939446028094240
0.534000000000000252,1.961867161471454235
0.535000000000000364,1.944621149550453509
0.536000000000000254,1.927211896530463431
0.537000000000000366,1.909649725997749625
0.538000000000000256,1.891944796966016584
0.539000000000000368,1.874107102165593064
0.540000000000000258,1.856146466510018467
0.541000000000000369,1.838072545734569463
0.542000000000000259,1.819894825201622268
0.543000000000000371,1.801622618867493753
0.544000000000000261,1.783265068405737619
0.545000000000000373,1.764831142481711357
0.546000000000000263,1.746329636173523880
0.547000000000000375,1.727769170534258603
0.548000000000000265,1.709158192290779699
0.549000000000000377,1.690504973674139766
0.550000000000000266,1.671817612377047180
0.551000000000000378,1.653104031633561233
0.552000000000000268,1.634371980416621684
0.553000000000000380,1.615629033748775756
0.554000000000000270,1.596882593121806915
0.555000000000000382,1.578139887020853616
0.556000000000000272,1.559407971548844918
0.557000000000000384,1.540693731147039891
0.558000000000000274,1.522003879407624494
0.559000000000000385,1.503344959974356243
0.560000000000000275,1.484723347527378667
0.561000000000000387,1.466145248848320204
0.562000000000000277,1.447616703962051776
0.563000000000000389,1.429143587351299205
0.564000000000000279,1.410731609240701179
0.565000000000000391,1.392386316946679692
0.566000000000000281,1.374113096289878211
0.567000000000000393,1.355917173066687242
0.568000000000000282,1.337803614576781097
0.569000000000000394,1.319777331203374038
0.570000000000000284,1.301843078043286805
0.571000000000000396,1.284005456583652061
0.572000000000000286,1.266268916422525370
0.573000000000000398,1.248637757030459650
0.574000000000000288,1.231116129550383409
0.575000000000000400,1.213708038633001030
0.576000000000000290,1.196417344305293229
0.577000000000000401,1.179247763869405663
0.578000000000000291,1.162202873829665917
0.579000000000000403,1.145286111845235544
0.580000000000000293,1.128500778706207353
0.581000000000000405,1.111850040330799594
0.582000000000000295,1.095336929781685509
0.583000000000000407,1.078964349299157410
0.584000000000000297,1.062735072349346277
0.585000000000000409,1.046651745685325263
0.586000000000000298,1.030716891419457326
0.587000000000000410,1.014932909104936387
0.588000000000000300,0.999302077825008794
0.589000000000000412,0.983826558287983710
0.590000000000000302,0.968508394926593241
0.591000000000000414,0.953349517999966700
0.592000000000000304,0.938351745696885509
0.593000000000000416,0.923516786238736342
0.594000000000000306,0.908846239980865667
0.595000000000000417,0.894341601510930451
0.596000000000000307,0.880004261743065674
0.597000000000000419,0.865835510006517928
0.598000000000000309,0.851836536127667188
0.599000000000000421,0.838008432504294576
0.600000000000000311,0.824352196170987428
0.601000000000000423,0.810868730854672259
0.602000000000000313,0.797558849019346150
0.603000000000000425,0.784423273898970264
0.604000000000000314,0.771462641517754788
0.605000000000000426,0.758677502696878170
0.606000000000000316,0.746068325046943981
0.607000000000000428,0.733635494945321098
0.608000000000000318,0.721379319497710059
0.609000000000000430,0.709300028483205058
0.610000000000000320,0.697397776282271731
0.611000000000000432,0.685672643786931824
0.612000000000000322,0.674124640292710131
0.613000000000000433,0.662753705371678214
0.614000000000000323,0.651559710726192565
0.615000000000000435,0.640542462022775094
0.616000000000000325,0.629701700705788459
0.617000000000000437,0.619037105790383180
0.618000000000000327,0.608548295634445013
0.619000000000000439,0.598234829689120673
0.620000000000000329,0.588096210227635252
0.621000000000000441,0.578131884052082712
0.622000000000000330,0.568341244177952287
0.623000000000000442,0.558723631496086726
0.624000000000000332,0.549278336411951784
0.625000000000000444,0.540004600461890027
0.626000000000000334,0.530901617906316514
0.627000000000000446,0.521968537299600799
0.628000000000000336,0.513204463036572966
0.629000000000000448,0.504608456875492939
0.630000000000000338,0.496179539437455575
0.631000000000000449,0.487916691682063142
0.632000000000000339,0.479818856359428281
0.633000000000000451,0.471884939438363127
0.634000000000000341,0.464113811510829255
0.635000000000000453,0.456504309172534373
0.636000000000000343,0.449055236379835687
0.637000000000000455,0.441765365782806341
0.638000000000000345,0.434633440034664698
0.639000000000000457,0.427658173077495207
0.640000000000000346,0.420838251404419883
0.641000000000000458,0.414172335298229222
0.642000000000000348,0.407659060046627719
0.643000000000000460,0.401297037134131673
0.644000000000000350,0.395084855410804292
0.645000000000000462,0.389021082237877125
0.646000000000000352,0.383104264610467538
0.647000000000000464,0.377332930257456511
0.648000000000000353,0.371705588718758362
0.649000000000000465,0.366220732400068139
0.650000000000000355,0.360876837605319412
0.651000000000000467,0.355672365546980895
0.652000000000000357,0.350605763334391196
0.653000000000000469,0.345675464940339017
0.654000000000000359,0.340879892146045360
0.655000000000000471,0.336217455464785708
0.656000000000000361,0.331686555044343745
0.657000000000000473,0.327285581548502180
0.658000000000000362,0.323012917017799661
0.659000000000000474,0.318866935709770982
0.660000000000000364,0.314846004918899414
0.661000000000000476,0.310948485776489814
0.662000000000000366,0.307172734030737193
0.663000000000000478,0.303517100807179196
0.664000000000000368,0.299979933349816430
0.665000000000000480,0.296559575743091774
0.666000000000000369,0.293254369615034483
0.667000000000000481,0.290062654821750754
0.668000000000000371,0.286982770113569985
0.669000000000000483,0.284013053783042924
0.670000000000000373,0.281151844295079889
