# Ag110_BUTENE2-AC
# h[nm],U(h)[kJ/mol]
0.149999999999999994,125.284577158630895610
0.150999999999999995,121.455415547440182422
0.151999999999999996,118.379712821302703674
0.152999999999999997,115.515191903641380122
0.153999999999999998,112.677170526287071084
0.154999999999999999,109.837155622403926714
0.156000000000000000,107.020351743391032073
0.157000000000000001,104.258697460279705638
0.158000000000000002,101.573402283573074101
0.159000000000000002,98.971867681102338565
0.160000000000000003,96.450594924222301074
0.161000000000000004,93.999713262384787527
0.162000000000000005,91.607097071331352822
0.163000000000000006,89.261328360103647128
0.164000000000000007,86.953418961483563976
0.165000000000000008,84.677499510151932327
0.166000000000000009,82.430774202379808457
0.167000000000000010,80.213030588239206509
0.168000000000000010,78.025940086892333625
0.169000000000000011,75.872319458752102150
0.170000000000000012,73.755462276095713037
0.171000000000000013,71.678599410729447072
0.172000000000000014,69.644510448091466515
0.173000000000000015,67.655282842544608002
0.174000000000000016,65.712200500454130747
0.175000000000000017,63.815735964627926080
0.176000000000000018,61.965618263796002907
0.177000000000000018,60.160949911179386618
0.178000000000000019,58.400350013193964571
0.179000000000000020,56.682104893273518087
0.180000000000000021,55.004312290104870442
0.181000000000000022,53.365009567329344975
0.182000000000000023,51.762280192723814309
0.183000000000000024,50.194335879181366522
0.184000000000000025,48.659574201213757760
0.185000000000000026,47.156613249508666286
0.186000000000000026,45.684306041164603585
0.187000000000000027,44.241738061768806745
0.188000000000000028,42.828211578978489626
0.189000000000000029,41.443220332511543802
0.190000000000000030,40.086417959190200122
0.191000000000000031,38.757583127939327028
0.192000000000000032,37.456583898929480370
0.193000000000000033,36.183343330767911539
0.194000000000000034,34.937807875225516341
0.195000000000000034,33.719919645468131364
0.196000000000000035,32.529593237446889020
0.197000000000000036,31.366697434253232757
0.198000000000000037,30.231041833639409333
0.199000000000000038,29.122368209219150259
0.200000000000000039,28.040346242869667037
0.201000000000000040,26.984573144393458222
0.202000000000000041,25.954576598279800237
0.203000000000000042,24.949820439624794233
0.204000000000000042,23.969712455058505896
0.205000000000000043,23.013613723312033699
0.206000000000000044,22.080848947742708788
0.207000000000000045,21.170717284290862636
0.208000000000000046,20.282503228226737235
0.209000000000000047,19.415487187667324065
0.210000000000000048,18.568955437910339867
0.211000000000000049,17.742209215535289957
0.212000000000000050,16.934572772951213437
0.213000000000000050,16.145400271173397044
0.214000000000000051,15.374081440089224060
0.215000000000000052,14.620045980737851110
0.216000000000000053,13.882766722912156965
0.217000000000000054,13.161761583690321231
0.218000000000000055,12.456594398522666367
0.219000000000000056,11.766874716591974703
0.220000000000000057,11.092256666792820852
0.221000000000000058,10.432437010379789655
0.222000000000000058,9.787152501678784589
0.223000000000000059,9.156176679839054700
0.224000000000000060,8.539316212998645739
0.225000000000000061,7.936406912006876091
0.226000000000000062,7.347309524519596735
0.227000000000000063,6.771905412341155284
0.228000000000000064,6.210092205772360430
0.229000000000000065,5.661779518824176627
0.230000000000000066,5.126884798818364786
0.231000000000000066,4.605329373407054838
0.232000000000000067,4.097034747654015874
0.233000000000000068,3.601919193730836355
0.234000000000000069,3.119894666155402341
0.235000000000000070,2.650864066462289337
0.236000000000000071,2.194718872838604007
0.237000000000000072,1.751337142645336131
0.238000000000000073,1.320581888914234669
0.239000000000000073,0.902299825879027240
0.240000000000000074,0.496320473363112413
0.241000000000000075,0.102455605391775159
0.242000000000000076,-0.279500975307546196
0.243000000000000077,-0.649773358244977617
0.244000000000000078,-1.008603165199423168
0.245000000000000079,-1.356248934699729292
0.246000000000000080,-1.692985277456493964
0.247000000000000081,-2.019101829880805887
0.248000000000000081,-2.334902033007146382
0.249000000000000082,-2.640701763922108647
0.250000000000000111,-2.936827846240766871
0.251000000000000112,-3.223616465318822399
0.252000000000000113,-3.501411512792802050
0.253000000000000114,-3.770562883742610616
0.254000000000000115,-4.031424748319844653
0.255000000000000115,-4.284353818113113554
0.256000000000000116,-4.529707625868373277
0.257000000000000117,-4.767842835476818308
0.258000000000000118,-4.999113597412938148
0.259000000000000119,-5.223869963077234502
0.260000000000000120,-5.442456369791409010
0.261000000000000121,-5.655210206526630756
0.262000000000000122,-5.862460468834541416
0.263000000000000123,-6.064526509906308149
0.264000000000000123,-6.261716893219327673
0.265000000000000124,-6.454328350850301099
0.266000000000000125,-6.642644850244255217
0.267000000000000126,-6.826936771034619156
0.268000000000000127,-7.007460192412999334
0.269000000000000128,-7.184456290548469681
0.270000000000000129,-7.358150844655763301
0.271000000000000130,-7.528753849507810791
0.272000000000000131,-7.696459231477954077
0.273000000000000131,-7.861444664578553621
0.274000000000000132,-8.023871482431152558
0.275000000000000133,-8.183884681655468896
0.276000000000000134,-8.341613011794958510
0.277000000000000135,-8.497169146601105894
0.278000000000000136,-8.650649931272281989
0.279000000000000137,-8.802136700080193776
0.280000000000000138,-8.951695658712774062
0.281000000000000139,-9.099378325612271112
0.282000000000000139,-9.245222026585341979
0.283000000000000140,-9.389250437003955341
0.284000000000000141,-9.531474165996627335
0.285000000000000142,-9.671891377145186652
0.286000000000000143,-9.810488440347194583
0.287000000000000144,-9.947240609675372269
0.288000000000000145,-10.082112722259232385
0.289000000000000146,-10.215059913424706650
0.290000000000000147,-10.346028343555053297
0.291000000000000147,-10.474955932373893219
0.292000000000000148,-10.601773096599020008
0.293000000000000149,-10.726403487168511219
0.294000000000000150,-10.848764722498112079
0.295000000000000151,-10.968769114487610494
0.296000000000000152,-11.086324384252165487
0.297000000000000153,-11.201334364810817235
0.298000000000000154,-11.313699688216937389
0.299000000000000155,-11.423318454862755544
0.300000000000000155,-11.530086882931351866
0.301000000000000156,-11.633899936203224712
0.302000000000000157,-11.734651928650677633
0.303000000000000158,-11.832237104469838229
0.304000000000000159,-11.926550192408054585
0.305000000000000160,-12.017486933441825059
0.306000000000000161,-12.104944581048144414
0.307000000000000162,-12.188822373489360373
0.308000000000000163,-12.269021977697878611
0.309000000000000163,-12.345447904503476622
0.310000000000000164,-12.418007895091095705
0.311000000000000165,-12.486613278712038522
0.312000000000000166,-12.551179301796111076
0.313000000000000167,-12.611625428726735976
0.314000000000000168,-12.667875614645428328
0.315000000000000169,-12.719858550747261461
0.316000000000000170,-12.767507882614522075
0.317000000000000171,-12.810762402212324318
0.318000000000000171,-12.849566214238091533
0.319000000000000172,-12.883868877576940548
0.320000000000000173,-12.913625522666629664
0.321000000000000174,-12.938796945620534729
0.322000000000000175,-12.959349679994721427
0.323000000000000176,-12.975256047115991009
0.324000000000000177,-12.986494185912402344
0.325000000000000178,-12.993048063206662945
0.326000000000000179,-12.994907465446374317
0.327000000000000179,-12.992067972852941793
0.328000000000000180,-12.984530916975126402
0.329000000000000181,-12.972303322632399158
0.330000000000000182,-12.955397835228311010
0.331000000000000183,-12.933832634406432049
0.332000000000000184,-12.907631335009389417
0.333000000000000185,-12.876822876287334907
0.334000000000000186,-12.841441400284907104
0.335000000000000187,-12.801526120316268020
0.336000000000000187,-12.757121180416248762
0.337000000000000188,-12.708275506631936835
0.338000000000000189,-12.655042650994303699
0.339000000000000190,-12.597480628982971496
0.340000000000000191,-12.535651751269288212
0.341000000000000192,-12.469622450495185362
0.342000000000000193,-12.399463103815104859
0.343000000000000194,-12.325247851899371554
0.344000000000000195,-12.247054415066287447
0.345000000000000195,-12.164963907180638358
0.346000000000000196,-12.079060647924913852
0.347000000000000197,-11.989431974019407079
0.348000000000000198,-11.896168049936898470
0.349000000000000199,-11.799361678627013461
0.350000000000000200,-11.699108112736066545
0.351000000000000201,-11.595504866778027164
0.352000000000000202,-11.488651530683757329
0.353000000000000203,-11.378649585127092791
0.354000000000000203,-11.265602218998429507
0.355000000000000204,-11.149614149369362792
0.356000000000000205,-11.030791444265720003
0.357000000000000206,-10.909241348540428262
0.358000000000000207,-10.785072113112800452
0.359000000000000208,-10.658392827817046111
0.360000000000000209,-10.529313258079280757
0.361000000000000210,-10.397943685620235854
0.362000000000000210,-10.264394753359150414
0.363000000000000211,-10.128777314673952148
0.364000000000000212,-9.991202287153063466
0.365000000000000213,-9.851780510955169490
0.366000000000000214,-9.710622611875615817
0.367000000000000215,-9.567838869200759433
0.368000000000000216,-9.423539088415566312
0.369000000000000217,-9.277832478814273642
0.370000000000000218,-9.130827536049512361
0.371000000000000218,-8.982631929641392787
0.372000000000000219,-8.833352395455440487
0.373000000000000220,-8.683094633145902463
0.374000000000000221,-8.531963208549854016
0.375000000000000222,-8.380061461006651058
0.376000000000000223,-8.227491415567738997
0.377000000000000224,-8.074353700052480320
0.378000000000000225,-7.920747466897203992
0.379000000000000226,-7.766770319736925998
0.380000000000000226,-7.612518244652084043
0.381000000000000227,-7.458085546005787769
0.382000000000000228,-7.303564786791502783
0.383000000000000229,-7.149046733405415743
0.384000000000000230,-6.994620304752764639
0.385000000000000231,-6.840372525593506836
0.386000000000000232,-6.686388484028290335
0.387000000000000233,-6.532751293022691641
0.388000000000000234,-6.379542055864513728
0.389000000000000234,-6.226839835446623894
0.390000000000000235,-6.074721627265398993
0.391000000000000236,-5.923262336023472407
0.392000000000000237,-5.772534755723666144
0.393000000000000238,-5.622609553140413219
0.394000000000000239,-5.473555254553797766
0.395000000000000240,-5.325438235631257733
0.396000000000000241,-5.178322714341717870
0.397000000000000242,-5.032270746786879911
0.398000000000000242,-4.887342225835128673
0.399000000000000243,-4.743594882443735727
0.400000000000000244,-4.601084289555871898
0.401000000000000245,-4.459863868460330671
0.402000000000000246,-4.319984897502475718
0.403000000000000247,-4.181496523036527080
0.404000000000000248,-4.044445772510933068
0.405000000000000249,-3.908877569579892075
0.406000000000000250,-3.774834751136015853
0.407000000000000250,-3.642358086160969233
0.408000000000000251,-3.511486296292774423
0.409000000000000252,-3.382256078010740907
0.410000000000000253,-3.254702126340776491
0.411000000000000254,-3.128857159986401903
0.412000000000000255,-3.004751947792745792
0.413000000000000256,-2.882415336453323373
0.414000000000000257,-2.761874279371542507
0.415000000000000258,-2.643153866591536616
0.416000000000000258,-2.526277355715067952
0.417000000000000259,-2.411266203723865242
0.418000000000000260,-2.298140099629158328
0.419000000000000261,-2.186916997872538904
0.420000000000000262,-2.077613152404940600
0.421000000000000263,-1.970243151372762735
0.422000000000000264,-1.864819952342822829
0.423000000000000265,-1.761354917999959468
0.424000000000000266,-1.659857852254041477
0.425000000000000266,-1.560337036694888324
0.426000000000000267,-1.462799267336553299
0.427000000000000268,-1.367249891594409350
0.428000000000000269,-1.273692845440963950
0.429000000000000270,-1.182130690688606878
0.430000000000000271,-1.092564652349613752
0.431000000000000272,-1.004994656026125366
0.432000000000000273,-0.919419365284863566
0.433000000000000274,-0.835836218973542322
0.434000000000000274,-0.754241468437931495
0.435000000000000275,-0.674630214600727918
0.436000000000000276,-0.596996444865249609
0.437000000000000277,-0.521333069808914473
0.438000000000000278,-0.447631959633516097
0.439000000000000279,-0.375883980341018387
0.440000000000000280,-0.306079029605415887
0.441000000000000281,-0.238206072313027789
0.442000000000000282,-0.172253175745309850
0.443000000000000282,-0.108207544379750817
0.444000000000000283,-0.046055554286334878
0.445000000000000284,0.014217212901660226
0.446000000000000285,0.072625936462242219
0.447000000000000286,0.129186523522547392
0.448000000000000287,0.183915576477013620
0.449000000000000288,0.236830360901018638
0.450000000000000289,0.287948773974203154
0.451000000000000290,0.337289313426198611
0.452000000000000290,0.384871047016371426
0.453000000000000291,0.430713582557975649
0.454000000000000292,0.474837038495951602
0.455000000000000293,0.517262015046631718
0.456000000000000294,0.558009565906389282
0.457000000000000295,0.597101170535474401
0.458000000000000296,0.634558707022125246
0.459000000000000297,0.670404425531318182
0.460000000000000298,0.704660922341460272
0.461000000000000298,0.737351114471658242
0.462000000000000299,0.768498214901251919
0.463000000000000300,0.798125708382697585
0.464000000000000301,0.826257327848001877
0.465000000000000302,0.852917031408324755
0.466000000000000303,0.878128979945715371
0.467000000000000304,0.901917515295313721
0.468000000000000305,0.924307139015656198
0.469000000000000306,0.945322491744417848
0.470000000000000306,0.964988333136133525
0.471000000000000307,0.983329522378148413
0.472000000000000308,1.000370999280441264
0.473000000000000309,1.016137765934685522
0.474000000000000310,1.030654868937314728
0.475000000000000311,1.043947382171180660
0.476000000000000312,1.056040390139825424
0.477000000000000313,1.066958971848318116
0.478000000000000314,1.076728185224028911
0.479000000000000314,1.085373052070593758
0.480000000000000315,1.092918543548080823
0.481000000000000316,1.099389566171971699
0.482000000000000317,1.104810948323551312
0.483000000000000318,1.109207427263927404
0.484000000000000319,1.112603636643862082
0.485000000000000320,1.115024094501274599
0.486000000000000321,1.116493191738337831
0.487000000000000322,1.117035181069735650
0.488000000000000322,1.116674166433734738
0.489000000000000323,1.115434092857464421
0.490000000000000324,1.113338736767849557
0.491000000000000325,1.110411696739447729
0.492000000000000326,1.106676384670516322
0.493000000000000327,1.102156017378476793
0.494000000000000328,1.096873608605943851
0.495000000000000329,1.090851961428556338
0.496000000000000330,1.084113661055660316
0.497000000000000330,1.076681068015093112
0.498000000000000331,1.068576311713153704
0.499000000000000332,1.059821284361005089
0.500000000000000333,1.050437635258668623
0.501000000000000334,1.040446765427894826
0.502000000000000335,1.029869822585177452
0.503000000000000336,1.018727696446272812
0.504000000000000337,1.007041014353623698
0.505000000000000338,0.994830137218136956
0.506000000000000338,0.982115155766866588
0.507000000000000339,0.968915887088226846
0.508000000000000340,0.955251871466394897
0.509000000000000341,0.941142369496735021
0.510000000000000342,0.926606359474061669
0.511000000000000343,0.911662535045759115
0.512000000000000344,0.896329303121777499
0.513000000000000345,0.880624782033729625
0.514000000000000346,0.864566799935291841
0.515000000000000346,0.848172893436367481
0.516000000000000347,0.831460306463453924
0.517000000000000348,0.814445989338830278
0.518000000000000349,0.797146598071308166
0.519000000000000350,0.779578493851397547
0.520000000000000351,0.761757742743766397
0.521000000000000352,0.743700115570202658
0.522000000000000353,0.725421087976175327
0.523000000000000353,0.706935840674367655
0.524000000000000354,0.688259259858653771
0.525000000000000355,0.669405937782012406
0.526000000000000356,0.650390173492204182
0.527000000000000357,0.631225973718903655
0.528000000000000358,0.611927053906333396
0.529000000000000359,0.592506839385450124
0.530000000000000360,0.572978466679865850
0.531000000000000361,0.553354784939857458
0.532000000000000361,0.533648357498909265
0.533000000000000362,0.513871463547361795
0.534000000000000363,0.494036099917881610
0.535000000000000364,0.474153982977567334
0.536000000000000365,0.454236550621642032
0.537000000000000366,0.434294964363808600
0.538000000000000367,0.414340111518452958
0.539000000000000368,0.394382607470000202
0.540000000000000369,0.374432798024871505
0.541000000000000369,0.354500761841568646
0.542000000000000370,0.334596312934558715
0.543000000000000371,0.314729003247747108
0.544000000000000372,0.294908125293399936
0.545000000000000373,0.275142714852559755
0.546000000000000374,0.255441553733044502
0.547000000000000375,0.235813172581257474
0.548000000000000376,0.216265853744133596
0.549000000000000377,0.196807634177695145
0.550000000000000377,0.177446308398715058
0.551000000000000378,0.158189431476148584
0.552000000000000379,0.139044322059122316
0.553000000000000380,0.120018065438242783
0.554000000000000381,0.101117516637268173
0.555000000000000382,0.082349303532105317
0.556000000000000383,0.063719829994319244
0.557000000000000384,0.045235279056365860
0.558000000000000385,0.026901616095875536
0.559000000000000385,0.008724592036372237
0.560000000000000386,-0.009290253437999363
0.561000000000000387,-0.027137588656249802
0.562000000000000388,-0.044812286725081862
0.563000000000000389,-0.062309422286469116
0.564000000000000390,-0.079624268270421128
0.565000000000000391,-0.096752292645049739
0.566000000000000392,-0.113689155165915823
0.567000000000000393,-0.130430704126609898
0.568000000000000393,-0.146972973112410005
0.569000000000000394,-0.163312177758831473
0.570000000000000395,-0.179444712516731109
0.571000000000000396,-0.195367147425668408
0.572000000000000397,-0.211076224897079973
0.573000000000000398,-0.226568856508752831
0.574000000000000399,-0.241842119812090223
0.575000000000000400,-0.256893255153529065
0.576000000000000401,-0.271719662511417881
0.577000000000000401,-0.286318898349659623
0.578000000000000402,-0.300688672489301145
0.579000000000000403,-0.314826844999193667
0.580000000000000404,-0.328731423106873810
0.581000000000000405,-0.342400558130657284
0.582000000000000406,-0.355832542433949350
0.583000000000000407,-0.369025806402725809
0.584000000000000408,-0.381978915447033329
0.585000000000000409,-0.394690567027372929
0.586000000000000409,-0.407159587706775294
0.587000000000000410,-0.419384930229272257
0.588000000000000411,-0.431365670625497244
0.589000000000000412,-0.443101005346078103
0.590000000000000413,-0.454590248423409282
0.591000000000000414,-0.465832828662425258
0.592000000000000415,-0.476828286860869199
0.593000000000000416,-0.487576273059595333
0.594000000000000417,-0.498076543823357809
0.595000000000000417,-0.508328959552491910
0.596000000000000418,-0.518333481825927311
0.597000000000000419,-0.528090170775854295
0.598000000000000420,-0.537599182494393646
0.599000000000000421,-0.546860766472558879
0.600000000000000422,-0.555875263071798686
0.601000000000000423,-0.564643101028316940
0.602000000000000424,-0.573164794990425164
0.603000000000000425,-0.581440943089105766
0.604000000000000425,-0.589472224541903289
0.605000000000000426,-0.597259397290318850
0.606000000000000427,-0.604803295670825136
0.607000000000000428,-0.612104828119510502
0.608000000000000429,-0.619164974910546229
0.609000000000000430,-0.625984785928352716
0.610000000000000431,-0.632565378473653572
0.611000000000000432,-0.638907935103290692
0.612000000000000433,-0.645013701503823089
0.613000000000000433,-0.650883984398922921
0.614000000000000434,-0.656520149490416705
