# Ag110_CHL-AC
# h[nm],U(h)[kJ/mol]
0.149999999999999994,177.217456899995397634
0.150999999999999995,173.589099083467033324
0.151999999999999996,170.814843894851605910
0.152999999999999997,168.199147398100421924
0.153999999999999998,165.517094120332103557
0.154999999999999999,162.750154634242562679
0.156000000000000000,159.949919456943518981
0.157000000000000001,157.174666392736895659
0.158000000000000002,154.465272567186701735
0.159000000000000002,151.840738693840506812
0.160000000000000003,149.302167603454279288
0.161000000000000004,146.839256375321355108
0.162000000000000005,144.436436718354030972
0.163000000000000006,142.077532598329298708
0.164000000000000007,139.748719115825508652
0.165000000000000008,137.439996948078174910
0.166000000000000009,135.145553018340763174
0.167000000000000010,132.863390041248294438
0.168000000000000010,130.594552408105300856
0.169000000000000011,128.342197479736881860
0.170000000000000012,126.110683093278041156
0.171000000000000013,123.904774910658559861
0.172000000000000014,121.729024941774099489
0.173000000000000015,119.587335108572005993
0.174000000000000016,117.482695167449307405
0.175000000000000017,115.417070084665809304
0.176000000000000018,113.391405436273743135
0.177000000000000018,111.405718241433689286
0.178000000000000019,109.459242914031236182
0.179000000000000020,107.550606247256297365
0.180000000000000021,105.678010444375033217
0.181000000000000022,103.839408429569090231
0.182000000000000023,102.032660538551198215
0.183000000000000024,100.255665927830520445
0.184000000000000025,98.506465530758049454
0.185000000000000026,96.783316106811327018
0.186000000000000026,95.084736922700571427
0.187000000000000027,93.409531952761227558
0.188000000000000028,91.756791293010877553
0.189000000000000029,90.125875853985746744
0.190000000000000030,88.516389433352202332
0.191000000000000031,86.928142061761974446
0.192000000000000032,85.361108143318787711
0.193000000000000033,83.815382440605134207
0.194000000000000034,82.291136435479273814
0.195000000000000034,80.788577070546679693
0.196000000000000035,79.307909371311609448
0.197000000000000036,77.849303985347347634
0.198000000000000037,76.412870264689260580
0.199000000000000038,74.998635167394112955
0.200000000000000039,73.606527965581705075
0.201000000000000040,72.236370518678910457
0.202000000000000041,70.887872698071959121
0.203000000000000042,69.560632427486055462
0.204000000000000042,68.254139725842662756
0.205000000000000043,66.967784099458839364
0.206000000000000044,65.700864621651447806
0.207000000000000045,64.452602053819347816
0.208000000000000046,63.222152397118520639
0.209000000000000047,62.008621312746697640
0.210000000000000048,60.811078907108331748
0.211000000000000049,59.628574441903950287
0.212000000000000050,58.460150595291679565
0.213000000000000050,57.304856966149735342
0.214000000000000051,56.161762577108746086
0.215000000000000052,55.029967191928378156
0.216000000000000053,53.908611317891107717
0.217000000000000054,52.796884813479906029
0.218000000000000055,51.694034065315960902
0.219000000000000056,50.599367736020880670
0.220000000000000057,49.512261116405220207
0.221000000000000058,48.432159141402884472
0.222000000000000058,47.358578149797232015
0.223000000000000059,46.291106483452587383
0.224000000000000060,45.229404032935384805
0.225000000000000061,44.173200843586258202
0.226000000000000062,43.122294899791178580
0.227000000000000063,42.076549205896242256
0.228000000000000064,41.035888280396022765
0.229000000000000065,40.000294176147932035
0.230000000000000066,38.969802133848752135
0.231000000000000066,37.944495969226792909
0.232000000000000067,36.924503286702339722
0.233000000000000068,35.909990603944891063
0.234000000000000069,34.901158463075510952
0.235000000000000070,33.898236595444032559
0.236000000000000071,32.901479198149871763
0.237000000000000072,31.911160371918033007
0.238000000000000073,30.927569761719858832
0.239000000000000073,29.951008433737239756
0.240000000000000074,28.981785014976178871
0.241000000000000075,28.020212115101877259
0.242000000000000076,27.066603043916348525
0.243000000000000077,26.121268832351983491
0.244000000000000078,25.184515559913641880
0.245000000000000079,24.256641987156260853
0.246000000000000080,23.337937488022884480
0.247000000000000081,22.428680273658123667
0.248000000000000081,21.529135896630837266
0.249000000000000082,20.639556022310639349
0.250000000000000111,19.760177452407180709
0.251000000000000112,18.891221384365650238
0.252000000000000113,18.032892889371233025
0.253000000000000114,17.185380591118818217
0.254000000000000115,16.348856527203590616
0.255000000000000115,15.523476174956607920
0.256000000000000116,14.709378623743560865
0.257000000000000117,13.906686876135969655
0.258000000000000118,13.115508260919506611
0.259000000000000119,12.335934941593993841
0.260000000000000120,11.568044504817429186
0.261000000000000121,10.811900614130028231
0.262000000000000122,10.067553715237670175
0.263000000000000123,9.335041780122006472
0.264000000000000123,8.614391078255660972
0.265000000000000124,7.905616964222858201
0.266000000000000125,7.208724672063707928
0.267000000000000126,6.523710107663506008
0.268000000000000127,5.850560631486033891
0.269000000000000128,5.189255824896770619
0.270000000000000129,4.539768234228031218
0.271000000000000130,3.902064087600336961
0.272000000000000131,3.276103980329600152
0.273000000000000131,2.661843525512405328
0.274000000000000132,2.059233967092953144
0.275000000000000133,1.468222753371817513
0.276000000000000134,0.888754069519160694
0.277000000000000135,0.320769328205213200
0.278000000000000136,-0.235792382044425264
0.279000000000000137,-0.780993890715525940
0.280000000000000138,-1.314899580945680269
0.281000000000000139,-1.837575066143744662
0.282000000000000139,-2.349086906490937210
0.283000000000000140,-2.849502363968051899
0.284000000000000141,-3.338889194334472510
0.285000000000000142,-3.817315474304542988
0.286000000000000143,-4.284849462021223410
0.287000000000000144,-4.741559488813580359
0.288000000000000145,-5.187513880142374134
0.289000000000000146,-5.622780903580158807
0.290000000000000147,-6.047428741642223216
0.291000000000000147,-6.461525487273606316
0.292000000000000148,-6.865139159808601121
0.293000000000000149,-7.258337739245192211
0.294000000000000150,-7.641189216720529309
0.295000000000000151,-8.013761659128421755
0.296000000000000152,-8.376123285887389969
0.297000000000000153,-8.728342555943623182
0.298000000000000154,-9.070488263178182464
0.299000000000000155,-9.402629638477726814
0.300000000000000155,-9.724836456823963360
0.301000000000000156,-10.037179147855649575
0.302000000000000157,-10.339728908459193235
0.303000000000000158,-10.632557816046121602
0.304000000000000159,-10.915738941279645502
0.305000000000000160,-11.189346459115274257
0.306000000000000161,-11.453455757122576131
0.307000000000000162,-11.708143540155337092
0.308000000000000163,-11.953487930535128925
0.309000000000000163,-12.189568563008384317
0.310000000000000164,-12.416466673829187783
0.311000000000000165,-12.634265183407816124
0.312000000000000166,-12.843048772050153161
0.313000000000000167,-13.042903948393114177
0.314000000000000168,-13.233919110217641446
0.315000000000000169,-13.416184597392827982
0.316000000000000170,-13.589792736772428938
0.317000000000000171,-13.754837878927762773
0.318000000000000171,-13.911416426660185408
0.319000000000000172,-14.059626855290606073
0.320000000000000173,-14.199569724773336787
0.321000000000000174,-14.331347683727495124
0.322000000000000175,-14.455065465521016677
0.323000000000000176,-14.570829876579647788
0.324000000000000177,-14.678749777127412912
0.325000000000000178,-14.778936054594433713
0.326000000000000179,-14.871501589955471445
0.327000000000000179,-14.956561217284289000
0.328000000000000180,-15.034231676829616475
0.329000000000000181,-15.104631561934880324
0.330000000000000182,-15.167881260137146882
0.331000000000000183,-15.224102888792719668
0.332000000000000184,-15.273420225584022347
0.333000000000000185,-15.315958634269509986
0.334000000000000186,-15.351844986041523811
0.335000000000000187,-15.381207576858798802
0.336000000000000187,-15.404176041120781093
0.337000000000000188,-15.420881262047808846
0.338000000000000189,-15.431455279129181690
0.339000000000000190,-15.436031192995130823
0.340000000000000191,-15.434743068062823923
0.341000000000000192,-15.427725833299451352
0.342000000000000193,-15.415115181436414460
0.343000000000000194,-15.397047466960120943
0.344000000000000195,-15.373659603193640777
0.345000000000000195,-15.345088958774081078
0.346000000000000196,-15.311473253817748486
0.347000000000000197,-15.272950456054308788
0.348000000000000198,-15.229658677198438355
0.349000000000000199,-15.181736069814803614
0.350000000000000200,-15.129320724919949726
0.351000000000000201,-15.072550570550836468
0.352000000000000202,-15.011563271517641027
0.353000000000000203,-14.946496130544733916
0.354000000000000203,-14.877485990991081266
0.355000000000000204,-14.804669141327963189
0.356000000000000205,-14.728181221539589529
0.357000000000000206,-14.648157131599230496
0.358000000000000207,-14.564730942160901250
0.359000000000000208,-14.478035807594874740
0.360000000000000209,-14.388203881483073943
0.361000000000000210,-14.295366234678803963
0.362000000000000210,-14.199652776024118239
0.363000000000000211,-14.101192175807003792
0.364000000000000212,-14.000111792030264013
0.365000000000000213,-13.896537599553360209
0.366000000000000214,-13.790594122159060220
0.367000000000000215,-13.682404367587006178
0.368000000000000216,-13.572089765567531217
0.369000000000000217,-13.459770108880187323
0.370000000000000218,-13.345563497453511559
0.371000000000000218,-13.229586285514420396
0.372000000000000219,-13.111953031788502244
0.373000000000000220,-12.992776452745379956
0.374000000000000221,-12.872167378876792299
0.375000000000000222,-12.750234713988415791
0.376000000000000223,-12.627085397481488727
0.377000000000000224,-12.502824369593971809
0.378000000000000225,-12.377554539566514080
0.379000000000000226,-12.251376756693385772
0.380000000000000226,-12.124389784214791632
0.381000000000000227,-11.996690276002086151
0.382000000000000228,-11.868372755984740508
0.383000000000000229,-11.739529600263898246
0.384000000000000230,-11.610251021854413267
0.385000000000000231,-11.480625057995043292
0.386000000000000232,-11.350737559963310019
0.387000000000000233,-11.220672185330055726
0.388000000000000234,-11.090510392586278243
0.389000000000000234,-10.960331438073740884
0.390000000000000235,-10.830212375148985160
0.391000000000000236,-10.700228055509654723
0.392000000000000237,-10.570451132610649836
0.393000000000000238,-10.440952067097473588
0.394000000000000239,-10.311799134183013749
0.395000000000000240,-10.183058432894181777
0.396000000000000241,-10.054793897114445045
0.397000000000000242,-9.927067308348068053
0.398000000000000242,-9.799938310132773722
0.399000000000000243,-9.673464424026926523
0.400000000000000244,-9.547701067098415706
0.401000000000000245,-9.422701570842994201
0.402000000000000246,-9.298517201460068549
0.403000000000000247,-9.175197181415168046
0.404000000000000248,-9.052788712219181022
0.405000000000000249,-8.931336998355188683
0.406000000000000250,-8.810885272285052139
0.407000000000000250,-8.691474820469091256
0.408000000000000251,-8.573145010333114158
0.409000000000000252,-8.455933318118812991
0.410000000000000253,-8.339875357554438651
0.411000000000000254,-8.225004909284431065
0.412000000000000255,-8.111353950997822082
0.413000000000000256,-7.998952688197038086
0.414000000000000257,-7.887829585549811284
0.415000000000000258,-7.778011398768986062
0.416000000000000258,-7.669523206965972228
0.417000000000000259,-7.562388445425784589
0.418000000000000260,-7.456628938752662528
0.419000000000000261,-7.352264934337256364
0.420000000000000262,-7.249315136097742140
0.421000000000000263,-7.147796738448977116
0.422000000000000264,-7.047725460455356306
0.423000000000000265,-6.949115580124512803
0.424000000000000266,-6.851979968801001242
0.425000000000000266,-6.756330125620076288
0.426000000000000267,-6.662176211983870999
0.427000000000000268,-6.569527086023386531
0.428000000000000269,-6.478390337011434852
0.429000000000000270,-6.388772319693304169
0.430000000000000271,-6.300678188503036736
0.431000000000000272,-6.214111931635192931
0.432000000000000273,-6.129076404942983558
0.433000000000000274,-6.045573365635335428
0.434000000000000274,-5.963603505746762679
0.435000000000000275,-5.883166485355308062
0.436000000000000276,-5.804260965525162241
0.437000000000000277,-5.726884640951813488
0.438000000000000278,-5.651034272289006566
0.439000000000000279,-5.576705718137929146
0.440000000000000280,-5.503893966680223571
0.441000000000000281,-5.432593166937737195
0.442000000000000282,-5.362796659643059627
0.443000000000000282,-5.294497007705800229
0.444000000000000283,-5.227686026261049612
0.445000000000000284,-5.162354812287158090
0.446000000000000285,-5.098493773781035188
0.447000000000000286,-5.036092658480578521
0.448000000000000287,-4.975140582124089939
0.449000000000000288,-4.915626056238194153
0.450000000000000289,-4.857537015446050432
0.451000000000000290,-4.800860844289005058
0.452000000000000290,-4.745584403555335840
0.453000000000000291,-4.691694056110661037
0.454000000000000292,-4.639175692225398606
0.455000000000000293,-4.588014754395287831
0.456000000000000294,-4.538196261651818553
0.457000000000000295,-4.489704833359982494
0.458000000000000296,-4.442524712501499273
0.459000000000000297,-4.396639788442227470
0.460000000000000298,-4.352033619183132807
0.461000000000000298,-4.308689453094679322
0.462000000000000299,-4.266590250135156026
0.463000000000000300,-4.225718702553764139
0.464000000000000301,-4.186057255080115169
0.465000000000000302,-4.147588124601909954
0.466000000000000303,-4.110293319333201190
0.467000000000000304,-4.074154657476034558
0.468000000000000305,-4.039153785378649886
0.469000000000000306,-4.005272195193752438
0.470000000000000306,-3.972491242040828041
0.471000000000000307,-3.940792160676640066
0.472000000000000308,-3.910156081678522355
0.473000000000000309,-3.880564047145281137
0.474000000000000310,-3.851997025920807172
0.475000000000000311,-3.824435928345719216
0.476000000000000312,-3.797861620542758665
0.477000000000000313,-3.772254938241555777
0.478000000000000314,-3.747596700148930093
0.479000000000000314,-3.723867720870899234
0.480000000000000315,-3.701048823392656395
0.481000000000000316,-3.679120851123219182
0.482000000000000317,-3.658064679511219275
0.483000000000000318,-3.637861227238774031
0.484000000000000319,-3.618491467000242157
0.485000000000000320,-3.599936435872932883
0.486000000000000321,-3.582177245286812362
0.487000000000000322,-3.565195090600410843
0.488000000000000322,-3.548971260290077367
0.489000000000000323,-3.533487144760028009
0.490000000000000324,-3.518724244780357502
0.491000000000000325,-3.504664179560471382
0.492000000000000326,-3.491288694465275455
0.493000000000000327,-3.478579668381577505
0.494000000000000328,-3.466519120742102444
0.495000000000000329,-3.455089218214483004
0.496000000000000330,-3.444272281062701779
0.497000000000000330,-3.434050789188361819
0.498000000000000331,-3.424407387859063512
0.499000000000000332,-3.415324893131374218
0.500000000000000333,-3.406786296975606199
0.501000000000000334,-3.398774772109620645
0.502000000000000335,-3.391273676549000360
0.503000000000000336,-3.384266557880656556
0.504000000000000337,-3.377737157267010737
0.505000000000000338,-3.371669413187801556
0.506000000000000338,-3.366047464926523958
0.507000000000000339,-3.360855655808347109
0.508000000000000340,-3.356078536196419826
0.509000000000000341,-3.351700866253334965
0.510000000000000342,-3.347707618474353275
0.511000000000000343,-3.344083979999113776
0.512000000000000344,-3.340815354708234874
0.513000000000000345,-3.337887365111309457
0.514000000000000346,-3.335285854032670638
0.515000000000000346,-3.332996886101045053
0.516000000000000347,-3.331006749049393534
0.517000000000000348,-3.329301954830961474
0.518000000000000349,-3.327869240557450148
0.519000000000000350,-3.326695569265257113
0.520000000000000351,-3.325768130515499799
0.521000000000000352,-3.325074340833560349
0.522000000000000353,-3.324601843993630013
0.523000000000000353,-3.324338511153798859
0.524000000000000354,-3.324272440847045207
0.525000000000000355,-3.324391958833376126
0.526000000000000356,-3.324685617818244232
0.527000000000000357,-3.325142197042430858
0.528000000000000358,-3.325750701748183324
0.529000000000000359,-3.326500362526624510
0.530000000000000360,-3.327380634551038163
0.531000000000000361,-3.328381196700824773
0.532000000000000361,-3.329491950580576454
0.533000000000000362,-3.330703019438767676
0.534000000000000363,-3.332004746990384625
0.535000000000000364,-3.333387696147785739
0.536000000000000365,-3.334842647663877724
0.537000000000000366,-3.336360598691731294
0.538000000000000367,-3.337932761264500670
0.539000000000000368,-3.339550560699627191
0.540000000000000369,-3.341205633930934393
0.541000000000000369,-3.342889827772434153
0.542000000000000370,-3.344595197117276264
0.543000000000000371,-3.346314003075422594
0.544000000000000372,-3.348038711053383132
0.545000000000000373,-3.349761988779320632
0.546000000000000374,-3.351476704276704854
0.547000000000000375,-3.353175923789682766
0.548000000000000376,-3.354852909663164517
0.549000000000000377,-3.356501118180561516
0.550000000000000377,-3.358114197362037423
0.551000000000000378,-3.359685984726096475
0.552000000000000379,-3.361210505017111494
0.553000000000000380,-3.362681967901505864
0.554000000000000381,-3.364094765635018636
0.555000000000000382,-3.365443470703641360
0.556000000000000383,-3.366722833440436879
0.557000000000000384,-3.367927779620715878
0.558000000000000385,-3.369053408037653519
0.559000000000000385,-3.370094988060630126
0.560000000000000386,-3.371047957178262777
0.561000000000000387,-3.371907918528248782
0.562000000000000388,-3.372670638415877331
0.563000000000000389,-3.373332043823178417
0.564000000000000390,-3.373888219910445407
0.565000000000000391,-3.374335407511919183
0.566000000000000392,-3.374670000627323141
0.567000000000000393,-3.374888543910874894
0.568000000000000393,-3.374987730159303645
0.569000000000000394,-3.374964397800433780
0.570000000000000395,-3.374815528383744212
0.571000000000000396,-3.374538244074295701
0.572000000000000397,-3.374129805151420580
0.573000000000000398,-3.373587607513349074
0.574000000000000399,-3.372909180189109346
0.575000000000000400,-3.372092182858831055
0.576000000000000401,-3.371134403383551081
0.577000000000000401,-3.370033755345708038
0.578000000000000402,-3.368788275601227955
0.579000000000000403,-3.367396121844256296
0.580000000000000404,-3.365855570185515067
0.581000000000000405,-3.364165012745077288
0.582000000000000406,-3.362322955260528712
0.583000000000000407,-3.360328014711234434
0.584000000000000408,-3.358178916959545290
0.585000000000000409,-3.355874494409648801
0.586000000000000409,-3.353413683684769442
0.587000000000000410,-3.350795523323379932
0.588000000000000411,-3.348019151495005730
0.589000000000000412,-3.345083803736304873
0.590000000000000413,-3.341988810707829494
0.591000000000000414,-3.338733595972131152
0.592000000000000415,-3.335317673793626536
0.593000000000000416,-3.331740646960646757
0.594000000000000417,-3.328002204630173821
0.595000000000000417,-3.324102120195636445
0.596000000000000418,-3.320040249178050740
0.597000000000000419,-3.315816527140995618
0.598000000000000420,-3.311430967629592548
0.599000000000000421,-3.306883660133855152
0.600000000000000422,-3.302174768076681310
0.601000000000000423,-3.297304526826640547
0.602000000000000424,-3.292273241735885314
0.603000000000000425,-3.287081286203304753
0.604000000000000425,-3.281729099763087909
0.605000000000000426,-3.276217186198882025
0.606000000000000427,-3.270546111683708013
0.607000000000000428,-3.264716502945559817
0.608000000000000429,-3.258729045459123341
0.609000000000000430,-3.252584481663239213
0.610000000000000431,-3.246283609204616116
