# Ag110_LYSSCA-AC
# h[nm],U(h)[kJ/mol]
0.149999999999999994,156.783452095760907241
0.150999999999999995,153.623628022719742603
0.151999999999999996,150.778037831959579762
0.152999999999999997,148.024963738452697726
0.153999999999999998,145.288599823867798477
0.154999999999999999,142.558851696834778977
0.156000000000000000,139.849259402490957882
0.157000000000000001,137.176857845452815354
0.158000000000000002,134.554081130067459071
0.159000000000000002,131.986827350273813408
0.160000000000000003,129.475311734701818978
0.161000000000000004,127.015874638353537307
0.162000000000000005,124.602826962364815699
0.163000000000000006,122.229940225747100158
0.164000000000000007,119.891472364171278286
0.165000000000000008,117.582760275937545202
0.166000000000000009,115.300467425200011462
0.167000000000000010,113.042587341974893889
0.168000000000000010,110.808294415759263529
0.169000000000000011,108.597715141361305768
0.170000000000000012,106.411673128564913782
0.171000000000000013,104.251443285794948679
0.172000000000000014,102.118536064684562348
0.173000000000000015,100.014521767913535655
0.174000000000000016,97.940897347053393673
0.175000000000000017,95.898993274318911517
0.176000000000000018,93.889915333108817208
0.177000000000000018,91.914514955204509761
0.178000000000000019,89.973381546811822318
0.179000000000000020,88.066850703533447131
0.180000000000000021,86.195023025799343941
0.181000000000000022,84.357789205514606579
0.182000000000000023,82.554858024377679726
0.183000000000000024,80.785784799857168537
0.184000000000000025,79.049998590403347976
0.185000000000000026,77.346827108594197853
0.186000000000000026,75.675518789142728338
0.187000000000000027,74.035261828713800014
0.188000000000000028,72.425200273028195852
0.189000000000000029,70.844447392936672259
0.190000000000000030,69.292096684278050134
0.191000000000000031,67.767230864260653789
0.192000000000000032,66.268929235512672449
0.193000000000000033,64.796273760968830402
0.194000000000000034,63.348354148987581880
0.195000000000000034,61.924272196682167646
0.196000000000000035,60.523145586428384490
0.197000000000000036,59.144111280080288395
0.198000000000000037,57.786328610286240348
0.199000000000000038,56.448982129971739141
0.200000000000000039,55.131284250168491212
0.201000000000000040,53.832477672881665853
0.202000000000000041,52.551837609121093919
0.203000000000000042,51.288673761806123252
0.204000000000000042,50.042332048066370476
0.205000000000000043,48.812196034521171839
0.206000000000000044,47.597688061464182852
0.207000000000000045,46.398270036604458255
0.208000000000000046,45.213443885314944737
0.209000000000000047,44.042751651515025912
0.210000000000000048,42.885775250788249480
0.211000000000000049,41.742135884649471222
0.212000000000000050,40.611493131665767464
0.213000000000000050,39.493543737162063678
0.214000000000000051,38.388020128323461222
0.215000000000000052,37.294688685561403929
0.216000000000000053,36.213347804001358554
0.217000000000000054,35.143825780895660671
0.218000000000000055,34.085978565720310485
0.219000000000000056,33.039687409764198378
0.220000000000000057,32.004856451257140293
0.221000000000000058,30.981410270632729009
0.222000000000000058,29.969291448485023466
0.223000000000000059,28.968458156287073990
0.224000000000000060,27.978881807093806344
0.225000000000000061,27.000544790365115233
0.226000000000000062,26.033438311811693211
0.227000000000000063,25.077560355872076769
0.228000000000000064,24.132913785152677377
0.229000000000000065,23.199504587963723168
0.230000000000000066,22.277340282022183970
0.231000000000000066,21.366428479504499194
0.232000000000000067,20.466775615956319001
0.233000000000000068,19.578385843122834586
0.234000000000000069,18.701260083570030446
0.235000000000000070,17.835395243032486690
0.236000000000000071,16.980783574749342080
0.237000000000000072,16.137412188632445975
0.238000000000000073,15.305262696944691214
0.239000000000000073,14.484310987240547774
0.240000000000000074,13.674527112616610580
0.241000000000000075,12.875875288830190613
0.242000000000000076,12.088313987543219952
0.243000000000000077,11.311796114822822545
0.244000000000000078,10.546269264060031290
0.245000000000000079,9.791676032633819915
0.246000000000000080,9.047954391933220819
0.247000000000000081,8.315038100734128079
0.248000000000000081,7.592857152396729425
0.249000000000000082,6.881338246885637666
0.250000000000000111,6.180405279202776825
0.251000000000000112,5.489979836451494677
0.252000000000000113,4.809981696402056528
0.253000000000000114,4.140329321100108650
0.254000000000000115,3.480940339730557831
0.255000000000000115,2.831732015620944232
0.256000000000000116,2.192621692925576404
0.257000000000000117,1.563527219171792160
0.258000000000000118,0.944367340467055838
0.259000000000000119,0.335062066753646470
0.260000000000000120,-0.264466994945648903
0.261000000000000121,-0.854296340823755829
0.262000000000000122,-1.434500305175149037
0.263000000000000123,-2.005150830469189405
0.264000000000000123,-2.566317272799309102
0.265000000000000124,-3.118066242523831910
0.266000000000000125,-3.660461479580727318
0.267000000000000126,-4.193563762662013694
0.268000000000000127,-4.717430851174421846
0.269000000000000128,-5.232117458687301159
0.270000000000000129,-5.737675256378257593
0.271000000000000130,-6.234152904828254016
0.272000000000000131,-6.721596112388009026
0.273000000000000131,-7.200047718237575722
0.274000000000000132,-7.669547798185513798
0.275000000000000133,-8.130133791203880023
0.276000000000000134,-8.581840644666964835
0.277000000000000135,-9.024700976252091777
0.278000000000000136,-9.458745250471835675
0.279000000000000137,-9.884001967831821389
0.280000000000000138,-10.300497864648175295
0.281000000000000139,-10.708258121611832436
0.282000000000000139,-11.107306579249478062
0.283000000000000140,-11.497665958503752393
0.284000000000000141,-11.879358084735226697
0.285000000000000142,-12.252404113535030561
0.286000000000000143,-12.616824756828492582
0.287000000000000144,-12.972640507844555913
0.288000000000000145,-13.319871863624499042
0.289000000000000146,-13.658539543841124342
0.290000000000000147,-13.988664704801161420
0.291000000000000147,-14.310269147601962558
0.292000000000000148,-14.623375519513794885
0.293000000000000149,-14.928007507755239658
0.294000000000000150,-15.224190024925448483
0.295000000000000151,-15.511949385449224081
0.296000000000000152,-15.791313472481013136
0.297000000000000153,-16.062311894799869094
0.298000000000000154,-16.324976133310720172
0.299000000000000155,-16.579339676845840756
0.300000000000000155,-16.825438147035406189
0.301000000000000156,-17.063309412086375971
0.302000000000000157,-17.292993689376110922
0.303000000000000158,-17.514533636828097940
0.304000000000000159,-17.727974433095834428
0.305000000000000160,-17.933363846633660899
0.306000000000000161,-18.130752293782784079
0.307000000000000162,-18.320192886045571612
0.308000000000000163,-18.501741466761863819
0.309000000000000163,-18.675456637437839902
0.310000000000000164,-18.841399774010998414
0.311000000000000165,-18.999635033363730940
0.312000000000000166,-19.150229350423668251
0.313000000000000167,-19.293252426210990791
0.314000000000000168,-19.428776707211543595
0.315000000000000169,-19.556877356470607765
0.316000000000000170,-19.677632216814679111
0.317000000000000171,-19.791121766618626765
0.318000000000000171,-19.897429068542855646
0.319000000000000172,-19.996639711670475492
0.320000000000000173,-20.088841747476656963
0.321000000000000174,-20.174125620063094289
0.322000000000000175,-20.252584091089492091
0.323000000000000176,-20.324312159830395075
0.324000000000000177,-20.389406978781455138
0.325000000000000178,-20.447967765232508697
0.326000000000000179,-20.500095709218111750
0.327000000000000179,-20.545893878246676678
0.328000000000000180,-20.585467119200142605
0.329000000000000181,-20.618921957785580901
0.330000000000000182,-20.646366495908011984
0.331000000000000183,-20.667910307322458152
0.332000000000000184,-20.683664331909856315
0.333000000000000185,-20.693740768908426730
0.334000000000000186,-20.698252969418756919
0.335000000000000187,-20.697315328486414643
0.336000000000000187,-20.691043177052556246
0.337000000000000188,-20.679552674047567251
0.338000000000000189,-20.662960698889769162
0.339000000000000190,-20.641384744635750792
0.340000000000000191,-20.614942812015083717
0.341000000000000192,-20.583753304567881770
0.342000000000000193,-20.547934925089414548
0.343000000000000194,-20.507606573572484621
0.344000000000000195,-20.462887246823857623
0.345000000000000195,-20.413895939918717204
0.346000000000000196,-20.360751549642895242
0.347000000000000197,-20.303572780060640923
0.348000000000000198,-20.242478050333001960
0.349000000000000199,-20.177585404899545551
0.350000000000000200,-20.109012426125126183
0.351000000000000201,-20.036876149501360089
0.352000000000000202,-19.961292981482184672
0.353000000000000203,-19.882378620022056026
0.354000000000000203,-19.800247977875692129
0.355000000000000204,-19.715015108708062286
0.356000000000000205,-19.626793136054828892
0.357000000000000206,-19.535694185164420134
0.358000000000000207,-19.441829317744279138
0.359000000000000208,-19.345308469626644410
0.360000000000000209,-19.246240391361148170
0.361000000000000210,-19.144732591734925364
0.362000000000000210,-19.040891284213877555
0.363000000000000211,-18.934821336292937843
0.364000000000000212,-18.826626221737178923
0.365000000000000213,-18.716407975689982379
0.366000000000000214,-18.604267152619875958
0.367000000000000215,-18.490302787072455004
0.368000000000000216,-18.374612357189949563
0.369000000000000217,-18.257291750956490262
0.370000000000000218,-18.138435235124170219
0.371000000000000218,-18.018135426770779617
0.372000000000000219,-17.896483267437943709
0.373000000000000220,-17.773567999794988026
0.374000000000000221,-17.649477146772028391
0.375000000000000222,-17.524296493102831107
0.376000000000000223,-17.398110069217047169
0.377000000000000224,-17.271000137418923259
0.378000000000000225,-17.143047180288711218
0.379000000000000226,-17.014329891241466441
0.380000000000000226,-16.884925167177371463
0.381000000000000227,-16.754908103156381571
0.382000000000000228,-16.624351989029918286
0.383000000000000229,-16.493328307961775181
0.384000000000000230,-16.361906736769846304
0.385000000000000231,-16.230155148020969591
0.386000000000000232,-16.098139613810317883
0.387000000000000233,-15.965924411157882190
0.388000000000000234,-15.833572028954185029
0.389000000000000234,-15.701143176388516309
0.390000000000000235,-15.568696792792948713
0.391000000000000236,-15.436290058836576122
0.392000000000000237,-15.303978409004908912
0.393000000000000238,-15.171815545300342265
0.394000000000000239,-15.039853452100484077
0.395000000000000240,-14.908142412112397324
0.396000000000000241,-14.776731023361529438
0.397000000000000242,-14.645666217155490330
0.398000000000000242,-14.514993276964176516
0.399000000000000243,-14.384755858158602138
0.400000000000000244,-14.254996008552328846
0.401000000000000245,-14.125754189690933771
0.402000000000000246,-13.997069298835759454
0.403000000000000247,-13.868978691590033492
0.404000000000000248,-13.741518205116790341
0.405000000000000249,-13.614722181899207243
0.406000000000000250,-13.488623493995669733
0.407000000000000250,-13.363253567743191397
0.408000000000000251,-13.238642408864269129
0.409000000000000252,-13.114818627933789941
0.410000000000000253,-12.991809466163937614
0.411000000000000254,-12.869640821466589387
0.412000000000000255,-12.748337274754080184
0.413000000000000256,-12.627922116440725375
0.414000000000000257,-12.508417373108716930
0.415000000000000258,-12.389843834303709613
0.416000000000000258,-12.272221079426513413
0.417000000000000259,-12.155567504688871594
0.418000000000000260,-12.039900350102630711
0.419000000000000261,-11.925235726472781295
0.420000000000000262,-11.811588642366427138
0.421000000000000263,-11.698973031030863723
0.422000000000000264,-11.587401777235140088
0.423000000000000265,-11.476886744010849739
0.424000000000000266,-11.367438799269269367
0.425000000000000266,-11.259067842272596494
0.426000000000000267,-11.151782829938875707
0.427000000000000268,-11.045591802960826655
0.428000000000000269,-10.940501911720165396
0.429000000000000270,-10.836519441979998390
0.430000000000000271,-10.733649840338802761
0.431000000000000272,-10.631897739430836936
0.432000000000000273,-10.531266982858376480
0.433000000000000274,-10.431760649842621191
0.434000000000000274,-10.333381079580501449
0.435000000000000275,-10.236129895296064873
0.436000000000000276,-10.140008027975612848
0.437000000000000277,-10.045015739776662400
0.438000000000000278,-9.951152647101803694
0.439000000000000279,-9.858417743329173533
0.440000000000000280,-9.766809421191886997
0.441000000000000281,-9.676325494799812077
0.442000000000000282,-9.586963221297626347
0.443000000000000282,-9.498719322153521105
0.444000000000000283,-9.411590004074136928
0.445000000000000284,-9.325570979541373262
0.446000000000000285,-9.240657486967508660
0.447000000000000286,-9.156844310465974246
0.448000000000000287,-9.074125799234973755
0.449000000000000288,-8.992495886552449136
0.450000000000000289,-8.911948108380679301
0.451000000000000290,-8.832475621579851222
0.452000000000000290,-8.754071221730079344
0.453000000000000291,-8.676727360561752533
0.454000000000000292,-8.600436162994833822
0.455000000000000293,-8.525189443787647647
0.456000000000000294,-8.450978723796518821
0.457000000000000295,-8.377795245847691419
0.458000000000000296,-8.305629990223327042
0.459000000000000297,-8.234473689763875726
0.460000000000000298,-8.164316844589100342
0.461000000000000298,-8.095149736440667709
0.462000000000000299,-8.026962442649191232
0.463000000000000300,-7.959744849728942029
0.464000000000000301,-7.893486666603807933
0.465000000000000302,-7.828177437468140099
0.466000000000000303,-7.763806554286283301
0.467000000000000304,-7.700363268935001670
0.468000000000000305,-7.637836704992946757
0.469000000000000306,-7.576215869181583074
0.470000000000000306,-7.515489662462201181
0.471000000000000307,-7.455646890793490300
0.472000000000000308,-7.396676275554753488
0.473000000000000309,-7.338566463639415005
0.474000000000000310,-7.281306037224018368
0.475000000000000311,-7.224883523217646264
0.476000000000000312,-7.169287402397188202
0.477000000000000313,-7.114506118233384413
0.478000000000000314,-7.060528085413190880
0.479000000000000314,-7.007341698063806135
0.480000000000000315,-6.954935337683584073
0.481000000000000316,-6.903297380785557102
0.482000000000000317,-6.852416206258728160
0.483000000000000318,-6.802280202452877234
0.484000000000000319,-6.752877773992210564
0.485000000000000320,-6.704197348323488015
0.486000000000000321,-6.656227382004020754
0.487000000000000322,-6.608956366735166732
0.488000000000000322,-6.562372835146653927
0.489000000000000323,-6.516465366337432563
0.490000000000000324,-6.471222591178313444
0.491000000000000325,-6.426633197381953266
0.492000000000000326,-6.382685934345492917
0.493000000000000327,-6.339369617771327903
0.494000000000000328,-6.296673134071261835
0.495000000000000329,-6.254585444559372043
0.496000000000000330,-6.213095589438796473
0.497000000000000330,-6.172192691587741642
0.498000000000000331,-6.131865960149656125
0.499000000000000332,-6.092104693932952841
0.500000000000000333,-6.052898284625075398
0.501000000000000334,-6.014236219825955132
0.502000000000000335,-5.976108085905861955
0.503000000000000336,-5.938503570692424738
0.504000000000000337,-5.901412465991617395
0.505000000000000338,-5.864824669947468649
0.506000000000000338,-5.828730189245165505
0.507000000000000339,-5.793119141162070385
0.508000000000000340,-5.757981755471234919
0.509000000000000341,-5.723308376201902803
0.510000000000000342,-5.689089463261235657
0.511000000000000343,-5.655315593921717898
0.512000000000000344,-5.621977464178368855
0.513000000000000345,-5.589065889979966784
0.514000000000000346,-5.556571808338397922
0.515000000000000346,-5.524486278320038579
0.516000000000000347,-5.492800481923181266
0.517000000000000348,-5.461505724845407528
0.518000000000000349,-5.430593437144511704
0.519000000000000350,-5.400055173796904917
0.520000000000000351,-5.369882615156947203
0.521000000000000352,-5.340067567320897268
0.522000000000000353,-5.310601962398868281
0.523000000000000353,-5.281477858698215400
0.524000000000000354,-5.252687440821764753
0.525000000000000355,-5.224223019684028912
0.526000000000000356,-5.196077032448632949
0.527000000000000357,-5.168242042390164492
0.528000000000000358,-5.140710738683267778
0.529000000000000359,-5.113475936122222620
0.530000000000000360,-5.086530574773640012
0.531000000000000361,-5.059867719565318112
0.532000000000000361,-5.033480559813861888
0.533000000000000362,-5.007362408693865063
0.534000000000000363,-4.981506702651193663
0.535000000000000364,-4.955907000762968195
0.536000000000000365,-4.930556984046726043
0.537000000000000366,-4.905450454721182574
0.538000000000000367,-4.880581335420908218
0.539000000000000368,-4.855943668367335597
0.540000000000000369,-4.831531614498134175
0.541000000000000369,-4.807339452557338966
0.542000000000000370,-4.783361578148149995
0.543000000000000371,-4.759592502750566112
0.544000000000000372,-4.736026852705824020
0.545000000000000373,-4.712659368169541452
0.546000000000000374,-4.689484902035439440
0.547000000000000375,-4.666498418831497297
0.548000000000000376,-4.643694993590299802
0.549000000000000377,-4.621069810695251689
0.550000000000000377,-4.598618162704307899
0.551000000000000378,-4.576335449152914236
0.552000000000000379,-4.554217175337591073
0.553000000000000380,-4.532258951081751697
0.554000000000000381,-4.510456489485159537
0.555000000000000382,-4.488805605658489739
0.556000000000000383,-4.467302215444250990
0.557000000000000384,-4.445942334125525086
0.558000000000000385,-4.424722075123636245
0.559000000000000385,-4.403637648686124173
0.560000000000000386,-4.382685360566087596
0.561000000000000387,-4.361861610694103497
0.562000000000000388,-4.341162891843789673
0.563000000000000389,-4.320585788292099494
0.564000000000000390,-4.300126974475334762
0.565000000000000391,-4.279783213641871420
0.566000000000000392,-4.259551356502553787
0.567000000000000393,-4.239428339879673047
0.568000000000000393,-4.219411185355340876
0.569000000000000394,-4.199496997920167729
0.570000000000000395,-4.179682964623036234
0.571000000000000396,-4.159966353222675828
0.572000000000000397,-4.140344510841891257
0.573000000000000398,-4.120814862625028496
0.574000000000000399,-4.101374910399455231
0.575000000000000400,-4.082022231341646545
0.576000000000000401,-4.062754476648483326
0.577000000000000401,-4.043569370214447289
0.578000000000000402,-4.024464707315149603
0.579000000000000403,-4.005438353297781973
0.580000000000000404,-3.986488242279078609
0.581000000000000405,-3.967612375851119477
0.582000000000000406,-3.948808821795579682
0.583000000000000407,-3.930075712806765154
0.584000000000000408,-3.911411245223922695
0.585000000000000409,-3.892813677773141912
0.586000000000000409,-3.874281330319291783
0.587000000000000410,-3.855812582628307617
0.588000000000000411,-3.837405873140126822
0.589000000000000412,-3.819059697752672289
0.590000000000000413,-3.800772608617061898
0.591000000000000414,-3.782543212944412314
0.592000000000000415,-3.764370171824449329
0.593000000000000416,-3.746252199056144150
0.594000000000000417,-3.728188059990620307
0.595000000000000417,-3.710176570386585659
0.596000000000000418,-3.692216595278335234
0.597000000000000419,-3.674307047856679276
0.598000000000000420,-3.656446888362791192
0.599000000000000421,-3.638635122995252935
0.600000000000000422,-3.620870802830324031
0.601000000000000423,-3.603153022755636758
0.602000000000000424,-3.585480920417349893
0.603000000000000425,-3.567853675180926221
0.604000000000000425,-3.550270507105550255
0.605000000000000426,-3.532730675932275854
0.606000000000000427,-3.515233480086046747
0.607000000000000428,-3.497778255691414095
0.608000000000000429,-3.480364375602338356
0.609000000000000430,-3.462991248445697945
