# Ag110_MAS-AC
# h[nm],U(h)[kJ/mol]
0.149999999999999994,139.254935993807464456
0.150999999999999995,136.145992568647045573
0.151999999999999996,132.648339633158087736
0.152999999999999997,129.109426817098835727
0.153999999999999998,125.677485585802244827
0.154999999999999999,122.392893519396437796
0.156000000000000000,119.244489480104817858
0.157000000000000001,116.202351025293680209
0.158000000000000002,113.235288237774852860
0.159000000000000002,110.318828688686807027
0.160000000000000003,107.437624314828966021
0.161000000000000004,104.584870582661409344
0.162000000000000005,101.760376644085852149
0.163000000000000006,98.968266759215282491
0.164000000000000007,96.214851182739977276
0.165000000000000008,93.506918724267421794
0.166000000000000009,90.850527160605395238
0.167000000000000010,88.250267027405655540
0.168000000000000010,85.708923687471923358
0.169000000000000011,83.227443763861558068
0.170000000000000012,80.805112289632830880
0.171000000000000013,78.439857580893004751
0.172000000000000014,76.128616175790014609
0.173000000000000015,73.867706615046628826
0.174000000000000016,71.653176269479871507
0.175000000000000017,69.481098753481276731
0.176000000000000018,67.347810266171251214
0.177000000000000018,65.250081449433054104
0.178000000000000019,63.185227256369060456
0.179000000000000020,61.151161215937726467
0.180000000000000021,59.146402732795579027
0.181000000000000022,57.170047043262137265
0.182000000000000023,55.221707493508560560
0.183000000000000024,53.301439202732900924
0.184000000000000025,51.409652159458076426
0.185000000000000026,49.547020560609581707
0.186000000000000026,47.714393882715313566
0.187000000000000027,45.912713875048140721
0.188000000000000028,44.142940455571761049
0.189000000000000029,42.405988415502477551
0.190000000000000030,40.702675919961002649
0.191000000000000031,39.033685037989918953
0.192000000000000032,37.399533941562630446
0.193000000000000033,35.800559969068828536
0.194000000000000034,34.236912438499338407
0.195000000000000034,32.708553901095385186
0.196000000000000035,31.215268428735306827
0.197000000000000036,29.756675509324100659
0.198000000000000037,28.332248166623635655
0.199000000000000038,26.941334008668469835
0.200000000000000039,25.583178028434840456
0.201000000000000040,24.256946120073699547
0.202000000000000041,22.961748424084852616
0.203000000000000042,21.696661767492713579
0.204000000000000042,20.460750614297772643
0.205000000000000043,19.253086082680177071
0.206000000000000044,18.072762715397516331
0.207000000000000045,16.918912806460244980
0.208000000000000046,15.790718189318003084
0.209000000000000047,14.687419479034719672
0.210000000000000048,13.608322833439391530
0.211000000000000049,12.552804356629501115
0.212000000000000050,11.520312313401920079
0.213000000000000050,10.510367356348767842
0.214000000000000051,9.522560989751116978
0.215000000000000052,8.556552507375785765
0.216000000000000053,7.612064646168740012
0.217000000000000054,6.688878195948237071
0.218000000000000055,5.786825797769165725
0.219000000000000056,4.905785151807263489
0.220000000000000057,4.045671840435783650
0.221000000000000058,3.206431954583122579
0.222000000000000058,2.388034692272890780
0.223000000000000059,1.590465078180744118
0.224000000000000060,0.813716932683564154
0.225000000000000061,0.057786198729481077
0.226000000000000062,-0.677335284675748994
0.227000000000000063,-1.391665492172705187
0.228000000000000064,-2.085237352177435888
0.229000000000000065,-2.758103280755144660
0.230000000000000066,-3.410339087178834383
0.231000000000000066,-4.042047242212897018
0.232000000000000067,-4.653359511712340080
0.233000000000000068,-5.244438968147919766
0.234000000000000069,-5.815481401194338318
0.235000000000000070,-6.366716155618702189
0.236000000000000071,-6.898406430458327243
0.237000000000000072,-7.410849077977036181
0.238000000000000073,-7.904373944234734495
0.239000000000000073,-8.379342795404017608
0.240000000000000074,-8.836147875330270907
0.241000000000000075,-9.275210140360456990
0.242000000000000076,-9.696977217270319471
0.243000000000000077,-10.101921129299459068
0.244000000000000078,-10.490535833954556466
0.245000000000000079,-10.863334614454178251
0.246000000000000080,-11.220847364546477465
0.247000000000000081,-11.563617804013295753
0.248000000000000081,-11.892200659546816155
0.249000000000000082,-12.207158842914106245
0.250000000000000111,-12.509060655465322753
0.251000000000000112,-12.798477045141192221
0.252000000000000113,-13.075978939240693322
0.253000000000000114,-13.342134673351543128
0.254000000000000115,-13.597507534062884815
0.255000000000000115,-13.842653430389322722
0.256000000000000116,-14.078118706265311033
0.257000000000000117,-14.304438104031735435
0.258000000000000118,-14.522132886545438879
0.259000000000000119,-14.731709123408057494
0.260000000000000120,-14.933656144836765733
0.261000000000000121,-15.128445164889731345
0.262000000000000122,-15.316528074115382196
0.263000000000000123,-15.498336400213265307
0.264000000000000123,-15.674280433974498550
0.265000000000000124,-15.844748516605079658
0.266000000000000125,-16.010106483521386878
0.267000000000000126,-16.170697258835950549
0.268000000000000127,-16.326840594017216546
0.269000000000000128,-16.478832943599584837
0.270000000000000129,-16.626947470333011125
0.271000000000000130,-16.771434171785191580
0.272000000000000131,-16.912520120135745572
0.273000000000000131,-17.050409806721372519
0.274000000000000132,-17.185285582796538506
0.275000000000000133,-17.317308187956395926
0.276000000000000134,-17.446617357719489405
0.277000000000000135,-17.573332501879654899
0.278000000000000136,-17.697553445402810723
0.279000000000000137,-17.819361223856013510
0.280000000000000138,-17.938818925608593702
0.281000000000000139,-18.055972573331462883
0.282000000000000139,-18.170852037634038112
0.283000000000000140,-18.283471976015334803
0.284000000000000141,-18.393832790659327969
0.285000000000000142,-18.501921598972284499
0.286000000000000143,-18.607713211135809672
0.287000000000000144,-18.711171109330365425
0.288000000000000145,-18.812248423668183506
0.289000000000000146,-18.910888900255539369
0.290000000000000147,-19.007027857183757646
0.291000000000000147,-19.100593124619905439
0.292000000000000148,-19.191505965533174560
0.293000000000000149,-19.279681973946548368
0.294000000000000150,-19.365031947947255020
0.295000000000000151,-19.447462735019829694
0.296000000000000152,-19.526878047582790998
0.297000000000000153,-19.603179246913139622
0.298000000000000154,-19.676266093930479428
0.299000000000000155,-19.746037465585818182
0.300000000000000155,-19.812392035856841943
0.301000000000000156,-19.875228920593123405
0.302000000000000157,-19.934448285680520740
0.303000000000000158,-19.989951918203939130
0.304000000000000159,-20.041643760482592995
0.305000000000000160,-20.089430407031063197
0.306000000000000161,-20.133221564664573577
0.307000000000000162,-20.172930476117105769
0.308000000000000163,-20.208474307677043669
0.309000000000000163,-20.239774501468481560
0.310000000000000164,-20.266757093116190447
0.311000000000000165,-20.289352995629549525
0.312000000000000166,-20.307498250427403974
0.313000000000000167,-20.321134246499916287
0.314000000000000168,-20.330207908767953029
0.315000000000000169,-20.334671856754738428
0.316000000000000170,-20.334484534729291738
0.317000000000000171,-20.329610314517289282
0.318000000000000171,-20.320019572202728142
0.319000000000000172,-20.305688739964317335
0.320000000000000173,-20.286600334303507509
0.321000000000000174,-20.262742961927866503
0.322000000000000175,-20.234111304554446065
0.323000000000000176,-20.200706083892917775
0.324000000000000177,-20.162534008058724311
0.325000000000000178,-20.119607700652242244
0.326000000000000179,-20.071945613722181889
0.327000000000000179,-20.019571925809074742
0.328000000000000180,-19.962516426240135559
0.329000000000000181,-19.900814386819170920
0.330000000000000182,-19.834506422024190897
0.331000000000000183,-19.763638338794017102
0.332000000000000184,-19.688260976950083148
0.333000000000000185,-19.608430041264700350
0.334000000000000186,-19.524205926149612367
0.335000000000000187,-19.435653533901206202
0.336000000000000187,-19.342842087400008211
0.337000000000000188,-19.245844938122914414
0.338000000000000189,-19.144739370287489066
0.339000000000000190,-19.039606401908081068
0.340000000000000191,-18.930530583503735187
0.341000000000000192,-18.817599795159502207
0.342000000000000193,-18.700905042602677497
0.343000000000000194,-18.580540252918414268
0.344000000000000195,-18.456602070490134793
0.345000000000000195,-18.329189653714031749
0.346000000000000196,-18.198404472999882842
0.347000000000000197,-18.064350110535297489
0.348000000000000198,-17.927132062255857647
0.349000000000000199,-17.786857542429768131
0.350000000000000200,-17.643635291233501050
0.351000000000000201,-17.497575385662866410
0.352000000000000202,-17.348789054093789019
0.353000000000000203,-17.197388494777797519
0.354000000000000203,-17.043486698528855783
0.355000000000000204,-16.887197275831024257
0.356000000000000205,-16.728634288570962241
0.357000000000000206,-16.567912086574114738
0.358000000000000207,-16.405145149099848112
0.359000000000000208,-16.240447931428679595
0.360000000000000209,-16.073934716652978238
0.361000000000000210,-15.905719472762678279
0.362000000000000210,-15.735915715098002465
0.363000000000000211,-15.564636374223553617
0.364000000000000212,-15.391993669261003319
0.365000000000000213,-15.218098986701388498
0.366000000000000214,-15.043062764703520884
0.367000000000000215,-14.866994382870638347
0.368000000000000216,-14.690002057484647935
0.369000000000000217,-14.512192742165046511
0.370000000000000218,-14.333672033908513299
0.371000000000000218,-14.154544084454574460
0.372000000000000219,-13.974911516913499199
0.373000000000000220,-13.794875347583531067
0.374000000000000221,-13.614534912876930406
0.375000000000000222,-13.433987801266507489
0.376000000000000223,-13.253329790158407064
0.377000000000000224,-13.072654787590476388
0.378000000000000225,-12.892054778650640756
0.379000000000000226,-12.711619776504793577
0.380000000000000226,-12.531437777919938625
0.381000000000000227,-12.351594723164392775
0.382000000000000228,-12.172174460164251641
0.383000000000000229,-11.993258712792549403
0.384000000000000230,-11.814927053165392934
0.385000000000000231,-11.637256877818115797
0.386000000000000232,-11.460323387632765701
0.387000000000000233,-11.284199571387791394
0.388000000000000234,-11.108956192800004459
0.389000000000000234,-10.934661780929136654
0.390000000000000235,-10.761382623814863990
0.391000000000000236,-10.589182765217383775
0.392000000000000237,-10.418124004332494081
0.393000000000000238,-10.248265898353988490
0.394000000000000239,-10.079665767756436523
0.395000000000000240,-9.912378704173658406
0.396000000000000241,-9.746457580749261496
0.397000000000000242,-9.581953064837419376
0.398000000000000242,-9.418913632934380331
0.399000000000000243,-9.257385587722755105
0.400000000000000244,-9.097413077113008839
0.401000000000000245,-8.939038115169203991
0.402000000000000246,-8.782300604807925737
0.403000000000000247,-8.627238362162081842
0.404000000000000248,-8.473887142503929937
0.405000000000000249,-8.322280667624184503
0.406000000000000250,-8.172450654566668860
0.407000000000000250,-8.024426845620968862
0.408000000000000251,-7.878237039478011461
0.409000000000000252,-7.733907123456631894
0.410000000000000253,-7.591461106711594020
0.411000000000000254,-7.450921154336812791
0.412000000000000255,-7.312307622279962338
0.413000000000000256,-7.175639092987786682
0.414000000000000257,-7.040932411703979987
0.415000000000000258,-6.908202723344603946
0.416000000000000258,-6.777463509878519865
0.417000000000000259,-6.648726628143291073
0.418000000000000260,-6.522002348029646512
0.419000000000000261,-6.397299390970228927
0.420000000000000262,-6.274624968671258962
0.421000000000000263,-6.153984822028106372
0.422000000000000264,-6.035383260168531550
0.423000000000000265,-5.918823199569708926
0.424000000000000266,-5.804306203198025926
0.425000000000000266,-5.691832519622524345
0.426000000000000267,-5.581401122055785535
0.427000000000000268,-5.473009747278071657
0.428000000000000269,-5.366654934402931509
0.429000000000000270,-5.262332063444792318
0.430000000000000271,-5.160035393650988844
0.431000000000000272,-5.059758101563142318
0.432000000000000273,-4.961492318774538113
0.433000000000000274,-4.865229169352426553
0.434000000000000274,-4.770958806895848170
0.435000000000000275,-4.678670451201766056
0.436000000000000276,-4.588352424513900019
0.437000000000000277,-4.499992187330433602
0.438000000000000278,-4.413576373748684389
0.439000000000000279,-4.329090826326238428
0.440000000000000280,-4.246520630439793109
0.441000000000000281,-4.165850148124418340
0.442000000000000282,-4.087063051377583633
0.443000000000000282,-4.010142354913431184
0.444000000000000283,-3.935070448354556216
0.445000000000000284,-3.861829127849534249
0.446000000000000285,-3.790399627105769831
0.447000000000000286,-3.720762647828788516
0.448000000000000287,-3.652898389559683157
0.449000000000000288,-3.586786578904142431
0.450000000000000289,-3.522406498147077514
0.451000000000000290,-3.459737013248211923
0.452000000000000290,-3.398756601214823370
0.453000000000000291,-3.339443376848755030
0.454000000000000292,-3.281775118865802199
0.455000000000000293,-3.225729295386260187
0.456000000000000294,-3.171283088796422067
0.457000000000000295,-3.118413419981375334
0.458000000000000296,-3.067096971930319604
0.459000000000000297,-3.017310212716202589
0.460000000000000298,-2.969029417852207864
0.461000000000000298,-2.922230692028133348
0.462000000000000299,-2.876889990230388605
0.463000000000000300,-2.832983138249737909
0.464000000000000301,-2.790485852581566562
0.465000000000000302,-2.749373759723838795
0.466000000000000303,-2.709622414878324115
0.467000000000000304,-2.671207320061143253
0.468000000000000305,-2.634103941629135637
0.469000000000000306,-2.598287727228672850
0.470000000000000306,-2.563734122174172292
0.471000000000000307,-2.530418585263583431
0.472000000000000308,-2.498316604038669286
0.473000000000000309,-2.467403709497875575
0.474000000000000310,-2.437655490270100422
0.475000000000000311,-2.409047606257628260
0.476000000000000312,-2.381555801756929824
0.477000000000000313,-2.355155918065932052
0.478000000000000314,-2.329823905586731581
0.479000000000000314,-2.305535835432817926
0.480000000000000315,-2.282267910549811596
0.481000000000000316,-2.259996476359114936
0.482000000000000317,-2.238698030933666594
0.483000000000000318,-2.218349234715272456
0.484000000000000319,-2.198926919782880240
0.485000000000000320,-2.180408098681380746
0.486000000000000321,-2.162769972820323350
0.487000000000000322,-2.145989940452140754
0.488000000000000322,-2.130045604239369617
0.489000000000000323,-2.114914778420405206
0.490000000000000324,-2.100575495583253627
0.491000000000000325,-2.087006013056770914
0.492000000000000326,-2.074184818928768159
0.493000000000000327,-2.062090637700409790
0.494000000000000328,-2.050702435586209571
0.495000000000000329,-2.039999425468840499
0.496000000000000330,-2.029961071518010307
0.497000000000000330,-2.020567093482463328
0.498000000000000331,-2.011797470664142384
0.499000000000000332,-2.003632445583457766
0.500000000000000333,-1.996052527344503558
0.501000000000000334,-1.989038494708933014
0.502000000000000335,-1.982571398887178260
0.503000000000000336,-1.976632566055493978
0.504000000000000337,-1.971203599607260770
0.505000000000000338,-1.966266382146850233
0.506000000000000338,-1.961803077234225201
0.507000000000000339,-1.957796130888317832
0.508000000000000340,-1.954228272857142956
0.509000000000000341,-1.951082517662420912
0.510000000000000342,-1.948342165426420802
0.511000000000000343,-1.945990802488523075
0.512000000000000344,-1.944012301818949684
0.513000000000000345,-1.942390823236899378
0.514000000000000346,-1.941110813440299676
0.515000000000000346,-1.940157005854084460
0.516000000000000347,-1.939514420303921183
0.517000000000000348,-1.939168362522162514
0.518000000000000349,-1.939104423492498785
0.519000000000000350,-1.939308478639859556
0.520000000000000351,-1.939766686871888357
0.521000000000000352,-1.940465489478096828
0.522000000000000353,-1.941391608892812926
0.523000000000000353,-1.942532047327788280
0.524000000000000354,-1.943874085280264952
0.525000000000000355,-1.945405279922131525
0.526000000000000356,-1.947113463375628184
0.527000000000000357,-1.948986740881056390
0.528000000000000358,-1.951013488861638390
0.529000000000000359,-1.953182352890679097
0.530000000000000360,-1.955482245566005917
0.531000000000000361,-1.957902344296504449
0.532000000000000361,-1.960432089005495371
0.533000000000000362,-1.963061179755531516
0.534000000000000363,-1.965779574299083787
0.535000000000000364,-1.968577485559447116
0.536000000000000365,-1.971445379046123048
0.537000000000000366,-1.974373970208741724
0.538000000000000367,-1.977354221733524708
0.539000000000000368,-1.980377340786183549
0.540000000000000369,-1.983434776204938688
0.541000000000000369,-1.986518215647377072
0.542000000000000370,-1.989619582694638567
0.543000000000000371,-1.992731033916324446
0.544000000000000372,-1.995844955899517270
0.545000000000000373,-1.998953962245042515
0.546000000000000374,-2.002050890534111449
0.547000000000000375,-2.005128799268341755
0.548000000000000376,-2.008180964786085099
0.549000000000000377,-2.011200878157805683
0.550000000000000377,-2.014182242063261352
0.551000000000000378,-2.017118967653118045
0.552000000000000379,-2.020005171397452060
0.553000000000000380,-2.022835171923663022
0.554000000000000381,-2.025603486846049073
0.555000000000000382,-2.028304829589388625
0.556000000000000383,-2.030934106208618584
0.557000000000000384,-2.033486412206777061
0.558000000000000385,-2.035957029353149039
0.559000000000000385,-2.038341422503628486
0.560000000000000386,-2.040635236425036858
0.561000000000000387,-2.042834292625304915
0.562000000000000388,-2.044934586191119230
0.563000000000000389,-2.046932282634734257
0.564000000000000390,-2.048823714751467406
0.565000000000000391,-2.050605379489403468
0.566000000000000392,-2.052273934832729463
0.567000000000000393,-2.053826196700060613
0.568000000000000393,-2.055259135859048403
0.569000000000000394,-2.056569874858546143
0.570000000000000395,-2.057755684979477362
0.571000000000000396,-2.058813983205532772
0.572000000000000397,-2.059742329214805157
0.573000000000000398,-2.060538422393300539
0.574000000000000399,-2.061200098871363018
0.575000000000000400,-2.061725328583852601
0.576000000000000401,-2.062112212354962892
0.577000000000000401,-2.062358979008513948
0.578000000000000402,-2.062463982504417981
0.579000000000000403,-2.062425699102071963
0.580000000000000404,-2.062242724551348161
0.581000000000000405,-2.061913771311799870
0.582000000000000406,-2.061437665800658792
0.583000000000000407,-2.060813345670180929
0.584000000000000408,-2.060039857114850825
0.585000000000000409,-2.059116352208872236
0.586000000000000409,-2.058042086274447513
0.587000000000000410,-2.056816415281164545
0.588000000000000411,-2.055438793276894494
0.589000000000000412,-2.053908769850526284
0.590000000000000413,-2.052225987626810966
0.591000000000000414,-2.050390179793595280
0.592000000000000415,-2.048401167661691780
0.593000000000000416,-2.046258858257549829
0.594000000000000417,-2.043963241948951737
0.595000000000000417,-2.041514390103865928
0.596000000000000418,-2.038912452782559281
0.597000000000000419,-2.036157656463116972
0.598000000000000420,-2.033250301800402671
0.599000000000000421,-2.030190761418536827
0.600000000000000422,-2.026979477736924107
0.601000000000000423,-2.023616960829819789
0.602000000000000424,-2.020103786319451533
0.603000000000000425,-2.016440593302665896
0.604000000000000425,-2.012628082311018751
0.605000000000000426,-2.008667013304274995
0.606000000000000427,-2.004558203697260677
0.607000000000000428,-2.000302526419851290
0.608000000000000429,-1.995900908010187269
0.609000000000000430,-1.991354326740723213
