# Ag110_BUTENE13-AC
# h[nm],U(h)[kJ/mol]
0.149999999999999994,120.782411471271757364
0.150999999999999995,117.525040393871591959
0.151999999999999996,114.507849314089909853
0.152999999999999997,111.568382055308191525
0.153999999999999998,108.672923412002660370
0.154999999999999999,105.831915850420230640
0.156000000000000000,103.062028028099376797
0.157000000000000001,100.372539022428099997
0.158000000000000002,97.763261710925775105
0.159000000000000002,95.227044840608044751
0.160000000000000003,92.753332029264498715
0.161000000000000004,90.331211975519210000
0.162000000000000005,87.951446456205914615
0.163000000000000006,85.607480412332762398
0.164000000000000007,83.295652722917054689
0.165000000000000008,81.014878579917578350
0.166000000000000009,78.766048653888745434
0.167000000000000010,76.551334227636502305
0.168000000000000010,74.373526643918950185
0.169000000000000011,72.235485926948086899
0.170000000000000012,70.139731840954539166
0.171000000000000013,68.088181395118084538
0.172000000000000014,66.082018378606591114
0.173000000000000015,64.121670661276624514
0.174000000000000016,62.206867406772936135
0.175000000000000017,60.336748959016588856
0.176000000000000018,58.510005314225359996
0.177000000000000018,56.725023519909996139
0.178000000000000019,54.980029159437300734
0.179000000000000020,53.273211701413721642
0.180000000000000021,51.602827571620935032
0.181000000000000022,49.967278171890839644
0.182000000000000023,48.365162678290033682
0.183000000000000024,46.795307333404700501
0.184000000000000025,45.256774184717315279
0.185000000000000026,43.748852916741739705
0.186000000000000026,42.271039689158769193
0.187000000000000027,40.823006833018382622
0.188000000000000028,39.404566967906163200
0.189000000000000029,38.015634666696271893
0.190000000000000030,36.656188278022291627
0.191000000000000031,35.326233972155719698
0.192000000000000032,34.025773542465223898
0.193000000000000033,32.754776999242672275
0.194000000000000034,31.513160552877060638
0.195000000000000034,30.300770208709582931
0.196000000000000035,29.117370889909004461
0.197000000000000036,27.962640766330178366
0.198000000000000037,26.836170292354239564
0.199000000000000038,25.737465338885460397
0.200000000000000039,24.665953736551777808
0.201000000000000040,23.620994520792301330
0.202000000000000041,22.601889177011798893
0.203000000000000042,21.607894217829471728
0.204000000000000042,20.638234477763852226
0.205000000000000043,19.692116577382030584
0.206000000000000044,18.768742083738224835
0.207000000000000045,17.867319972441880083
0.208000000000000046,16.987078075357100460
0.209000000000000047,16.127273273948752319
0.210000000000000048,15.287200269554375609
0.211000000000000049,14.466198826892684437
0.212000000000000050,13.663659444954490141
0.213000000000000050,12.879027459548447965
0.214000000000000051,12.111805624026843020
0.215000000000000052,11.361555249226405806
0.216000000000000053,10.627896010768596469
0.217000000000000054,9.910504552075387608
0.218000000000000055,9.209112025384051492
0.219000000000000056,8.523500721366740862
0.220000000000000057,7.853499941384525229
0.221000000000000058,7.198981265653285888
0.222000000000000058,6.559853366355864246
0.223000000000000059,5.936056507674605243
0.224000000000000060,5.327556865448864976
0.225000000000000061,4.734340788249908449
0.226000000000000062,4.156409109614244812
0.227000000000000063,3.593771608429605635
0.228000000000000064,3.046441701410780301
0.229000000000000065,2.514431438558733412
0.230000000000000066,1.997746859740462400
0.231000000000000066,1.496383758273007292
0.232000000000000067,1.010323885819391920
0.233000000000000068,0.539531622132514155
0.234000000000000069,0.083951123309380274
0.235000000000000070,-0.356496046700694458
0.236000000000000071,-0.781912804522620020
0.237000000000000072,-1.192427965847526528
0.238000000000000073,-1.588197210084306032
0.239000000000000073,-1.969403612280322680
0.240000000000000074,-2.336257767534277718
0.241000000000000075,-2.688997536383522569
0.242000000000000076,-3.027887442117659145
0.243000000000000077,-3.353217752712814637
0.244000000000000078,-3.665303281164419502
0.245000000000000079,-3.964481938489559099
0.246000000000000080,-4.251113073640938822
0.247000000000000081,-4.525575634091422828
0.248000000000000081,-4.788266179973225789
0.249000000000000082,-5.039596783452529927
0.250000000000000111,-5.279992843545636916
0.251000000000000112,-5.509890844889423711
0.252000000000000113,-5.729736087118861398
0.253000000000000114,-5.939980409518390125
0.254000000000000115,-6.141079933547972658
0.255000000000000115,-6.333492843729716881
0.256000000000000116,-6.517677225252771045
0.257000000000000117,-6.694088974538701109
0.258000000000000118,-6.863179796930552357
0.259000000000000119,-7.025395303648036993
0.260000000000000120,-7.181173218204388142
0.261000000000000121,-7.330941700620765111
0.262000000000000122,-7.475117796014471239
0.263000000000000123,-7.614106012483105701
0.264000000000000123,-7.748297031666853130
0.265000000000000124,-7.878066553946664108
0.266000000000000125,-8.003774278931174990
0.267000000000000126,-8.125763020698348882
0.268000000000000127,-8.244357956189762859
0.269000000000000128,-8.359866004202133993
0.270000000000000129,-8.472575331580433300
0.271000000000000130,-8.582754982484917861
0.272000000000000131,-8.690654625975913206
0.273000000000000131,-8.796504416630366308
0.274000000000000132,-8.900514962467118707
0.275000000000000133,-9.002877394108029563
0.276000000000000134,-9.103763528832940821
0.277000000000000135,-9.203326122992324443
0.278000000000000136,-9.301699206116174068
0.279000000000000137,-9.398998489994877303
0.280000000000000138,-9.495321846001706589
0.281000000000000139,-9.590749843971618560
0.282000000000000139,-9.685346346041203702
0.283000000000000140,-9.779159148984888361
0.284000000000000141,-9.872220668747583971
0.285000000000000142,-9.964548661069322577
0.286000000000000143,-10.056146972317996813
0.287000000000000144,-10.147006314888285416
0.288000000000000145,-10.237105061784571802
0.289000000000000146,-10.326410055278071098
0.290000000000000147,-10.414877424812345907
0.291000000000000147,-10.502453409621361757
0.292000000000000148,-10.589075181819826099
0.293000000000000149,-10.674671666022010896
0.294000000000000150,-10.759164351842056107
0.295000000000000151,-10.842468095923004867
0.296000000000000152,-10.924491910431802566
0.297000000000000153,-11.005139735241904475
0.298000000000000154,-11.084311191302516519
0.299000000000000155,-11.161902312962558526
0.300000000000000155,-11.237806257277423327
0.301000000000000156,-11.311913988576502987
0.302000000000000157,-11.384114936808998664
0.303000000000000158,-11.454297628413389276
0.304000000000000159,-11.522350288673058216
0.305000000000000160,-11.588161414725057341
0.306000000000000161,-11.651620318582237346
0.307000000000000162,-11.712617639710071415
0.308000000000000163,-11.771045826868116180
0.309000000000000163,-11.826799589083771380
0.310000000000000164,-11.879776315771080064
0.311000000000000165,-11.929876466141578817
0.312000000000000166,-11.977003928176959135
0.313000000000000167,-12.021066347545330544
0.314000000000000168,-12.061975426944220757
0.315000000000000169,-12.099647196444875519
0.316000000000000170,-12.134002255493928857
0.317000000000000171,-12.164965987300863759
0.318000000000000171,-12.192468746402797208
0.319000000000000172,-12.216446020253579618
0.320000000000000173,-12.236838565730584705
0.321000000000000174,-12.253592521492413070
0.322000000000000175,-12.266659497152954117
0.323000000000000176,-12.275996640262940574
0.324000000000000177,-12.281566682109758659
0.325000000000000178,-12.283337963359802103
0.326000000000000179,-12.281284440576609285
0.327000000000000179,-12.275385674650811652
0.328000000000000180,-12.265626802177427734
0.329000000000000181,-12.251998490810914078
0.330000000000000182,-12.234496879618690812
0.331000000000000183,-12.213123505442661454
0.332000000000000184,-12.187885216261626908
0.333000000000000185,-12.158794072530128005
0.334000000000000186,-12.125867237448158420
0.335000000000000187,-12.089126857093434708
0.336000000000000187,-12.048599931323455081
0.337000000000000188,-12.004318176327720025
0.338000000000000189,-11.956317879683391325
0.339000000000000190,-11.904639748738363281
0.340000000000000191,-11.849328753115926816
0.341000000000000192,-11.790433962105037580
0.342000000000000193,-11.728008377668398765
0.343000000000000194,-11.662108763769895248
0.344000000000000195,-11.592795472690218261
0.345000000000000195,-11.520132268968676925
0.346000000000000196,-11.444186151576458244
0.347000000000000197,-11.365027174895644180
0.348000000000000198,-11.282728269046600644
0.349000000000000199,-11.197365060075281207
0.350000000000000200,-11.109015690481786720
0.351000000000000201,-11.017760640541007788
0.352000000000000202,-10.923682550837186866
0.353000000000000203,-10.826866046405234201
0.354000000000000203,-10.727397562843693279
0.355000000000000204,-10.625365174736785434
0.356000000000000205,-10.520858426696825916
0.357000000000000206,-10.413968167312351198
0.358000000000000207,-10.304786386262453135
0.359000000000000208,-10.193406054834269980
0.360000000000000209,-10.079920970057171914
0.361000000000000210,-9.964425602645269109
0.362000000000000210,-9.847014948918522137
0.363000000000000211,-9.727784386852620813
0.364000000000000212,-9.606829536388257651
0.365000000000000213,-9.484246124111983534
0.366000000000000214,-9.360129852403272110
0.367000000000000215,-9.234576273125743029
0.368000000000000216,-9.107680665924654306
0.369000000000000217,-8.979537921177843884
0.370000000000000218,-8.850242427633229880
0.371000000000000218,-8.719887964752590648
0.372000000000000219,-8.588567599769062255
0.373000000000000220,-8.456373589453942685
0.374000000000000221,-8.323397286577655763
0.375000000000000222,-8.189729051039332575
0.376000000000000223,-8.055458165630305700
0.377000000000000224,-7.920672756387825864
0.378000000000000225,-7.785459717487332121
0.379000000000000226,-7.649904640614208162
0.380000000000000226,-7.514091748749154753
0.381000000000000227,-7.378103834294909014
0.382000000000000228,-7.242022201466738807
0.383000000000000229,-7.105926612863849634
0.384000000000000230,-6.969895240134131420
0.385000000000000231,-6.834004618641083439
0.386000000000000232,-6.698329606037622064
0.387000000000000233,-6.562943344648789257
0.388000000000000234,-6.427917227562284452
0.389000000000000234,-6.293320868323914574
0.390000000000000235,-6.159222074132586933
0.391000000000000236,-6.025686822428517608
0.392000000000000237,-5.892779240766519600
0.393000000000000238,-5.760561589865931253
0.394000000000000239,-5.629094249727659260
0.395000000000000240,-5.498435708708877101
0.396000000000000241,-5.368642555445737763
0.397000000000000242,-5.239769473514527931
0.398000000000000242,-5.111869238722531961
0.399000000000000243,-4.984992718920109311
0.400000000000000244,-4.859188876226431475
0.401000000000000245,-4.734504771562716208
0.402000000000000246,-4.610985571387472781
0.403000000000000247,-4.488674556529868021
0.404000000000000248,-4.367613133018969584
0.405000000000000249,-4.247840844807926786
0.406000000000000250,-4.129395388294090807
0.407000000000000250,-4.012312628537850756
0.408000000000000251,-3.896626617084829380
0.409000000000000252,-3.782369611298234791
0.410000000000000253,-3.669572095110043897
0.411000000000000254,-3.558262801102019868
0.412000000000000255,-3.448468733829604282
0.413000000000000256,-3.340215194304117396
0.414000000000000257,-3.233525805550729437
0.415000000000000258,-3.128422539162305505
0.416000000000000258,-3.024925742771210846
0.417000000000000259,-2.923054168363733663
0.418000000000000260,-2.822825001364060338
0.419000000000000261,-2.724253890416987289
0.420000000000000262,-2.627354977801140912
0.421000000000000263,-2.532140930406562074
0.422000000000000264,-2.438622971213062485
0.423000000000000265,-2.346810911207822592
0.424000000000000266,-2.256713181683417169
0.425000000000000266,-2.168336866859215561
0.426000000000000267,-2.081687736771773878
0.427000000000000268,-1.996770280381846119
0.428000000000000269,-1.913587738847891018
0.429000000000000270,-1.832142138918155583
0.430000000000000271,-1.752434326395398090
0.431000000000000272,-1.674463999630590560
0.432000000000000273,-1.598229743003817926
0.433000000000000274,-1.523729060352708942
0.434000000000000274,-1.450958408310596637
0.435000000000000275,-1.379913229518632489
0.436000000000000276,-1.310587985677874379
0.437000000000000277,-1.242976190409169845
0.438000000000000278,-1.177070441890541774
0.439000000000000279,-1.112862455243463611
0.440000000000000280,-1.050343094641013053
0.441000000000000281,-0.989502405112678396
0.442000000000000282,-0.930329644022135804
0.443000000000000282,-0.872813312195728885
0.444000000000000283,-0.816941184681140298
0.445000000000000284,-0.762700341116950731
0.446000000000000285,-0.710077195695207330
0.447000000000000286,-0.659057526700784324
0.448000000000000287,-0.609626505612083980
0.449000000000000288,-0.561768725749463238
0.450000000000000289,-0.515468230458535182
0.451000000000000290,-0.470708540816953569
0.452000000000000290,-0.427472682854271313
0.453000000000000291,-0.385743214275594881
0.454000000000000292,-0.345502250680831735
0.455000000000000293,-0.306731491272212331
0.456000000000000294,-0.269412244043908011
0.457000000000000295,-0.233525450448275829
0.458000000000000296,-0.199051709534336041
0.459000000000000297,-0.165971301554752843
0.460000000000000298,-0.134264211038544357
0.461000000000000298,-0.103910149327369389
0.462000000000000299,-0.074888576574116864
0.463000000000000300,-0.047178723203034276
0.464000000000000301,-0.020759610831483265
0.465000000000000302,0.004389927346093447
0.466000000000000303,0.028291226710799987
0.467000000000000304,0.050965771906742022
0.468000000000000305,0.072435178060927558
0.469000000000000306,0.092721172532928303
0.470000000000000306,0.111845577190932882
0.471000000000000307,0.129830291210534549
0.472000000000000308,0.146697274392074195
0.473000000000000309,0.162468530992067678
0.474000000000000310,0.177166094063787194
0.475000000000000311,0.190812010301791873
0.476000000000000312,0.203428325384827080
0.477000000000000313,0.215037069811332249
0.478000000000000314,0.225660245221367128
0.479000000000000314,0.235319811198610257
0.480000000000000315,0.244037672545897255
0.481000000000000316,0.251835667027400567
0.482000000000000317,0.258735553570543009
0.483000000000000318,0.264759000920410770
0.484000000000000319,0.269927576739392439
0.485000000000000320,0.274262737144503166
0.486000000000000321,0.277785816674888220
0.487000000000000322,0.280518018681723547
0.488000000000000322,0.282480406132779860
0.489000000000000323,0.283693892823713933
0.490000000000000324,0.284179234988177654
0.491000000000000325,0.283957023298712197
0.492000000000000326,0.283047675250415520
0.493000000000000327,0.281471427919266826
0.494000000000000328,0.279248331087005641
0.495000000000000329,0.276398240724493927
0.496000000000000330,0.272940812825387291
0.497000000000000330,0.268895497582055332
0.498000000000000331,0.264281533895626142
0.499000000000000332,0.259117944212116202
0.500000000000000333,0.253423529676579828
0.501000000000000334,0.247216865597310320
0.502000000000000335,0.240516297212124280
0.503000000000000336,0.233339935748842431
0.504000000000000337,0.225705654772137443
0.505000000000000338,0.217631086808950158
0.506000000000000338,0.209133620244802337
0.507000000000000339,0.200230396483359219
0.508000000000000340,0.190938307361695037
0.509000000000000341,0.181273992813814927
0.510000000000000342,0.171253838775023398
0.511000000000000343,0.160893975319891580
0.512000000000000344,0.150210275026597617
0.513000000000000345,0.139218351560587567
0.514000000000000346,0.127933558470503111
0.515000000000000346,0.116370988189556115
0.516000000000000347,0.104545471235527598
0.517000000000000348,0.092471575602689565
0.518000000000000349,0.080163606339139479
0.519000000000000350,0.067635605303064006
0.520000000000000351,0.054901351091536668
0.521000000000000352,0.041974359135713901
0.522000000000000353,0.028867881956220899
0.523000000000000353,0.015594909572771631
0.524000000000000354,0.002168170062130792
0.525000000000000355,-0.011399869741392954
0.526000000000000356,-0.025097003408510000
0.527000000000000357,-0.038911283946185080
0.528000000000000358,-0.052831022702919603
0.529000000000000359,-0.066844788153392204
0.530000000000000360,-0.080941404567671099
0.531000000000000361,-0.095109950570056695
0.532000000000000361,-0.109339757592509842
0.533000000000000362,-0.123620408227535131
0.534000000000000363,-0.137941734485216683
0.535000000000000364,-0.152293815959048312
0.536000000000000365,-0.166666977905056857
0.537000000000000366,-0.181051789238605654
0.538000000000000367,-0.195439060453158342
0.539000000000000368,-0.209819841465197943
0.540000000000000369,-0.224185419389329871
0.541000000000000369,-0.238527316247552357
0.542000000000000370,-0.252837286616533707
0.543000000000000371,-0.267107315216635777
0.544000000000000372,-0.281329614446342358
0.545000000000000373,-0.295496621865606546
0.546000000000000374,-0.309600997631577557
0.547000000000000375,-0.323635621890023040
0.548000000000000376,-0.337593592125720654
0.549000000000000377,-0.351468220474917381
0.550000000000000377,-0.365253031002935047
0.551000000000000378,-0.378941756949884467
0.552000000000000379,-0.392528337947302852
0.553000000000000380,-0.406006917208560192
0.554000000000000381,-0.419371838695638544
0.555000000000000382,-0.432617644264948253
0.556000000000000383,-0.445739070794640202
0.557000000000000384,-0.458731047295872496
0.558000000000000385,-0.471588692010356247
0.559000000000000385,-0.484307309496468164
0.560000000000000386,-0.496882387706061857
0.561000000000000387,-0.509309595054147302
0.562000000000000388,-0.521584777483422912
0.563000000000000389,-0.533703955525635765
0.564000000000000390,-0.545663321361636866
0.565000000000000391,-0.557459235881960891
0.566000000000000392,-0.569088225749653454
0.567000000000000393,-0.580546980467036233
0.568000000000000393,-0.591832349447990680
0.569000000000000394,-0.602941339097340379
0.570000000000000395,-0.613871109898764589
0.571000000000000396,-0.624618973512687248
0.572000000000000397,-0.635182389885509791
0.573000000000000398,-0.645558964371430344
0.574000000000000399,-0.655746444868150258
0.575000000000000400,-0.665742718967612945
0.576000000000000401,-0.675545811122899686
0.577000000000000401,-0.685153879832392398
0.578000000000000402,-0.694565214842196355
0.579000000000000403,-0.703778234367784639
0.580000000000000404,-0.712791482335830340
0.581000000000000405,-0.721603625647069813
0.582000000000000406,-0.730213451461019902
0.583000000000000407,-0.738619864503374801
0.584000000000000408,-0.746821884396772995
0.585000000000000409,-0.754818643015653379
0.586000000000000409,-0.762609381865881786
0.587000000000000410,-0.770193449489720128
0.588000000000000411,-0.777570298896736234
0.589000000000000412,-0.784739485021212380
0.590000000000000413,-0.791700662206516248
0.591000000000000414,-0.798453581716939587
0.592000000000000415,-0.804998089277411233
0.593000000000000416,-0.811334122641498512
0.594000000000000417,-0.817461709188069818
0.595000000000000417,-0.823380963546934685
0.596000000000000418,-0.829092085253788746
0.597000000000000419,-0.834595356434731483
0.598000000000000420,-0.839891139520608787
0.599000000000000421,-0.844979874991398261
0.600000000000000422,-0.849862079150849326
0.601000000000000423,-0.854538341931515455
0.602000000000000424,-0.859009324730365065
0.603000000000000425,-0.863275758275079297
0.604000000000000425,-0.867338440521111975
0.605000000000000426,-0.871198234579623865
0.606000000000000427,-0.874856066676356958
0.607000000000000428,-0.878312924141408380
0.608000000000000429,-0.881569853430063999
0.609000000000000430,-0.884627958174508677
0.610000000000000431,-0.887488397266582352
0.611000000000000432,-0.890152382971396761
0.612000000000000433,-0.892621179071828363
0.613000000000000433,-0.894896099043842264
