# Ag110_GLY-JS
# h[nm],U(h)[kJ/mol]
0.149999999999999994,143.737475996165869674
0.150999999999999995,140.338179919846197663
0.151999999999999996,137.111963897456064387
0.152999999999999997,133.939093352907491408
0.153999999999999998,130.797127655359815890
0.154999999999999999,127.697837535791450136
0.156000000000000000,124.658280028936772510
0.157000000000000001,121.689936850550495251
0.158000000000000002,118.796622481285382378
0.159000000000000002,115.976032409170741744
0.160000000000000003,113.222284296741662502
0.161000000000000004,110.528232428992595260
0.162000000000000005,107.887116061966409575
0.163000000000000006,105.293496216394416365
0.164000000000000007,102.743607401488446840
0.165000000000000008,100.235301998958647118
0.166000000000000009,97.767756268396482255
0.167000000000000010,95.341073122425285646
0.168000000000000010,92.955876993967791577
0.169000000000000011,90.612959698169788680
0.170000000000000012,88.313007020207919595
0.171000000000000013,86.056414621707830293
0.172000000000000014,83.843188011521760927
0.173000000000000015,81.672913402880723766
0.174000000000000016,79.544782782537510002
0.175000000000000017,77.457656078872076932
0.176000000000000018,75.410144799928986004
0.177000000000000018,73.400704044031812145
0.178000000000000019,71.427722732710407172
0.179000000000000020,69.489604851803321139
0.180000000000000021,67.584837148834509435
0.181000000000000022,65.712040982891039675
0.182000000000000023,63.870007804302886711
0.183000000000000024,62.057719060822520873
0.184000000000000025,60.274352225946039141
0.185000000000000026,58.519275183939285512
0.186000000000000026,56.792031452873757758
0.187000000000000027,55.092318748927539218
0.188000000000000028,53.419963254403377562
0.189000000000000029,51.774891702378297964
0.190000000000000030,50.157103077501105304
0.191000000000000031,48.566641390865598282
0.192000000000000032,47.003570644178147120
0.193000000000000033,45.467952774043055797
0.194000000000000034,43.959829074076012034
0.195000000000000034,42.479205338384133483
0.196000000000000035,41.026040758225171601
0.197000000000000036,39.600240434726131866
0.198000000000000037,38.201651242483265492
0.199000000000000038,36.830060688242063804
0.200000000000000039,35.485198351293732344
0.201000000000000040,34.166739462898469526
0.202000000000000041,32.874310176025986152
0.203000000000000042,31.607494089226541689
0.204000000000000042,30.365839615069539548
0.205000000000000043,29.148867820334110945
0.206000000000000044,27.956080408517141933
0.207000000000000045,26.786967562293700240
0.208000000000000046,25.641015411883000041
0.209000000000000047,24.517712942898150175
0.210000000000000048,23.416558202693060764
0.211000000000000049,22.337063706372102700
0.212000000000000050,21.278760981742031788
0.213000000000000050,20.241204226115396381
0.214000000000000051,19.223973076798351656
0.215000000000000052,18.226674521303642962
0.216000000000000053,17.248943992954842486
0.217000000000000054,16.290445712840757153
0.218000000000000055,15.350872350371181696
0.219000000000000056,14.429944082364425384
0.220000000000000057,13.527407135071461752
0.221000000000000058,12.643031895249212226
0.222000000000000058,11.776610675743688361
0.223000000000000059,10.927955218455018382
0.224000000000000060,10.096894013402824442
0.225000000000000061,9.283269507251628028
0.226000000000000062,8.486935268411588851
0.227000000000000063,7.707753168983676240
0.228000000000000064,6.945590636622893221
0.229000000000000065,6.200318022058051604
0.230000000000000066,5.471806120718008870
0.231000000000000066,4.759923879814651926
0.232000000000000067,4.064536315446336090
0.233000000000000068,3.385502657900286039
0.234000000000000069,2.722674737419473523
0.235000000000000070,2.075895617304006624
0.236000000000000071,1.444998476369619755
0.237000000000000072,0.829805738496404599
0.238000000000000073,0.230128443272679062
0.239000000000000073,-0.354234151440330991
0.240000000000000074,-0.923494746850696657
0.241000000000000075,-1.477877974460211075
0.242000000000000076,-2.017620176825934752
0.243000000000000077,-2.542969014758119428
0.244000000000000078,-3.054182918700194982
0.245000000000000079,-3.551530402525641339
0.246000000000000080,-4.035289258155430936
0.247000000000000081,-4.505745649290485488
0.248000000000000081,-4.963193122199990981
0.249000000000000082,-5.407931550947521870
0.250000000000000111,-5.840266033706453364
0.251000000000000112,-6.260505755944526740
0.252000000000000113,-6.668962835277801204
0.253000000000000114,-7.065951161727896945
0.254000000000000115,-7.451785245995699469
0.255000000000000115,-7.826779087203860286
0.256000000000000116,-8.191245070384825411
0.257000000000000117,-8.545492902814958214
0.258000000000000118,-8.889828597133270449
0.259000000000000119,-9.224553508049858408
0.260000000000000120,-9.549963428353589023
0.261000000000000121,-9.866347748878570911
0.262000000000000122,-10.173988686094416423
0.263000000000000123,-10.473160580047972346
0.264000000000000123,-10.764129264511073103
0.265000000000000124,-11.047151510380530226
0.266000000000000125,-11.322474542635569961
0.267000000000000126,-11.590335630484190688
0.268000000000000127,-11.850961749724215011
0.269000000000000128,-12.104569315803905383
0.270000000000000129,-12.351363985591877537
0.271000000000000130,-12.591540525452604271
0.272000000000000131,-12.825282742869990926
0.273000000000000131,-13.052763478564727961
0.274000000000000132,-13.274144655807400994
0.275000000000000133,-13.489577383436643032
0.276000000000000134,-13.699202108944827927
0.277000000000000135,-13.903148817890194522
0.278000000000000136,-14.101537275831336871
0.279000000000000137,-14.294477308951783812
0.280000000000000138,-14.482069119547512415
0.281000000000000139,-14.664403632584702919
0.282000000000000139,-14.841562869595083640
0.283000000000000140,-15.013620346259420657
0.284000000000000141,-15.180641490132416038
0.285000000000000142,-15.342684075082704709
0.286000000000000143,-15.499798669155529396
0.287000000000000144,-15.652029092712089309
0.288000000000000145,-15.799412883855785239
0.289000000000000146,-15.941981768318068902
0.290000000000000147,-16.079762131146196680
0.291000000000000147,-16.212775487706959865
0.292000000000000148,-16.341038951695690429
0.293000000000000149,-16.464565698014069994
0.294000000000000150,-16.583365418555494841
0.295000000000000151,-16.697444769108663820
0.296000000000000152,-16.806807805759959251
0.297000000000000153,-16.911456409340846818
0.298000000000000154,-17.011390696627536556
0.299000000000000155,-17.106609417156672492
0.300000000000000155,-17.197110334670199450
0.301000000000000156,-17.282890592347129655
0.302000000000000157,-17.363947061117180226
0.303000000000000158,-17.440276670481331678
0.304000000000000159,-17.511876721388563993
0.305000000000000160,-17.578745180833415418
0.306000000000000161,-17.640880957948823493
0.307000000000000162,-17.698284161469974407
0.308000000000000163,-17.750956338539602086
0.309000000000000163,-17.798900694912596521
0.310000000000000164,-17.842122296698171624
0.311000000000000165,-17.880628253851476472
0.312000000000000166,-17.914427885693253728
0.313000000000000167,-17.943532868796832958
0.314000000000000168,-17.967957367635712274
0.315000000000000169,-17.987718148433245346
0.316000000000000170,-18.002834676698629579
0.317000000000000171,-18.013329198970119194
0.318000000000000171,-18.019226809318272586
0.319000000000000172,-18.020555501189232217
0.320000000000000173,-18.017346205189788577
0.321000000000000174,-18.009632813434347298
0.322000000000000175,-17.997452191087482731
0.323000000000000176,-17.980844175745897218
0.324000000000000177,-17.959851565309985943
0.325000000000000178,-17.934520094998497086
0.326000000000000179,-17.904898404159986569
0.327000000000000179,-17.871037993532063126
0.328000000000000180,-17.832993173594399394
0.329000000000000181,-17.790821004654183923
0.330000000000000182,-17.744581229292862190
0.331000000000000183,-17.694336197792274845
0.332000000000000184,-17.640150787144516897
0.333000000000000185,-17.582092314236209774
0.334000000000000186,-17.520230443781414920
0.335000000000000187,-17.454637091561089335
0.336000000000000187,-17.385386323508932094
0.337000000000000188,-17.312554251164677055
0.338000000000000189,-17.236218923997217445
0.339000000000000190,-17.156460219079573193
0.340000000000000191,-17.073359728577649719
0.341000000000000192,-16.987000645494770623
0.342000000000000193,-16.897467648092494130
0.343000000000000194,-16.804846783388384779
0.344000000000000195,-16.709225350109797148
0.345000000000000195,-16.610691781463078343
0.346000000000000196,-16.509335528056201525
0.347000000000000197,-16.405246941293270879
0.348000000000000198,-16.298517157539169631
0.349000000000000199,-16.189237983332827042
0.350000000000000200,-16.077501781908921430
0.351000000000000201,-15.963401361268315881
0.352000000000000202,-15.847029864019891221
0.353000000000000203,-15.728480659198329050
0.354000000000000203,-15.607847236245044442
0.355000000000000204,-15.485223101322947770
0.356000000000000205,-15.360701676119404624
0.357000000000000206,-15.234376199276457697
0.358000000000000207,-15.106339630571724797
0.359000000000000208,-14.976684557960046718
0.360000000000000209,-14.845503107571124346
0.361000000000000210,-14.712886856746010267
0.362000000000000210,-14.578926750182253258
0.363000000000000211,-14.443713019245830509
0.364000000000000212,-14.307335104496626599
0.365000000000000213,-14.169881581463169340
0.366000000000000214,-14.031440089692646112
0.367000000000000215,-13.892097265092118619
0.368000000000000216,-13.751938675568251114
0.369000000000000217,-13.611048759964043953
0.370000000000000218,-13.469510770283417145
0.371000000000000218,-13.327406717186823570
0.372000000000000219,-13.184817318734207703
0.373000000000000220,-13.041821952345546975
0.374000000000000221,-12.898498609942762982
0.375000000000000222,-12.754923856231638268
0.376000000000000223,-12.611172790077379346
0.377000000000000224,-12.467319008922761014
0.378000000000000225,-12.323434576193589507
0.379000000000000226,-12.179589991632571611
0.380000000000000226,-12.035854164499278696
0.381000000000000227,-11.892294389570604807
0.382000000000000228,-11.748976325873860205
0.383000000000000229,-11.605963978081943466
0.384000000000000230,-11.463319680498031516
0.385000000000000231,-11.321104083555775688
0.386000000000000232,-11.179376142759140933
0.387000000000000233,-11.038193109985096285
0.388000000000000234,-10.897610527071256215
0.389000000000000234,-10.757682221610178175
0.390000000000000235,-10.618460304870996680
0.391000000000000236,-10.479995171769532547
0.392000000000000237,-10.342335502807106451
0.393000000000000238,-10.205528267899335759
0.394000000000000239,-10.069618732015488405
0.395000000000000240,-9.934650462550322914
0.396000000000000241,-9.800665338350277977
0.397000000000000242,-9.667703560316866174
0.398000000000000242,-9.535803663511087436
0.399000000000000243,-9.405002530683370665
0.400000000000000244,-9.275335407154695844
0.401000000000000245,-9.146835916976090886
0.402000000000000246,-9.019536080294281888
0.403000000000000247,-8.893466331853121076
0.404000000000000248,-8.768655540561685058
0.405000000000000249,-8.645131030061348199
0.406000000000000250,-8.522918600225583674
0.407000000000000250,-8.402042549528044191
0.408000000000000251,-8.282525698215797760
0.409000000000000252,-8.164389412226485732
0.410000000000000253,-8.047653627789584263
0.411000000000000254,-7.932336876653946156
0.412000000000000255,-7.818456311885134014
0.413000000000000256,-7.706027734178213962
0.414000000000000257,-7.595065618632918181
0.415000000000000258,-7.485583141940317375
0.416000000000000258,-7.377592209931454370
0.417000000000000259,-7.271103485440403524
0.418000000000000260,-7.166126416435808721
0.419000000000000261,-7.062669264376680189
0.420000000000000262,-6.960739132749955260
0.421000000000000263,-6.860341995749078770
0.422000000000000264,-6.761482727054305641
0.423000000000000265,-6.664165128677272953
0.424000000000000266,-6.568391959834089633
0.425000000000000266,-6.474164965812384764
0.426000000000000267,-6.381484906799836487
0.427000000000000268,-6.290351586642840331
0.428000000000000269,-6.200763881505725550
0.429000000000000270,-6.112719768402352649
0.430000000000000271,-6.026216353573240703
0.431000000000000272,-5.941249900683075680
0.432000000000000273,-5.857815858814526599
0.433000000000000274,-5.775908890235886162
0.434000000000000274,-5.695522897921196481
0.435000000000000275,-5.616651052802970945
0.436000000000000276,-5.539285820738728106
0.437000000000000277,-5.463418989173777440
0.438000000000000278,-5.389041693484019291
0.439000000000000279,-5.316144442983493867
0.440000000000000280,-5.244717146582592804
0.441000000000000281,-5.174749138083872602
0.442000000000000282,-5.106229201103620774
0.443000000000000282,-5.039145593607962326
0.444000000000000283,-4.973486072053711737
0.445000000000000284,-4.909237915124751161
0.446000000000000285,-4.846387947055683654
0.447000000000000286,-4.784922560535647129
0.448000000000000287,-4.724827739185521125
0.449000000000000288,-4.666089079603059631
0.450000000000000289,-4.608691812970819868
0.451000000000000290,-4.552620826222812056
0.452000000000000290,-4.497860682766328111
0.453000000000000291,-4.444395642756075127
0.454000000000000292,-4.392209682918532643
0.455000000000000293,-4.341286515924826617
0.456000000000000294,-4.291609609311259455
0.457000000000000295,-4.243162203946981847
0.458000000000000296,-4.195927332048944969
0.459000000000000297,-4.149887834744726334
0.460000000000000298,-4.105026379184313789
0.461000000000000298,-4.061325475202369972
0.462000000000000299,-4.018767491532996061
0.463000000000000300,-3.977334671579251246
0.464000000000000301,-3.937009148740309605
0.465000000000000302,-3.897772961299280858
0.466000000000000303,-3.859608066875175325
0.467000000000000304,-3.822496356442736776
0.468000000000000305,-3.786419667924286081
0.469000000000000306,-3.751359799357820712
0.470000000000000306,-3.717298521646075216
0.471000000000000307,-3.684217590891236682
0.472000000000000308,-3.652098760320539927
0.473000000000000309,-3.620923791807877823
0.474000000000000310,-3.590674466996946812
0.475000000000000311,-3.561332598031511587
0.476000000000000312,-3.532880037898687764
0.477000000000000313,-3.505298690390972638
0.478000000000000314,-3.478570519693276797
0.479000000000000314,-3.452677559601048163
0.480000000000000315,-3.427601922375728805
0.481000000000000316,-3.403325807244037549
0.482000000000000317,-3.379831508547374685
0.483000000000000318,-3.357101423547997676
0.484000000000000319,-3.335118059898454668
0.485000000000000320,-3.313864042780978458
0.486000000000000321,-3.293322121723412099
0.487000000000000322,-3.273475177098437605
0.488000000000000322,-3.254306226312736250
0.489000000000000323,-3.235798429692882117
0.490000000000000324,-3.217935096074626244
0.491000000000000325,-3.200699688102326856
0.492000000000000326,-3.184075827245177237
0.493000000000000327,-3.168047298537003176
0.494000000000000328,-3.152598055046210490
0.495000000000000329,-3.137712222082552405
0.496000000000000330,-3.123374101147310178
0.497000000000000330,-3.109568173633424415
0.498000000000000331,-3.096279104282078087
0.499000000000000332,-3.083491744402212298
0.500000000000000333,-3.071191134859351468
0.501000000000000334,-3.059362508840045347
0.502000000000000335,-3.047991294398271211
0.503000000000000336,-3.037063116789923356
0.504000000000000337,-3.026563800601585363
0.505000000000000338,-3.016479371679592791
0.506000000000000338,-3.006796058865421895
0.507000000000000339,-2.997500295543253479
0.508000000000000340,-2.988578721005574312
0.509000000000000341,-2.980018181642549724
0.510000000000000342,-2.971805731960794006
0.511000000000000343,-2.963928635437133252
0.512000000000000344,-2.956374365212821598
0.513000000000000345,-2.949130604633581676
0.514000000000000346,-2.942185247640846324
0.515000000000000346,-2.935526399019264154
0.516000000000000347,-2.929142374505689705
0.517000000000000348,-2.923021700764678155
0.518000000000000349,-2.917153115235296745
0.519000000000000350,-2.911525565854194308
0.520000000000000351,-2.906128210659617572
0.521000000000000352,-2.900950417280991012
0.522000000000000353,-2.895981762318629915
0.523000000000000353,-2.891212030617993811
0.524000000000000354,-2.886631214442892723
0.525000000000000355,-2.882229512551835793
0.526000000000000356,-2.877997329181692265
0.527000000000000357,-2.873925272942791764
0.528000000000000358,-2.870004155629334086
0.529000000000000359,-2.866224990949080009
0.530000000000000360,-2.862578993176032149
0.531000000000000361,-2.859057575729862855
0.532000000000000361,-2.855652349685638747
0.533000000000000362,-2.852355122217386185
0.534000000000000363,-2.849157894978905148
0.535000000000000364,-2.846052862425164420
0.536000000000000365,-2.843032410077522165
0.537000000000000366,-2.840089112735948440
0.538000000000000367,-2.837215732641273025
0.539000000000000368,-2.834405217590528103
0.540000000000000369,-2.831650699008193772
0.541000000000000369,-2.828945489976261385
0.542000000000000370,-2.826283083225781034
0.543000000000000371,-2.823657149092591467
0.544000000000000372,-2.821061533439825020
0.545000000000000373,-2.818490255549665591
0.546000000000000374,-2.815937505986787048
0.547000000000000375,-2.813397644435853273
0.548000000000000376,-2.810865197515354019
0.549000000000000377,-2.808334856569958404
0.550000000000000377,-2.805801475443534532
0.551000000000000378,-2.803260068234933122
0.552000000000000379,-2.800705807038478490
0.553000000000000380,-2.798134019671150607
0.554000000000000381,-2.795540187388279918
0.555000000000000382,-2.792919942589599636
0.556000000000000383,-2.790269066517340413
0.557000000000000384,-2.787583486948097988
0.558000000000000385,-2.784859275880037455
0.559000000000000385,-2.782092647217053738
0.560000000000000386,-2.779279954451287615
0.561000000000000387,-2.776417688345558688
0.562000000000000388,-2.773502474616992508
0.563000000000000389,-2.770531071623255848
0.564000000000000390,-2.767500368052604909
0.565000000000000391,-2.764407380619044119
0.566000000000000392,-2.761249251763710166
0.567000000000000393,-2.758023247363660779
0.568000000000000393,-2.754726754449090098
0.569000000000000394,-2.751357278930060879
0.570000000000000395,-2.747912443333696331
0.571000000000000396,-2.744389984552785045
0.572000000000000397,-2.740787751606723610
0.573000000000000398,-2.737103703415596279
0.574000000000000399,-2.733335906588270525
0.575000000000000400,-2.729482533225238150
0.576000000000000401,-2.725541858736936440
0.577000000000000401,-2.721512259678308787
0.578000000000000402,-2.717392211600178520
0.579000000000000403,-2.713180286918108308
0.580000000000000404,-2.708875152799363306
0.581000000000000405,-2.704475569068466978
0.582000000000000406,-2.699980386131930921
0.583000000000000407,-2.695388542922619646
0.584000000000000408,-2.690699064864242818
0.585000000000000409,-2.685911061856351978
0.586000000000000409,-2.681023726280318709
0.587000000000000410,-2.676036331026611315
0.588000000000000411,-2.670948227543732401
0.589000000000000412,-2.665758843909167730
0.590000000000000413,-2.660467682922586174
0.591000000000000414,-2.655074320221621154
0.592000000000000415,-2.649578402420444512
0.593000000000000416,-2.643979645271365975
0.594000000000000417,-2.638277831849660693
0.595000000000000417,-2.632472810761830040
0.596000000000000418,-2.626564494377386261
0.597000000000000419,-2.620552857084404330
0.598000000000000420,-2.614437933568864558
0.599000000000000421,-2.608219817117941375
0.600000000000000422,-2.601898657947328886
0.601000000000000423,-2.595474661552615636
0.602000000000000424,-2.588948087084829375
0.603000000000000425,-2.582319245750144709
0.604000000000000425,-2.575588499233769646
0.605000000000000426,-2.568756258148025662
0.606000000000000427,-2.561822980504659064
0.607000000000000428,-2.554789170211214433
0.608000000000000429,-2.547655375591671767
0.609000000000000430,-2.540422187931013820
0.610000000000000431,-2.533090240043935015
