# Ag110_CS-693-AC
# h[nm],U(h)[kJ/mol]
0.149999999999999994,126.389602594318517959
0.150999999999999995,123.896217042185227797
0.151999999999999996,121.346951499201892943
0.152999999999999997,118.783096858487311920
0.153999999999999998,116.249142053326565360
0.154999999999999999,113.775113317229369159
0.156000000000000000,111.374162226220235539
0.157000000000000001,109.046326362675515043
0.158000000000000002,106.783804765927357039
0.159000000000000002,104.575626629625531905
0.160000000000000003,102.410974098858133630
0.161000000000000004,100.281114522499279929
0.162000000000000005,98.180197330972220016
0.163000000000000006,96.105256372582587687
0.164000000000000007,94.055738115498485286
0.165000000000000008,92.032811819970532952
0.166000000000000009,90.038643417234013100
0.167000000000000010,88.075747095408218001
0.168000000000000010,86.146474262067130212
0.169000000000000011,84.252659963880191185
0.170000000000000012,82.395420621357033042
0.171000000000000013,80.575081595072177265
0.172000000000000014,78.791205928966988381
0.173000000000000015,77.042694134627737412
0.174000000000000016,75.327927026547101264
0.175000000000000017,73.644927797388348267
0.176000000000000018,71.991524574829384164
0.177000000000000018,70.365499838567586721
0.178000000000000019,68.764717803209208569
0.179000000000000020,67.187224918047760980
0.180000000000000021,65.631321885257918325
0.181000000000000022,64.095608048229891551
0.182000000000000023,62.579000713149220303
0.183000000000000024,61.080733038036441940
0.184000000000000025,59.600334668560563500
0.185000000000000026,58.137599434582718061
0.186000000000000026,56.692544253347804784
0.187000000000000027,55.265363009391421656
0.188000000000000028,53.856378677240954289
0.189000000000000029,52.465996384928622831
0.190000000000000030,51.094659533502500892
0.191000000000000031,49.742810526191853171
0.192000000000000032,48.410857145380347788
0.193000000000000033,47.099145161430058693
0.194000000000000034,45.807937372594224712
0.195000000000000034,44.537398961958402310
0.196000000000000035,43.287588813585557546
0.197000000000000036,42.058456250941659960
0.198000000000000037,40.849842539539636732
0.199000000000000038,39.661486424858409805
0.200000000000000039,38.493032947904751495
0.201000000000000040,37.344044786337711628
0.202000000000000041,36.214015401362296132
0.203000000000000042,35.102383322776454122
0.204000000000000042,34.008546970563685363
0.205000000000000043,32.931879486051585104
0.206000000000000044,31.871743124531445090
0.207000000000000045,30.827502840805728113
0.208000000000000046,29.798538776593566979
0.209000000000000047,28.784257431961144391
0.210000000000000048,27.784101370428025746
0.211000000000000049,26.797557368126934563
0.212000000000000050,25.824162970776580295
0.213000000000000050,24.863511468048301367
0.214000000000000051,23.915255333212019906
0.215000000000000052,22.979108207014313336
0.216000000000000053,22.054845528998413329
0.217000000000000054,21.142303937468174269
0.218000000000000055,20.241379571639846802
0.219000000000000056,19.352025416871818209
0.220000000000000057,18.474247836871043660
0.221000000000000058,17.608102436109810185
0.222000000000000058,16.753689391959525778
0.223000000000000059,15.911148389862802333
0.224000000000000060,15.080653286751104503
0.225000000000000061,14.262406618370002676
0.226000000000000062,13.456634055631543134
0.227000000000000063,12.663578903955709620
0.228000000000000064,11.883496728122056041
0.229000000000000065,11.116650173701483340
0.230000000000000066,10.363304044914361413
0.231000000000000066,9.623720687943604801
0.232000000000000067,8.898155718472450459
0.233000000000000068,8.186854122621923580
0.234000000000000069,7.490046751614157117
0.235000000000000070,6.807947222433223367
0.236000000000000071,6.140749229524566921
0.237000000000000072,5.488624266170832655
0.238000000000000073,4.851719748600281434
0.239000000000000073,4.230157531099429491
0.240000000000000074,3.624032796377257171
0.241000000000000075,3.033413302128896927
0.242000000000000076,2.458338962117855520
0.243000000000000077,1.898821738088985800
0.244000000000000078,1.354845817384794149
0.245000000000000079,0.826368050208709071
0.246000000000000080,0.313318620007496829
0.247000000000000081,-0.184398079626598127
0.248000000000000081,-0.666902387853549938
0.249000000000000082,-1.134338165024174394
0.250000000000000111,-1.586871451570372349
0.251000000000000112,-2.024689021218081031
0.252000000000000113,-2.447996851188668277
0.253000000000000114,-2.857018530716032068
0.254000000000000115,-3.251993627775207951
0.255000000000000115,-3.633176032417515078
0.256000000000000116,-4.000832293569358100
0.257000000000000117,-4.355239964597609870
0.258000000000000118,-4.696685971394741088
0.259000000000000119,-5.025465015210966335
0.260000000000000120,-5.341878020971955188
0.261000000000000121,-5.646230640381588728
0.262000000000000122,-5.938831817731439422
0.263000000000000123,-6.219992425027966121
0.264000000000000123,-6.490023971813275061
0.265000000000000124,-6.749237393897935533
0.266000000000000125,-6.997941924149381876
0.267000000000000126,-7.236444047487337272
0.268000000000000127,-7.465046541329874330
0.269000000000000128,-7.684047601908098102
0.270000000000000129,-7.893740056124531002
0.271000000000000130,-8.094410657966520262
0.272000000000000131,-8.286339467898931943
0.273000000000000131,-8.469799313147465369
0.274000000000000132,-8.645055326340820301
0.275000000000000133,-8.812364559603395264
0.276000000000000134,-8.971975670875961484
0.277000000000000135,-9.124128678985247376
0.278000000000000136,-9.269054783781651707
0.279000000000000137,-9.406976247511586564
0.280000000000000138,-9.538106333484000388
0.281000000000000139,-9.662649298025479894
0.282000000000000139,-9.780800431690174435
0.283000000000000140,-9.892746145696523996
0.284000000000000141,-9.998664099598354227
0.285000000000000142,-10.098723366259878986
0.286000000000000143,-10.193084630289151349
0.287000000000000144,-10.281900416189207803
0.288000000000000145,-10.365315342608456106
0.289000000000000146,-10.443466399207084194
0.290000000000000147,-10.516483242804735454
0.291000000000000147,-10.584488509630846309
0.292000000000000148,-10.647598140663662392
0.293000000000000149,-10.705921717212733668
0.294000000000000150,-10.759562804072331232
0.295000000000000151,-10.808619297747714683
0.296000000000000152,-10.853183777430533752
0.297000000000000153,-10.893343856573583395
0.298000000000000154,-10.929182533086578388
0.299000000000000155,-10.960778536343239509
0.300000000000000155,-10.988206669354694256
0.301000000000000156,-11.011538144623921553
0.302000000000000157,-11.030840912351154159
0.303000000000000158,-11.046179979808654181
0.304000000000000159,-11.057617720846611320
0.305000000000000160,-11.065214174627694632
0.306000000000000161,-11.069027332817901410
0.307000000000000162,-11.069113414583785726
0.308000000000000163,-11.065527128861830874
0.309000000000000163,-11.058321923474647264
0.310000000000000164,-11.047550220770046892
0.311000000000000165,-11.033263639553901214
0.312000000000000166,-11.015513203175483881
0.313000000000000167,-10.994349533704966149
0.314000000000000168,-10.969823032217298930
0.315000000000000169,-10.941984045264653957
0.316000000000000170,-10.910883017681809903
0.317000000000000171,-10.876570631924334265
0.318000000000000171,-10.839097934190013106
0.319000000000000172,-10.798516447618542458
0.320000000000000173,-10.754878272904070613
0.321000000000000174,-10.708236176689620578
0.322000000000000175,-10.658643668142534722
0.323000000000000176,-10.606155064135403876
0.324000000000000177,-10.550825543478257629
0.325000000000000178,-10.492711190665200860
0.326000000000000179,-10.431869029612737876
0.327000000000000179,-10.368357047877049482
0.328000000000000180,-10.302234211845012979
0.329000000000000181,-10.233560473398394919
0.330000000000000182,-10.162396768551827719
0.331000000000000183,-10.088805008565206123
0.332000000000000184,-10.012848064027730643
0.333000000000000185,-9.934589742406350510
0.334000000000000186,-9.854094759544404170
0.335000000000000187,-9.771428705588203201
0.336000000000000187,-9.686658005809448468
0.337000000000000188,-9.599849876780409019
0.338000000000000189,-9.511072278346807352
0.339000000000000190,-9.420393861830206106
0.340000000000000191,-9.327883914877793003
0.341000000000000192,-9.233612303363170071
0.342000000000000193,-9.137649410726261578
0.343000000000000194,-9.040066075125370304
0.344000000000000195,-8.940933524758005291
0.345000000000000195,-8.840323311691516750
0.346000000000000196,-8.738307244527835138
0.347000000000000197,-8.634957320210471465
0.348000000000000198,-8.530345655265641369
0.349000000000000199,-8.424544416752851816
0.350000000000000200,-8.317625753184467285
0.351000000000000201,-8.209661725657484865
0.352000000000000202,-8.100724239425217021
0.353000000000000203,-7.990884976121249039
0.354000000000000203,-7.880215326832572309
0.355000000000000204,-7.768786326204372372
0.356000000000000205,-7.656668587744446697
0.357000000000000206,-7.543932240481302287
0.358000000000000207,-7.430646867116275089
0.359000000000000208,-7.316881443797299767
0.360000000000000209,-7.202704281628999006
0.361000000000000210,-7.088182970021783547
0.362000000000000210,-6.973384321970978128
0.363000000000000211,-6.858374321345808156
0.364000000000000212,-6.743218072257477047
0.365000000000000213,-6.627979750565215156
0.366000000000000214,-6.512722557569733617
0.367000000000000215,-6.397508675934051148
0.368000000000000216,-6.282399227863249891
0.369000000000000217,-6.167454235566126819
0.370000000000000218,-6.052732584014336226
0.371000000000000218,-5.938291986006889012
0.372000000000000219,-5.824188949541434290
0.373000000000000220,-5.710478747486996021
0.374000000000000221,-5.597215389547161912
0.375000000000000222,-5.484451596496811909
0.376000000000000223,-5.372238776670704041
0.377000000000000224,-5.260627004677159491
0.378000000000000225,-5.149665002305867212
0.379000000000000226,-5.039400121594757920
0.380000000000000226,-4.929878330017317900
0.381000000000000227,-4.821144197748169269
0.382000000000000228,-4.713240886962045906
0.383000000000000229,-4.606210143118399714
0.384000000000000230,-4.500092288181401834
0.385000000000000231,-4.394926215723361729
0.386000000000000232,-4.290749387857275110
0.387000000000000233,-4.187597833942973580
0.388000000000000234,-4.085506151009815845
0.389000000000000234,-3.984507505837915353
0.390000000000000235,-3.884633638638736564
0.391000000000000236,-3.785914868275582990
0.392000000000000237,-3.688380098963526699
0.393000000000000238,-3.592056828388520362
0.394000000000000239,-3.496971157184810775
0.395000000000000240,-3.403147799710129817
0.396000000000000241,-3.310610096058111740
0.397000000000000242,-3.219380025247690291
0.398000000000000242,-3.129478219529752359
0.399000000000000243,-3.040923979751759543
0.400000000000000244,-2.953735291721586442
0.401000000000000245,-2.867928843512983050
0.402000000000000246,-2.783520043655339560
0.403000000000000247,-2.700523040151735721
0.404000000000000248,-2.618950740270145960
0.405000000000000249,-2.538814831053701315
0.406000000000000250,-2.460125800496983928
0.407000000000000250,-2.382892959336647021
0.408000000000000251,-2.307124463405648029
0.409000000000000252,-2.232827336501917781
0.410000000000000253,-2.160007493723272720
0.411000000000000254,-2.088669765221974561
0.412000000000000255,-2.018817920333495053
0.413000000000000256,-1.950454692035544779
0.414000000000000257,-1.883581801694649061
0.415000000000000258,-1.818199984059185370
0.416000000000000258,-1.754309012458904693
0.417000000000000259,-1.691907724172625249
0.418000000000000260,-1.630994045927049330
0.419000000000000261,-1.571565019491033999
0.420000000000000262,-1.513616827331188963
0.421000000000000263,-1.457144818295901700
0.422000000000000264,-1.402143533296352995
0.423000000000000265,-1.348606730954369448
0.424000000000000266,-1.296527413188521161
0.425000000000000266,-1.245897850710828036
0.426000000000000267,-1.196709608408132341
0.427000000000000268,-1.148953570583225003
0.428000000000000269,-1.102619966032189369
0.429000000000000270,-1.057698392935674470
0.430000000000000271,-1.014177843542930724
0.431000000000000272,-0.972046728628779610
0.432000000000000273,-0.931292901704705245
0.433000000000000274,-0.891903682966519562
0.434000000000000274,-0.853865882962052458
0.435000000000000275,-0.817165825963496628
0.436000000000000276,-0.781789373030018053
0.437000000000000277,-0.747721944747278711
0.438000000000000278,-0.714948543631545586
0.439000000000000279,-0.683453776187001427
0.440000000000000280,-0.653221874605773745
0.441000000000000281,-0.624236718101128352
0.442000000000000282,-0.596481853865228451
0.443000000000000282,-0.569940517643454547
0.444000000000000283,-0.544595653918470979
0.445000000000000284,-0.520429935697650947
0.446000000000000285,-0.497425783898356233
0.447000000000000286,-0.475565386326494088
0.448000000000000287,-0.454830716244052968
0.449000000000000288,-0.435203550522409277
0.450000000000000289,-0.416665487378556965
0.451000000000000290,-0.399197963692138558
0.452000000000000290,-0.382782271901758731
0.453000000000000291,-0.367399576479537415
0.454000000000000292,-0.353030929983512654
0.455000000000000293,-0.339657288687876480
0.456000000000000294,-0.327259527791656346
0.457000000000000295,-0.315818456206778619
0.458000000000000296,-0.305314830927010727
0.459000000000000297,-0.295729370979578188
0.460000000000000298,-0.287042770961764171
0.461000000000000298,-0.279235714165035620
0.462000000000000299,-0.272288885289751648
0.463000000000000300,-0.266182982753631392
0.464000000000000301,-0.260898730597698192
0.465000000000000302,-0.256416889993517194
0.466000000000000303,-0.252718270355917540
0.467000000000000304,-0.249783740065568777
0.468000000000000305,-0.247594236806150919
0.469000000000000306,-0.246130777520868843
0.470000000000000306,-0.245374467993466100
0.471000000000000307,-0.245306512058930087
0.472000000000000308,-0.245908220449353454
0.473000000000000309,-0.247161019280488337
0.474000000000000310,-0.249046458184726760
0.475000000000000311,-0.251546218096363017
0.476000000000000312,-0.254642118695078690
0.477000000000000313,-0.258316125513710415
0.478000000000000314,-0.262550356716439226
0.479000000000000314,-0.267327089553680619
0.480000000000000315,-0.272628766499879105
0.481000000000000316,-0.278438001080664577
0.482000000000000317,-0.284737583395665073
0.483000000000000318,-0.291510485343485837
0.484000000000000319,-0.298739865555261996
0.485000000000000320,-0.306409074043325791
0.486000000000000321,-0.314501656571410215
0.487000000000000322,-0.323001358752934287
0.488000000000000322,-0.331892129883827214
0.489000000000000323,-0.341158126516390769
0.490000000000000324,-0.350783715780651151
0.491000000000000325,-0.360753478459625521
0.492000000000000326,-0.371052211824907940
0.493000000000000327,-0.381664932238948151
0.494000000000000328,-0.392576877530353974
0.495000000000000329,-0.403773509148460552
0.496000000000000330,-0.415240514103434433
0.497000000000000330,-0.426963806698063220
0.498000000000000331,-0.438929530057332484
0.499000000000000332,-0.451124057461833761
0.500000000000000333,-0.463533993491031360
0.501000000000000334,-0.476146174982216397
0.502000000000000335,-0.488947671811053752
0.503000000000000336,-0.501925787499434839
0.504000000000000337,-0.515068059656346833
0.505000000000000338,-0.528362260257331795
0.506000000000000338,-0.541796395768069816
0.507000000000000339,-0.555358707117512229
0.508000000000000340,-0.569037669525892964
0.509000000000000341,-0.582821992192905869
0.510000000000000342,-0.596700617851176118
0.511000000000000343,-0.610662722190127738
0.512000000000000344,-0.624697713155215828
0.513000000000000345,-0.638795230127410463
0.514000000000000346,-0.652945142987768956
0.515000000000000346,-0.667137551071723456
0.516000000000000347,-0.681362782017750357
0.517000000000000348,-0.695611390514948136
0.518000000000000349,-0.709874156953876900
0.519000000000000350,-0.724142085985029715
0.520000000000000351,-0.738406404989178311
0.521000000000000352,-0.752658562463682568
0.522000000000000353,-0.766890226328835078
0.523000000000000353,-0.781093282158177415
0.524000000000000354,-0.795259831336634804
0.525000000000000355,-0.809382189150261055
0.526000000000000356,-0.823452882811185893
0.527000000000000357,-0.837464649421427842
0.528000000000000358,-0.851410433879005502
0.529000000000000359,-0.865283386729732484
0.530000000000000360,-0.879076861968028589
0.531000000000000361,-0.892784414789946412
0.532000000000000361,-0.906399799301541798
0.533000000000000362,-0.919916966185628349
0.534000000000000363,-0.933330060329862987
0.535000000000000364,-0.946633418419052353
0.536000000000000365,-0.959821566494436396
0.537000000000000366,-0.972889217482681756
0.538000000000000367,-0.985831268697174301
0.539000000000000368,-0.998642799314201746
0.540000000000000369,-1.011319067826427887
0.541000000000000369,-1.023855509476100378
0.542000000000000370,-1.036247733670261351
0.543000000000000371,-1.048491521380212843
0.544000000000000372,-1.060582822527408542
0.545000000000000373,-1.072517753357824954
0.546000000000000374,-1.084292593806868155
0.547000000000000375,-1.095903784856725460
0.548000000000000376,-1.107347925888088058
0.549000000000000377,-1.118621772028003170
0.550000000000000377,-1.129722231495630558
0.551000000000000378,-1.140646362947591808
0.552000000000000379,-1.151391372824496440
0.553000000000000380,-1.161954612700245359
0.554000000000000381,-1.172333576635559371
0.555000000000000382,-1.182525898537219788
0.556000000000000383,-1.192529349524342530
0.557000000000000384,-1.202341835303059270
0.558000000000000385,-1.211961393550839095
0.559000000000000385,-1.221386191311687242
0.560000000000000386,-1.230614522403338684
0.561000000000000387,-1.239644804837620296
0.562000000000000388,-1.248475578254960583
0.563000000000000389,-1.257105501374150114
0.564000000000000390,-1.265533349458203727
0.565000000000000391,-1.273758011797345269
0.566000000000000392,-1.281778489209911776
0.567000000000000393,-1.289593891562038408
0.568000000000000393,-1.297203435306884645
0.569000000000000394,-1.304606441044173781
0.570000000000000395,-1.311802331100714536
0.571000000000000396,-1.318790627132566673
0.572000000000000397,-1.325570947749521888
0.573000000000000398,-1.332143006162410215
0.574000000000000399,-1.338506607853845676
0.575000000000000400,-1.344661648272885035
0.576000000000000401,-1.350608110554093466
0.577000000000000401,-1.356346063261487211
0.578000000000000402,-1.361875658157722047
0.579000000000000403,-1.367197127998940998
0.580000000000000404,-1.372310784355647906
0.581000000000000405,-1.377217015459888616
0.582000000000000406,-1.381916284079090174
0.583000000000000407,-1.386409125416776078
0.584000000000000408,-1.390696145040446252
0.585000000000000409,-1.394778016836796475
0.586000000000000409,-1.398655480994512867
0.587000000000000410,-1.402329342014787539
0.588000000000000411,-1.405800466749682620
0.589000000000000412,-1.409069782468533427
0.590000000000000413,-1.412138274952405625
0.591000000000000414,-1.415006986616755169
0.592000000000000415,-1.417677014662349411
0.593000000000000416,-1.420149509254431619
0.594000000000000417,-1.422425671730244812
0.595000000000000417,-1.424506752834854506
0.596000000000000418,-1.426394050985283490
0.597000000000000419,-1.428088910562949954
0.598000000000000420,-1.429592720234331926
0.599000000000000421,-1.430906911299838047
0.600000000000000422,-1.432032956070799390
0.601000000000000423,-1.432972366274483322
0.602000000000000424,-1.433726691487061444
0.603000000000000425,-1.434297517594416371
0.604000000000000425,-1.434686465280634593
0.605000000000000426,-1.434895188544085043
0.606000000000000427,-1.434925373240960811
0.607000000000000428,-1.434778735656023763
0.608000000000000429,-1.434457021100573604
0.609000000000000430,-1.433962002537233271
0.610000000000000431,-1.433295479231607050
0.611000000000000432,-1.432459275430431500
0.612000000000000433,-1.431455239066110607
