# Ag110_CS-6110-AC
# h[nm],U(h)[kJ/mol]
0.149999999999999994,128.017538643863275638
0.150999999999999995,125.508948757477625691
0.151999999999999996,123.123819362237327368
0.152999999999999997,120.743266225328028440
0.153999999999999998,118.357372467565852503
0.154999999999999999,115.990528212377881800
0.156000000000000000,113.668326032582768903
0.157000000000000001,111.406163392310489257
0.158000000000000002,109.208143230792046552
0.159000000000000002,107.070024228934627786
0.160000000000000003,104.983040652006167193
0.161000000000000004,102.937168731770924524
0.162000000000000005,100.923369701150193123
0.163000000000000006,98.934813901507595801
0.164000000000000007,96.967290536305768001
0.165000000000000008,95.019059718305442175
0.166000000000000009,93.090382883037094075
0.167000000000000010,91.182917777495163136
0.168000000000000010,89.299108555569119972
0.169000000000000011,87.441651514397577216
0.170000000000000012,85.613077239336476509
0.171000000000000013,83.815461145902361295
0.172000000000000014,82.050255492249263511
0.173000000000000015,80.318225006693467094
0.174000000000000016,78.619463319680932045
0.175000000000000017,76.953466579152689064
0.176000000000000018,75.319242448717915295
0.177000000000000018,73.715435970552590561
0.178000000000000019,72.140457671078507929
0.179000000000000020,70.592603220559055899
0.180000000000000021,69.070157567252039144
0.181000000000000022,67.571479555126103378
0.182000000000000023,66.095065520468324394
0.183000000000000024,64.639592244794513931
0.184000000000000025,63.203940966315300898
0.185000000000000026,61.787204993970796352
0.186000000000000026,60.388683912362623118
0.187000000000000027,59.007867499294263780
0.188000000000000028,57.644412380770901905
0.189000000000000029,56.298114192295692249
0.190000000000000030,54.968877659902332766
0.191000000000000031,53.656686607743267814
0.192000000000000032,52.361575478358972191
0.193000000000000033,51.083603544261720231
0.194000000000000034,49.822832613981049121
0.195000000000000034,48.579308704022736265
0.196000000000000035,47.353047866489404782
0.197000000000000036,46.144026132308219701
0.198000000000000037,44.952173350859915502
0.199000000000000038,43.777370574872762177
0.200000000000000039,42.619450549896001235
0.201000000000000040,41.478200814892893789
0.202000000000000041,40.353368898591838843
0.203000000000000042,39.244669099374348775
0.204000000000000042,38.151790359136796837
0.205000000000000043,37.074404778708483832
0.206000000000000044,36.012176369574845580
0.207000000000000045,34.964769690011124226
0.208000000000000046,33.931858070059611521
0.209000000000000047,32.913131186477926349
0.210000000000000048,31.908301803792607387
0.211000000000000049,30.917111549367053414
0.212000000000000050,29.939335637831106851
0.213000000000000050,28.974786502602473348
0.214000000000000051,28.023316329150340209
0.215000000000000052,27.084818515970994213
0.216000000000000053,26.159228115027627126
0.217000000000000054,25.246521323875171561
0.218000000000000055,24.346714117189762305
0.219000000000000056,23.459860116373256744
0.220000000000000057,22.586047802776239024
0.221000000000000058,21.725397183384458799
0.222000000000000058,20.878056018037046471
0.223000000000000059,20.044195714894907923
0.224000000000000060,19.224006996417877247
0.225000000000000061,18.417695431983855059
0.226000000000000062,17.625476925895657843
0.227000000000000063,16.847573241233988028
0.228000000000000064,16.084207631152363405
0.229000000000000065,15.335600640046854082
0.230000000000000066,14.601966127815611429
0.231000000000000066,13.883507561342829817
0.232000000000000067,13.180414608568707280
0.233000000000000068,12.492860062165409119
0.234000000000000069,11.820997112032209486
0.235000000000000070,11.164956978619809291
0.236000000000000071,10.524846912545465116
0.237000000000000072,9.900748560091084727
0.238000000000000073,9.292716688999059116
0.239000000000000073,8.700778264489899883
0.240000000000000074,8.124931861601641714
0.241000000000000075,7.565147396773058475
0.242000000000000076,7.021366159021612319
0.243000000000000077,6.493501119065895111
0.244000000000000078,5.981437493267661942
0.245000000000000079,5.485033538273413001
0.246000000000000080,5.004121551674816537
0.247000000000000081,4.538509053830614093
0.248000000000000081,4.087980126157524374
0.249000000000000082,3.652296881655868965
0.250000000000000111,3.231201044144794032
0.251000000000000112,2.824415613602368147
0.252000000000000113,2.431646596096408874
0.253000000000000114,2.052584778021784295
0.254000000000000115,1.686907525690903853
0.255000000000000115,1.334280592732275839
0.256000000000000116,0.994359919206758369
0.257000000000000117,0.666793407831214324
0.258000000000000118,0.351222664183791278
0.259000000000000119,0.047284689234816213
0.260000000000000120,-0.245386486011975075
0.261000000000000121,-0.527158232584039155
0.262000000000000122,-0.798397829781796853
0.263000000000000123,-1.059471051784385054
0.264000000000000123,-1.310740839591580276
0.265000000000000124,-1.552566062131928826
0.266000000000000125,-1.785300369303157053
0.267000000000000126,-2.009291138725727510
0.268000000000000127,-2.224878517086561480
0.269000000000000128,-2.432394556125872409
0.270000000000000129,-2.632162442576352124
0.271000000000000130,-2.824495820698297521
0.272000000000000131,-3.009698205464162335
0.273000000000000131,-3.188062483929466229
0.274000000000000132,-3.359870501880033000
0.275000000000000133,-3.525392732465283618
0.276000000000000134,-3.684888023209623498
0.277000000000000135,-3.838603417534721451
0.278000000000000136,-3.986774046721657694
0.279000000000000137,-4.129623088088097305
0.280000000000000138,-4.267361785048615630
0.281000000000000139,-4.400189524662067697
0.282000000000000139,-4.528293968243872314
0.283000000000000140,-4.651851230630219547
0.284000000000000141,-4.771026103721071721
0.285000000000000142,-4.885972319996570334
0.286000000000000143,-4.996832851793169716
0.287000000000000144,-5.103740242238176350
0.288000000000000145,-5.206816963872718418
0.289000000000000146,-5.306175801137936965
0.290000000000000147,-5.401920253058351662
0.291000000000000147,-5.494144952623901013
0.292000000000000148,-5.582936099548852837
0.293000000000000149,-5.668371903267187761
0.294000000000000150,-5.750523033210066970
0.295000000000000151,-5.829453073598983792
0.296000000000000152,-5.905218980176620391
0.297000000000000153,-5.977871536485644732
0.298000000000000154,-6.047455807491552093
0.299000000000000155,-6.114011588528846630
0.300000000000000155,-6.177573847729123990
0.301000000000000156,-6.238173160263988493
0.302000000000000157,-6.295836132905236582
0.303000000000000158,-6.350585817567688807
0.304000000000000159,-6.402442112657294793
0.305000000000000160,-6.451422151196896770
0.306000000000000161,-6.497540674845504682
0.307000000000000162,-6.540810393062630901
0.308000000000000163,-6.581242326797628550
0.309000000000000163,-6.618846136205156938
0.310000000000000164,-6.653630432001435224
0.311000000000000165,-6.685603070181883822
0.312000000000000166,-6.714771429919738743
0.313000000000000167,-6.741142674556624748
0.314000000000000168,-6.764723995680374635
0.315000000000000169,-6.785522840363100272
0.316000000000000170,-6.803547121703243938
0.317000000000000171,-6.818805412879504146
0.318000000000000171,-6.831307124982773260
0.319000000000000172,-6.841062668944249303
0.320000000000000173,-6.848083601924218833
0.321000000000000174,-6.852382758566797349
0.322000000000000175,-6.853974367561879610
0.323000000000000176,-6.852874153986095784
0.324000000000000177,-6.849099427920977590
0.325000000000000178,-6.842669159868080442
0.326000000000000179,-6.833604043499102332
0.327000000000000179,-6.821926546292393034
0.328000000000000180,-6.807660948618073249
0.329000000000000181,-6.790833371841207722
0.330000000000000182,-6.771471796016143685
0.331000000000000183,-6.749606067747109250
0.332000000000000184,-6.725267898788359844
0.333000000000000185,-6.698490855954088552
0.334000000000000186,-6.669310342902396549
0.335000000000000187,-6.637763574350197260
0.336000000000000187,-6.603889543266733497
0.337000000000000188,-6.567728981582374281
0.338000000000000189,-6.529324314937599461
0.339000000000000190,-6.488719611983535529
0.340000000000000191,-6.445960528731039751
0.341000000000000192,-6.401094248430547751
0.342000000000000193,-6.354169417448352952
0.343000000000000194,-6.305236077589201571
0.344000000000000195,-6.254345595297232663
0.345000000000000195,-6.201550588150818832
0.346000000000000196,-6.146904849048365982
0.347000000000000197,-6.090463268464842983
0.348000000000000198,-6.032281755140699531
0.349000000000000199,-5.972417155546763112
0.350000000000000200,-5.910927172451141409
0.351000000000000201,-5.847870282896019845
0.352000000000000202,-5.783305655874977802
0.353000000000000203,-5.717293069983979237
0.354000000000000203,-5.649892831302198104
0.355000000000000204,-5.581165691742006274
0.356000000000000205,-5.511172768091337382
0.357000000000000206,-5.439975461955517844
0.358000000000000207,-5.367635380790058974
0.359000000000000208,-5.294214260201114186
0.360000000000000209,-5.219773887675456692
0.361000000000000210,-5.144376027887764380
0.362000000000000210,-5.068082349719487567
0.363000000000000211,-4.990954355110313934
0.364000000000000212,-4.913053309850842432
0.365000000000000213,-4.834440176412754475
0.366000000000000214,-4.755175548901524607
0.367000000000000215,-4.675319590205363696
0.368000000000000216,-4.594931971403889648
0.369000000000000217,-4.514071813489775487
0.370000000000000218,-4.432797631447344067
0.371000000000000218,-4.351167280722897601
0.372000000000000219,-4.269237906113319880
0.373000000000000220,-4.187065893091292956
0.374000000000000221,-4.104706821578110620
0.375000000000000222,-4.022215422167827015
0.376000000000000223,-3.939645534800135351
0.377000000000000224,-3.857050069872951958
0.378000000000000225,-3.774480971780119098
0.379000000000000226,-3.691989184854227890
0.380000000000000226,-3.609624621689756729
0.381000000000000227,-3.527436133816970631
0.382000000000000228,-3.445471484693128694
0.383000000000000229,-3.363777324973595828
0.384000000000000230,-3.282399170021869317
0.385000000000000231,-3.201381379614792966
0.386000000000000232,-3.120767139795912470
0.387000000000000233,-3.040598446827826873
0.388000000000000234,-2.960916093191841014
0.389000000000000234,-2.881759655581568769
0.390000000000000235,-2.803167484835098922
0.391000000000000236,-2.725176697749218668
0.392000000000000237,-2.647823170717625629
0.393000000000000238,-2.571141535134408684
0.394000000000000239,-2.495165174502926853
0.395000000000000240,-2.419926223189895254
0.396000000000000241,-2.345455566763921418
0.397000000000000242,-2.271782843857453660
0.398000000000000242,-2.198936449491180500
0.399000000000000243,-2.126943539799818872
0.400000000000000244,-2.055830038098379386
0.401000000000000245,-1.985620642228676402
0.402000000000000246,-1.916338833125794894
0.403000000000000247,-1.848006884545144501
0.404000000000000248,-1.780645873891305353
0.405000000000000249,-1.714275694090560354
0.406000000000000250,-1.648915066449862632
0.407000000000000250,-1.584581554445992913
0.408000000000000251,-1.521291578389457610
0.409000000000000252,-1.459060430908989625
0.410000000000000253,-1.397902293203303392
0.411000000000000254,-1.337830252008215259
0.412000000000000255,-1.278856317228164841
0.413000000000000256,-1.220991440182656484
0.414000000000000257,-1.164245532419135198
0.415000000000000258,-1.108627485045405425
0.416000000000000258,-1.054145188535720035
0.417000000000000259,-1.000805552966247403
0.418000000000000260,-0.948614528636817611
0.419000000000000261,-0.897577127037247235
0.420000000000000262,-0.847697442117954836
0.421000000000000263,-0.798978671825891107
0.422000000000000264,-0.751423139868188983
0.423000000000000265,-0.705032317667255382
0.424000000000000266,-0.659806846472584363
0.425000000000000266,-0.615746559595575116
0.426000000000000267,-0.572850504735322175
0.427000000000000268,-0.531116966364439724
0.428000000000000269,-0.490543488145390505
0.429000000000000270,-0.451126895349097612
0.430000000000000271,-0.412863317248782391
0.431000000000000272,-0.375748209463370730
0.432000000000000273,-0.339776376225929877
0.433000000000000274,-0.304941992553878549
0.434000000000000274,-0.271238626298827612
0.435000000000000275,-0.238659260055159195
0.436000000000000276,-0.207196312907525770
0.437000000000000277,-0.176841661998543870
0.438000000000000278,-0.147586663899117509
0.439000000000000279,-0.119422175764829053
0.440000000000000280,-0.092338576262847652
0.441000000000000281,-0.066325786254816999
0.442000000000000282,-0.041373289222272458
0.443000000000000282,-0.017470151421788982
0.444000000000000283,0.005394958241626125
0.445000000000000284,0.027233748633840760
0.446000000000000285,0.048058287113576181
0.447000000000000286,0.067880980566013840
0.448000000000000287,0.086714556756560895
0.449000000000000288,0.104572046012146952
0.450000000000000289,0.121466763236960637
0.451000000000000290,0.137412290268665582
0.452000000000000290,0.152422458580476233
0.453000000000000291,0.166511332333865475
0.454000000000000292,0.179693191785932960
0.455000000000000293,0.191982517054969881
0.456000000000000294,0.203393972247065458
0.457000000000000295,0.213942389946113615
0.458000000000000296,0.223642756068992560
0.459000000000000297,0.232510195087225036
0.460000000000000298,0.240559955615873067
0.461000000000000298,0.247807396370039568
0.462000000000000299,0.254267972488798288
0.463000000000000300,0.259957222226101459
0.464000000000000301,0.264890754007633011
0.465000000000000302,0.269084233852352916
0.466000000000000303,0.272553373157037260
0.467000000000000304,0.275313916841822603
0.468000000000000305,0.277381631854365374
0.469000000000000306,0.278772296030063260
0.470000000000000306,0.279501687305340973
0.471000000000000307,0.279585573280898170
0.472000000000000308,0.279039701131419293
0.473000000000000309,0.277879787858134997
0.474000000000000310,0.276121510880348642
0.475000000000000311,0.273780498961823771
0.476000000000000312,0.270872323467800047
0.477000000000000313,0.267412489948200327
0.478000000000000314,0.263416430042440919
0.479000000000000314,0.258899493701067185
0.480000000000000315,0.253876941719432925
0.481000000000000316,0.248363938578336330
0.482000000000000317,0.242375545586614782
0.483000000000000318,0.235926714320427056
0.484000000000000319,0.229032280354020623
0.485000000000000320,0.221706957276563088
0.486000000000000321,0.213965330989683039
0.487000000000000322,0.205821854280207883
0.488000000000000322,0.197290841662616817
0.489000000000000323,0.188386464485615857
0.490000000000000324,0.179122746297274205
0.491000000000000325,0.169513558463110725
0.492000000000000326,0.159572616031511821
0.493000000000000327,0.149313473840844424
0.494000000000000328,0.138749522862633146
0.495000000000000329,0.127893986775197949
0.496000000000000330,0.116759918762119108
0.497000000000000330,0.105360198529936583
0.498000000000000331,0.093707529539538328
0.499000000000000332,0.081814436445672462
0.500000000000000333,0.069693262739061679
0.501000000000000334,0.057356168585688927
0.502000000000000335,0.044815128857782105
0.503000000000000336,0.032081931351139445
0.504000000000000337,0.019168175183441816
0.505000000000000338,0.006085269368286722
0.506000000000000338,-0.007155568440302606
0.507000000000000339,-0.020543313038049599
0.508000000000000340,-0.034067132600380176
0.509000000000000341,-0.047716389457225700
0.510000000000000342,-0.061480640717625344
0.511000000000000343,-0.075349638749052691
0.512000000000000344,-0.089313331516293462
0.513000000000000345,-0.103361862784632663
0.514000000000000346,-0.117485572192090063
0.515000000000000346,-0.131674995195235706
0.516000000000000347,-0.145920862893191006
0.517000000000000348,-0.160214101734275055
0.518000000000000349,-0.174545833109633591
0.519000000000000350,-0.188907372838189758
0.520000000000000351,-0.203290230547143957
0.521000000000000352,-0.217686108952144602
0.522000000000000353,-0.232086903041193393
0.523000000000000353,-0.246484699166288346
0.524000000000000354,-0.260871774046668281
0.525000000000000355,-0.275240593687521184
0.526000000000000356,-0.289583812217822589
0.527000000000000357,-0.303894270651034248
0.528000000000000358,-0.318164995572192022
0.529000000000000359,-0.332389197754860366
0.530000000000000360,-0.346560270711395113
0.531000000000000361,-0.360671789179830227
0.532000000000000361,-0.374717507550624718
0.533000000000000362,-0.388691358236461004
0.534000000000000363,-0.402587449988152546
0.535000000000000364,-0.416400066159710758
0.536000000000000365,-0.430123662925458561
0.537000000000000366,-0.443752867452094080
0.538000000000000367,-0.457282476028428975
0.539000000000000368,-0.470707452155572248
0.540000000000000369,-0.484022924600114923
0.541000000000000369,-0.497224185412939668
0.542000000000000370,-0.510306687916080581
0.543000000000000371,-0.523266044660075869
0.544000000000000372,-0.536098025354160290
0.545000000000000373,-0.548798554771531277
0.546000000000000374,-0.561363710631924584
0.547000000000000375,-0.573789721463609514
0.548000000000000376,-0.586072964446898381
0.549000000000000377,-0.598209963241125520
0.550000000000000377,-0.610197385797082381
0.551000000000000378,-0.622032042156744902
0.552000000000000379,-0.633710882242115914
0.553000000000000380,-0.645230993634950289
0.554000000000000381,-0.656589599348998632
0.555000000000000382,-0.667784055596484571
0.556000000000000383,-0.678811849550287172
0.557000000000000384,-0.689670597103438698
0.558000000000000385,-0.700358040627323541
0.559000000000000385,-0.710872046730047003
0.560000000000000386,-0.721210604016262247
0.561000000000000387,-0.731371820849819332
0.562000000000000388,-0.741353923120430247
0.563000000000000389,-0.751155252015609620
0.564000000000000390,-0.760774261798968898
0.565000000000000391,-0.770209517596038729
0.566000000000000392,-0.779459693188630842
0.567000000000000393,-0.788523568818775056
0.568000000000000393,-0.797400029003170308
0.569000000000000394,-0.806088060359125280
0.570000000000000395,-0.814586749442810509
0.571000000000000396,-0.822895280600693724
0.572000000000000397,-0.831012933834988310
0.573000000000000398,-0.838939082683802240
0.574000000000000399,-0.846673192116789819
0.575000000000000400,-0.854214816446939751
0.576000000000000401,-0.861563597259167535
0.577000000000000401,-0.868719261356353023
0.578000000000000402,-0.875681618723362698
0.579000000000000403,-0.882450560509620785
0.580000000000000404,-0.889026057030777417
0.581000000000000405,-0.895408155789902738
0.582000000000000406,-0.901596979518717978
0.583000000000000407,-0.907592724239247972
0.584000000000000408,-0.913395657346321221
0.585000000000000409,-0.919006115711255900
0.586000000000000409,-0.924424503807119158
0.587000000000000410,-0.929651291855840278
0.588000000000000411,-0.934687013997463678
0.589000000000000412,-0.939532266481872158
0.590000000000000413,-0.944187705883123174
0.591000000000000414,-0.948654047336714101
0.592000000000000415,-0.952932062799929147
0.593000000000000416,-0.957022579335436996
0.594000000000000417,-0.960926477418329483
0.595000000000000417,-0.964644689266724420
0.596000000000000418,-0.968178197196021495
0.597000000000000419,-0.971528031996978014
0.598000000000000420,-0.974695271337608693
0.599000000000000421,-0.977681038189033735
0.600000000000000422,-0.980486499275298740
0.601000000000000423,-0.983112863547185967
0.602000000000000424,-0.985561380680067378
0.603000000000000425,-0.987833339595785787
0.604000000000000425,-0.989930067008525705
0.605000000000000426,-0.991852925994690215
0.606000000000000427,-0.993603314586748554
0.607000000000000428,-0.995182664390912519
0.608000000000000429,-0.996592439228758620
0.609000000000000430,-0.997834133802485090
0.610000000000000431,-0.998909272383960767
0.611000000000000432,-0.999819407527278825
0.612000000000000433,-1.000566118804799620
0.613000000000000433,-1.001151011566589144
0.614000000000000434,-1.001575715723050930
