# Ag110_CS-65596-AC
# h[nm],U(h)[kJ/mol]
0.200000000000000011,143.802412337088554750
0.201000000000000012,137.133458048533015017
0.202000000000000013,132.981543693583148524
0.203000000000000014,129.973543350382612971
0.204000000000000015,127.334478655086556387
0.205000000000000016,124.670291537265455872
0.206000000000000016,121.819260800481927731
0.207000000000000017,118.752573858437386889
0.208000000000000018,115.509659350335624595
0.209000000000000019,112.157731142694018445
0.210000000000000020,108.767881318834426452
0.211000000000000021,105.402215379700891162
0.212000000000000022,102.108121916360374826
0.213000000000000023,98.916946322131352076
0.214000000000000024,95.845197386664864325
0.215000000000000024,92.897036341027970252
0.216000000000000025,90.067240816926457114
0.217000000000000026,87.344147440803965310
0.218000000000000027,84.712291399434249684
0.219000000000000028,82.154605665594573338
0.220000000000000029,79.654136430478203579
0.221000000000000030,77.195289374747204647
0.222000000000000031,74.764654601226169461
0.223000000000000032,72.351474316942557152
0.224000000000000032,69.947822464382397811
0.225000000000000033,67.548563591548671070
0.226000000000000034,65.151152224653088751
0.227000000000000035,62.755325870133717103
0.228000000000000036,60.362735868095477088
0.229000000000000037,57.976551513967464757
0.230000000000000038,55.601064685844207247
0.231000000000000039,53.241314950247598858
0.232000000000000040,50.902748894756555842
0.233000000000000040,48.590922270136374550
0.234000000000000041,46.311249367182561798
0.235000000000000042,44.068800814485634021
0.236000000000000043,41.868148552496975867
0.237000000000000044,39.713254999541476309
0.238000000000000045,37.607402261568260826
0.239000000000000046,35.553156541604415963
0.240000000000000047,33.552362579615454763
0.241000000000000048,31.606162913213360355
0.242000000000000048,29.715036920988715963
0.243000000000000049,27.878854931591909860
0.244000000000000050,26.096943102442157425
0.245000000000000051,24.368155251347047852
0.246000000000000052,22.690948330357521456
0.247000000000000053,21.063458739302166833
0.248000000000000054,19.483577168451823525
0.249000000000000055,17.949020122728484239
0.250000000000000056,16.457396705164718753
0.251000000000000056,15.006269619770822743
0.252000000000000057,13.593209691113367299
0.253000000000000058,12.215843489376231545
0.254000000000000059,10.871893896630478338
0.255000000000000060,9.559213654776005598
0.256000000000000061,8.275812101174071955
0.257000000000000062,7.019875427881169472
0.258000000000000063,5.789780898376847063
0.259000000000000064,4.584105525578295648
0.260000000000000064,3.401629760516367007
0.261000000000000065,2.241336765922899765
0.262000000000000066,1.102407856525778440
0.263000000000000067,-0.015785318806818792
0.264000000000000068,-1.113691295967041528
0.265000000000000069,-2.191591485333982625
0.266000000000000070,-3.249614535615601429
0.267000000000000071,-4.287751913295059225
0.268000000000000071,-5.305874280394357712
0.269000000000000072,-6.303748296120000205
0.270000000000000073,-7.281053511264640399
0.271000000000000074,-8.237399067055147128
0.272000000000000075,-9.172339951702031868
0.273000000000000076,-10.085392607623010264
0.274000000000000077,-10.976049719746082900
0.275000000000000078,-11.843794050125548978
0.276000000000000079,-12.688111216122553770
0.277000000000000079,-13.508501338497874045
0.278000000000000080,-14.304489511893482501
0.279000000000000081,-15.075635073372462003
0.280000000000000082,-15.821539665010117659
0.281000000000000083,-16.541854104099435574
0.282000000000000084,-17.236284089489089411
0.283000000000000085,-17.904594785076874075
0.284000000000000086,-18.546614331712316215
0.285000000000000087,-19.162236346901600825
0.286000000000000087,-19.751421477949385519
0.287000000000000088,-20.314198078699757133
0.288000000000000089,-20.850662083039335215
0.289000000000000090,-21.360976149979279626
0.290000000000000091,-21.845368155606426086
0.291000000000000092,-22.304129106655008030
0.292000000000000093,-22.737610549043733243
0.293000000000000094,-23.146221542593011122
0.294000000000000095,-23.530425270411075900
0.295000000000000095,-23.890735348233739899
0.296000000000000096,-24.227711895425073862
0.297000000000000097,-24.541957425493460931
0.298000000000000098,-24.834112609930741655
0.299000000000000099,-25.104851965019342686
0.300000000000000100,-25.354879507035096964
0.301000000000000101,-25.584924417062048008
0.302000000000000102,-25.795736752473409581
0.303000000000000103,-25.988083238065819103
0.304000000000000103,-26.162743165889811081
0.305000000000000104,-26.320504429030290083
0.306000000000000105,-26.462159710975875271
0.307000000000000106,-26.588502848790973587
0.308000000000000107,-26.700325385084642704
0.309000000000000108,-26.798413320759742362
0.310000000000000109,-26.883544077732970834
0.311000000000000110,-26.956483678239017365
0.312000000000000111,-27.017984144973276273
0.313000000000000111,-27.068781124180070208
0.314000000000000112,-27.109591731855772423
0.315000000000000113,-27.141112621499114965
0.316000000000000114,-27.164018270299600033
0.317000000000000115,-27.178959479297098767
0.318000000000000116,-27.186562081865776719
0.319000000000000117,-27.187425853860503366
0.320000000000000118,-27.182123617905556756
0.321000000000000119,-27.171200533592365645
0.322000000000000119,-27.155173564775076045
0.323000000000000120,-27.134531114699349530
0.324000000000000121,-27.109732819360981892
0.325000000000000122,-27.081209489256810485
0.326000000000000123,-27.049363189549882946
0.327000000000000124,-27.014567448616976009
0.328000000000000125,-26.977167584968714920
0.329000000000000126,-26.937481142621937380
0.330000000000000127,-26.895798425153952138
0.331000000000000127,-26.852383118870516654
0.332000000000000128,-26.807472995766204349
0.333000000000000129,-26.761280687241658427
0.334000000000000130,-26.713994519859802779
0.335000000000000131,-26.665779404768517935
0.336000000000000132,-26.616777772782029388
0.337000000000000133,-26.567110547496831430
0.338000000000000134,-26.516878149212381288
0.339000000000000135,-26.466161522829441566
0.340000000000000135,-26.415023183307518195
0.341000000000000136,-26.363508272671090538
0.342000000000000137,-26.311645622963037994
0.343000000000000138,-26.259448819946765497
0.344000000000000139,-26.206917262757336573
0.345000000000000140,-26.154037215091126001
0.346000000000000141,-26.100782843904163144
0.347000000000000142,-26.047117241958062550
0.348000000000000143,-25.992993430910228625
0.349000000000000143,-25.938355341987886504
0.350000000000000144,-25.883138771616092555
0.351000000000000145,-25.827272309684673246
0.352000000000000146,-25.770678238439749919
0.353000000000000147,-25.713273400270292512
0.354000000000000148,-25.654970032929888646
0.355000000000000149,-25.595676570987990317
0.356000000000000150,-25.535298412543760094
0.357000000000000151,-25.473738650458727761
0.358000000000000151,-25.410898767573133483
0.359000000000000152,-25.346679295564094048
0.360000000000000153,-25.280980437283218976
0.361000000000000154,-25.213702652575832985
0.362000000000000155,-25.144747207735917982
0.363000000000000156,-25.074016688889081195
0.364000000000000157,-25.001415479721025292
0.365000000000000158,-24.926850204083677909
0.366000000000000159,-24.850230134111924940
0.367000000000000159,-24.771467564575406328
0.368000000000000160,-24.690478154270543598
0.369000000000000161,-24.607181235327779234
0.370000000000000162,-24.521500091370604935
0.371000000000000163,-24.433362205515336996
0.372000000000000164,-24.342699479243915306
0.373000000000000165,-24.249448423219092774
0.374000000000000166,-24.153550321139633184
0.375000000000000167,-24.054951367755531777
0.376000000000000167,-23.953602782179405750
0.377000000000000168,-23.849460897640117452
0.378000000000000169,-23.742487228829435963
0.379000000000000170,-23.632648517992862480
0.380000000000000171,-23.519916760910707154
0.381000000000000172,-23.404269213907326730
0.382000000000000173,-23.285688383013631864
0.383000000000000174,-23.164161996393115572
0.384000000000000175,-23.039682961122188942
0.385000000000000175,-22.912249305395050669
0.386000000000000176,-22.781864107199560010
0.387000000000000177,-22.648535410484718966
0.388000000000000178,-22.512276129813638903
0.389000000000000179,-22.373103944466151916
0.390000000000000180,-22.231041182925856958
0.391000000000000181,-22.086114698654732535
0.392000000000000182,-21.938355738026608321
0.393000000000000183,-21.787799801257996535
0.394000000000000183,-21.634486497141718786
0.395000000000000184,-21.478459392355333080
0.396000000000000185,-21.319765856082618427
0.397000000000000186,-21.158456900652915067
0.398000000000000187,-20.994587018869527384
0.399000000000000188,-20.828214018664951368
0.400000000000000189,-20.659398855688120733
0.401000000000000190,-20.488205464395640831
0.402000000000000191,-20.314700588187914576
0.403000000000000191,-20.138953609098347641
0.404000000000000192,-19.961036377514101758
0.405000000000000193,-19.781023042376034482
0.406000000000000194,-19.598989882276192986
0.407000000000000195,-19.415015137842981829
0.408000000000000196,-19.229178845775656725
0.409000000000000197,-19.041562674863342863
0.410000000000000198,-18.852249764297898338
0.411000000000000199,-18.661324564563880557
0.412000000000000199,-18.468872681165592553
0.413000000000000200,-18.274980721427354524
0.414000000000000201,-18.079736144580689228
0.415000000000000202,-17.883227115330647905
0.416000000000000203,-17.685542361073224527
0.417000000000000204,-17.486771032915491730
0.418000000000000205,-17.287002570632029830
0.419000000000000206,-17.086326571672987740
0.420000000000000207,-16.884832664321905327
0.421000000000000207,-16.682610385086132254
0.422000000000000208,-16.479749060386275517
0.423000000000000209,-16.276337692597891760
0.424000000000000210,-16.072464850484092125
0.425000000000000211,-15.868218564045445618
0.426000000000000212,-15.663686223801430941
0.427000000000000213,-15.458954484506264748
0.428000000000000214,-15.254109173291780621
0.429000000000000214,-15.049235202219668039
0.430000000000000215,-14.844416485216630264
0.431000000000000216,-14.639735859357648096
0.432000000000000217,-14.435275010454125422
0.433000000000000218,-14.231114402897057758
0.434000000000000219,-14.027333213698387482
0.435000000000000220,-13.824009270667861671
0.436000000000000221,-13.621218994656890899
0.437000000000000222,-13.419037345796052563
0.438000000000000222,-13.217537773648521338
0.439000000000000223,-13.016792171197334227
0.440000000000000224,-12.816870832581036765
0.441000000000000225,-12.617842414488791292
0.442000000000000226,-12.419773901123964066
0.443000000000000227,-12.222730572641685498
0.444000000000000228,-12.026775976964977133
0.445000000000000229,-11.831971904881726232
0.446000000000000230,-11.638378368323447631
0.447000000000000230,-11.446053581726133075
0.448000000000000231,-11.255053946372274964
0.449000000000000232,-11.065434037612769558
0.450000000000000233,-10.877246594867516549
0.451000000000000234,-10.690542514302887156
0.452000000000000235,-10.505370844085129889
0.453000000000000236,-10.321778782108500749
0.454000000000000237,-10.139811676098283044
0.455000000000000238,-9.959513025988844248
0.456000000000000238,-9.780924488478525802
0.457000000000000239,-9.604085883663595169
0.458000000000000240,-9.429035203655521613
0.459000000000000241,-9.255808623086076992
0.460000000000000242,-9.084440511407532171
0.461000000000000243,-8.914963446895571408
0.462000000000000244,-8.747408232265177830
0.463000000000000245,-8.581803911810592211
0.464000000000000246,-8.418177789983158021
0.465000000000000246,-8.256555451322054040
0.466000000000000247,-8.096960781655109685
0.467000000000000248,-7.939415990488837060
0.468000000000000249,-7.783941634509035978
0.469000000000000250,-7.630556642114899368
0.470000000000000251,-7.479278338912244806
0.471000000000000252,-7.330122474092924278
0.472000000000000253,-7.183103247630329591
0.473000000000000254,-7.038233338222283919
0.474000000000000254,-6.895523931915361615
0.475000000000000255,-6.754984751346367666
0.476000000000000256,-6.616624085539102751
0.477000000000000257,-6.480448820196633264
0.478000000000000258,-6.346464468431121553
0.479000000000000259,-6.214675201875806465
0.480000000000000260,-6.085083882125455368
0.481000000000000261,-5.957692092453653387
0.482000000000000262,-5.832500169757699915
0.483000000000000262,-5.709507236683386111
0.484000000000000263,-5.588711233884217755
0.485000000000000264,-5.470108952371496969
0.486000000000000265,-5.353696065913621460
0.487000000000000266,-5.239467163444724740
0.488000000000000267,-5.127415781444702780
0.489000000000000268,-5.017534436254605268
0.490000000000000269,-4.909814656292715185
0.491000000000000270,-4.804247014138979921
0.492000000000000270,-4.700821158456438553
0.493000000000000271,-4.599525845720632944
0.494000000000000272,-4.500348971729017933
0.495000000000000273,-4.403277602864219098
0.496000000000000274,-4.308298007086653669
0.497000000000000275,-4.215395684633016060
0.498000000000000276,-4.124555398399136763
0.499000000000000277,-4.035761203986735879
0.500000000000000222,-3.948996479395013637
0.501000000000000334,-3.864243954339451115
0.502000000000000224,-3.781485739181452921
0.503000000000000336,-3.700703353453301592
0.504000000000000226,-3.621877753964921620
0.505000000000000338,-3.544989362478910611
0.506000000000000227,-3.470018092942821930
0.507000000000000339,-3.396943378267172964
0.508000000000000229,-3.325744196640226136
0.509000000000000341,-3.256399097370215934
0.510000000000000231,-3.188886226247879652
0.511000000000000343,-3.123183350421798288
0.512000000000000233,-3.059267882781167458
0.513000000000000345,-2.997116905840373491
0.514000000000000234,-2.936707195121590175
0.515000000000000346,-2.878015242031159993
0.516000000000000236,-2.821017276227628656
0.517000000000000348,-2.765689287478793279
0.518000000000000238,-2.712007047006633531
0.519000000000000350,-2.659946128319089276
0.520000000000000240,-2.609481927528679801
0.521000000000000352,-2.560589683158192020
0.522000000000000242,-2.513244495434435954
0.523000000000000353,-2.467421345071485916
0.524000000000000243,-2.423095111545358726
0.525000000000000355,-2.380240590862478633
0.526000000000000245,-2.338832512824935872
0.527000000000000357,-2.298845557795509364
0.528000000000000247,-2.260254372966476133
0.529000000000000359,-2.223033588135849392
0.530000000000000249,-2.187157830995733576
0.531000000000000361,-2.152601741937222091
0.532000000000000250,-2.119339988377060724
0.533000000000000362,-2.087347278611132673
0.534000000000000252,-2.056598375200412665
0.535000000000000364,-2.027068107895190430
0.536000000000000254,-1.998731386103461016
0.537000000000000366,-1.971563210909707875
0.538000000000000256,-1.945538686650590154
0.539000000000000368,-1.920633032053847611
0.540000000000000258,-1.896821590947447289
0.541000000000000369,-1.874079842545535168
0.542000000000000259,-1.852383411318411222
0.543000000000000371,-1.831708076453445910
0.544000000000000261,-1.812029780914303334
0.545000000000000373,-1.793324640105579793
0.546000000000000263,-1.775568950150376413
0.547000000000000375,-1.758739195788074028
0.548000000000000265,-1.742812057899947309
0.549000000000000377,-1.727764420669963830
0.550000000000000266,-1.713573378388408841
0.551000000000000378,-1.700216241905903702
0.552000000000000268,-1.687670544745329737
0.553000000000000380,-1.675914048879278528
0.554000000000000270,-1.664924750180615032
0.555000000000000382,-1.654680883553652393
0.556000000000000272,-1.645160927753580804
0.557000000000000384,-1.636343609901485419
0.558000000000000274,-1.628207909702699352
0.559000000000000385,-1.620733063375610739
0.560000000000000275,-1.613898567298608810
0.561000000000000387,-1.607684181382315725
0.562000000000000277,-1.602069932174426281
0.563000000000000389,-1.597036115704463688
0.564000000000000279,-1.592563300075481525
0.565000000000000391,-1.588632327809920364
0.566000000000000281,-1.585224317956479334
0.567000000000000393,-1.582320667965093852
0.568000000000000282,-1.579903055336783213
0.569000000000000394,-1.577953439055123308
0.570000000000000284,-1.576454060806054436
0.571000000000000396,-1.575387445992626700
0.572000000000000286,-1.574736404551182689
0.573000000000000398,-1.574484031575287490
0.574000000000000288,-1.574613707753819369
0.575000000000000400,-1.575109099629458997
0.576000000000000290,-1.575954159683486067
0.577000000000000401,-1.577133126253149609
0.578000000000000291,-1.578630523287338105
0.579000000000000403,-1.580431159946386277
0.580000000000000293,-1.582520130051769280
0.581000000000000405,-1.584882811391257862
0.582000000000000295,-1.587504864884947464
0.583000000000000407,-1.590372233617684650
0.584000000000000297,-1.593471141742992758
0.585000000000000409,-1.596788093263869390
0.586000000000000298,-1.600309870695295400
0.587000000000000410,-1.604023533613637920
0.588000000000000300,-1.607916417097594586
0.589000000000000412,-1.611976130065589263
0.590000000000000302,-1.616190553514113670
0.591000000000000414,-1.620547838661735351
0.592000000000000304,-1.625036405002973083
0.593000000000000416,-1.629644938276566979
0.594000000000000306,-1.634362388352254003
0.595000000000000417,-1.639177967040250650
0.596000000000000307,-1.644081145827323009
0.597000000000000419,-1.649061653543557160
0.598000000000000309,-1.654109473963541577
0.599000000000000421,-1.659214843345617307
0.600000000000000311,-1.664368247912992427
0.601000000000000423,-1.669560421280118279
0.602000000000000313,-1.674782341827791843
0.603000000000000425,-1.680025230030333772
0.604000000000000314,-1.685280545738117031
0.605000000000000426,-1.690539985418528790
0.606000000000000316,-1.695795479358504831
0.607000000000000428,-1.701039188831540372
0.608000000000000318,-1.706263503232152035
0.609000000000000430,-1.711461037180524780
0.610000000000000320,-1.716624627600057185
0.611000000000000432,-1.721747330770513118
0.612000000000000322,-1.726822419359224536
0.613000000000000433,-1.731843379432909558
0.614000000000000323,-1.736803907452440399
0.615000000000000435,-1.741697907252924171
0.616000000000000325,-1.746519487011228833
0.617000000000000437,-1.751262956203278431
0.618000000000000327,-1.755922822553051876
0.619000000000000439,-1.760493788975380225
0.620000000000000329,-1.764970750514478937
0.621000000000000441,-1.769348791280073385
0.622000000000000330,-1.773623181382940173
0.623000000000000442,-1.777789373871609513
0.624000000000000332,-1.781843001671839843
0.625000000000000444,-1.785779874530627698
0.626000000000000334,-1.789595975966095320
0.627000000000000446,-1.793287460224949559
0.628000000000000336,-1.796850649248781240
0.629000000000000448,-1.800282029650689397
0.630000000000000338,-1.803578249703446712
0.631000000000000449,-1.806736116340575293
0.632000000000000339,-1.809752592171427477
0.633000000000000451,-1.812624792511505989
0.634000000000000341,-1.815349982429043108
0.635000000000000453,-1.817925573809046513
0.636000000000000343,-1.820349122435535705
0.637000000000000455,-1.822618325093273484
0.638000000000000345,-1.824731016689572938
0.639000000000000457,-1.826685167397263054
0.640000000000000346,-1.828478879819520397
0.641000000000000458,-1.830110386177404624
0.642000000000000348,-1.831578045520753095
0.643000000000000460,-1.832880340963224608
0.644000000000000350,-1.834015876942057588
0.645000000000000462,-1.834983376503234398
0.646000000000000352,-1.835781678612528278
0.647000000000000464,-1.836409735493109041
0.648000000000000353,-1.836866609990091659
0.649000000000000465,-1.837151472962565535
0.650000000000000355,-1.837263600703538557
0.651000000000000467,-1.837202372388162086
0.652000000000000357,-1.836967267550696947
0.653000000000000469,-1.836557863590444040
0.654000000000000359,-1.835973833307111391
0.655000000000000471,-1.835214942465740462
0.656000000000000361,-1.834281047391596031
0.657000000000000473,-1.833172092595162894
0.658000000000000362,-1.831888108427514483
