# Ag110_CS-64234-AC
# h[nm],U(h)[kJ/mol]
0.149999999999999994,153.670482906519737298
0.150999999999999995,148.884776275072653107
0.151999999999999996,145.596961763106889975
0.152999999999999997,142.664021641229652460
0.153999999999999998,139.678952993344921651
0.154999999999999999,136.572839949714705199
0.156000000000000000,133.403676594187857063
0.157000000000000001,130.253631979090812365
0.158000000000000002,127.186476229681417749
0.159000000000000002,124.236189083888206142
0.160000000000000003,121.409970556932833574
0.161000000000000004,118.696419506379442055
0.162000000000000005,116.074186706234925737
0.163000000000000006,113.519040874567735955
0.164000000000000007,111.008730681816317087
0.165000000000000008,108.525752056064789031
0.166000000000000009,106.058437913708715428
0.167000000000000010,103.600864582639559330
0.168000000000000010,101.152030192312878398
0.169000000000000011,98.714672533903481622
0.170000000000000012,96.293994882157079473
0.171000000000000013,93.896477185227510631
0.172000000000000014,91.528875096838689274
0.173000000000000015,89.197452574955178761
0.174000000000000016,86.907453988217596930
0.175000000000000017,84.662796184479859107
0.176000000000000018,82.465946689723381269
0.177000000000000018,80.317948158396959002
0.178000000000000019,78.218548823846475671
0.179000000000000020,76.166401926250131282
0.180000000000000021,74.159302338106968477
0.181000000000000022,72.194434710579386660
0.182000000000000023,70.268613636548650447
0.183000000000000024,68.378502063485299800
0.184000000000000025,66.520799203699539248
0.185000000000000026,64.692393351098459675
0.186000000000000026,62.890478300573178672
0.187000000000000027,61.112634527034266796
0.188000000000000028,59.356878005567239143
0.189000000000000029,57.621680652027691849
0.190000000000000030,55.905966950013713301
0.191000000000000031,54.209091516830639534
0.192000000000000032,52.530802249130054804
0.193000000000000033,50.871193366622605936
0.194000000000000034,49.230652213677394968
0.195000000000000034,47.609803143655184954
0.196000000000000035,46.009451246299803984
0.197000000000000036,44.430528119524147712
0.198000000000000037,42.874041358516237210
0.199000000000000038,41.341028953914033650
0.200000000000000039,39.832519366741401257
0.201000000000000040,38.349497685444461581
0.202000000000000041,36.892877970293447731
0.203000000000000042,35.463481650288251501
0.204000000000000042,34.062021653201092874
0.205000000000000043,32.689091814940901770
0.206000000000000044,31.345161023787976973
0.207000000000000045,30.030571501773426490
0.208000000000000046,28.745540603213648012
0.209000000000000047,27.490165513149907639
0.210000000000000048,26.264430250670216083
0.211000000000000049,25.068214418875971461
0.212000000000000050,23.901303190284345135
0.213000000000000050,22.763398070061235501
0.214000000000000051,21.654128036578718763
0.215000000000000052,20.573060716896499400
0.216000000000000053,19.519713311896559560
0.217000000000000054,18.493563040443763867
0.218000000000000055,17.494056922995007142
0.219000000000000056,16.520620771779825020
0.220000000000000057,15.572667296552944904
0.221000000000000058,14.649603271758858014
0.222000000000000058,13.750835742701955411
0.223000000000000059,12.875777275114746345
0.224000000000000060,12.023850274581823427
0.225000000000000061,11.194490419926886204
0.226000000000000062,10.387149268272203528
0.227000000000000063,9.601296099435348452
0.228000000000000064,8.836419074055942957
0.229000000000000065,8.092025783759218882
0.230000000000000066,7.367643273176165408
0.231000000000000066,6.662817613133040773
0.232000000000000067,5.977113102165334091
0.233000000000000068,5.310111170031434291
0.234000000000000069,4.661409052405177889
0.235000000000000070,4.030618300681743982
0.236000000000000071,3.417363185077237464
0.237000000000000072,2.821279043141209364
0.238000000000000073,2.242010619612149647
0.239000000000000073,1.679210437374222042
0.240000000000000074,1.132537233236728280
0.241000000000000075,0.601654486458752524
0.242000000000000076,0.086229062449958815
0.243000000000000077,-0.414070011047254549
0.244000000000000078,-0.899572622709046699
0.245000000000000079,-1.370608503020793512
0.246000000000000080,-1.827507991860502612
0.247000000000000081,-2.270602647233458171
0.248000000000000081,-2.700225697081379828
0.249000000000000082,-3.116712338630652557
0.250000000000000111,-3.520399891879644194
0.251000000000000112,-3.911627815576392386
0.252000000000000113,-4.290737595434331197
0.253000000000000114,-4.658072515397509328
0.254000000000000115,-5.013977323534465569
0.255000000000000115,-5.358797804633786299
0.256000000000000116,-5.692880271829483974
0.257000000000000117,-6.016570989626607080
0.258000000000000118,-6.330215540554812392
0.259000000000000119,-6.634158147378542481
0.260000000000000120,-6.928740962360327771
0.261000000000000121,-7.214303334531743772
0.262000000000000122,-7.491181065298317954
0.263000000000000123,-7.759705662007370108
0.264000000000000123,-8.020203598361863584
0.265000000000000124,-8.272995589782736303
0.266000000000000125,-8.518395891023178734
0.267000000000000126,-8.756711622531657468
0.268000000000000127,-8.988242131259170264
0.269000000000000128,-9.213278390817487562
0.270000000000000129,-9.432102445128723645
0.271000000000000130,-9.644986898968557654
0.272000000000000131,-9.852194458100466790
0.273000000000000131,-10.053977521031908893
0.274000000000000132,-10.250577823797794252
0.275000000000000133,-10.442226138594699947
0.276000000000000134,-10.629142026552496958
0.277000000000000135,-10.811533644438474866
0.278000000000000136,-10.989597604644597340
0.279000000000000137,-11.163518887408631741
0.280000000000000138,-11.333470803865235865
0.281000000000000139,-11.499615008212185074
0.282000000000000139,-11.662101557007698460
0.283000000000000140,-11.821069013386058089
0.284000000000000141,-11.976644593788069670
0.285000000000000142,-12.128944354648513837
0.286000000000000143,-12.278073416361968029
0.287000000000000144,-12.424126221758962529
0.288000000000000145,-12.567186826264869381
0.289000000000000146,-12.707329216879747591
0.290000000000000147,-12.844617657109040465
0.291000000000000147,-12.979107054987437664
0.292000000000000148,-13.110843351371622489
0.293000000000000149,-13.239863925727380689
0.294000000000000150,-13.366198016702833584
0.295000000000000151,-13.489867154858917075
0.296000000000000152,-13.610885605019102940
0.297000000000000153,-13.729260815801225704
0.298000000000000154,-13.844993874003208134
0.299000000000000155,-13.958079961630133425
0.300000000000000155,-14.068508813470524288
0.301000000000000156,-14.176265173254250840
0.302000000000000157,-14.281329246551569767
0.303000000000000158,-14.383677148701059068
0.304000000000000159,-14.483281346183261462
0.305000000000000160,-14.580111089985155814
0.306000000000000161,-14.674132839627773706
0.307000000000000162,-14.765310676654513244
0.308000000000000163,-14.853606706500025680
0.309000000000000163,-14.938981447779042355
0.310000000000000164,-15.021394208150383065
0.311000000000000165,-15.100803446022629473
0.312000000000000166,-15.177167117475899971
0.313000000000000167,-15.250443007876274493
0.314000000000000168,-15.320589047757744439
0.315000000000000169,-15.387563612639112876
0.316000000000000170,-15.451325806531395202
0.317000000000000171,-15.511835728973613513
0.318000000000000171,-15.569054725512373238
0.319000000000000172,-15.622945621613189005
0.320000000000000173,-15.673472940058186254
0.321000000000000174,-15.720603101947247637
0.322000000000000175,-15.764304611476555706
0.323000000000000176,-15.804548224720965877
0.324000000000000177,-15.841307102693965803
0.325000000000000178,-15.874556949001723538
0.326000000000000179,-15.904276132447012770
0.327000000000000179,-15.930445794972062146
0.328000000000000180,-15.953049945360239903
0.329000000000000181,-15.972075539142839062
0.330000000000000182,-15.987512545179146883
0.331000000000000183,-15.999353999398072901
0.332000000000000184,-16.007596046204547235
0.333000000000000185,-16.012237968066980187
0.334000000000000186,-16.013282203811847637
0.335000000000000187,-16.010734356158092595
0.336000000000000187,-16.004603189029118937
0.337000000000000188,-15.994900615181245840
0.338000000000000189,-15.981641674688500387
0.339000000000000190,-15.964844504820542070
0.340000000000000191,-15.944530301846858933
0.341000000000000192,-15.920723275294923482
0.342000000000000193,-15.893450595182184060
0.343000000000000194,-15.862742332733848372
0.344000000000000195,-15.828631395087617406
0.345000000000000195,-15.791153454476809515
0.346000000000000196,-15.750346872370016627
0.347000000000000197,-15.706252619033623574
0.348000000000000198,-15.658914188969552228
0.349000000000000199,-15.608377512666328002
0.350000000000000200,-15.554690865087275498
0.351000000000000201,-15.497904771303932847
0.352000000000000202,-15.438071909667831605
0.353000000000000203,-15.375247012897741428
0.354000000000000203,-15.309486767443672761
0.355000000000000204,-15.240849711472790773
0.356000000000000205,-15.169396131806539785
0.357000000000000206,-15.095187960122121495
0.358000000000000207,-15.018288668715277012
0.359000000000000208,-14.938763166105960778
0.360000000000000209,-14.856677692752393583
0.361000000000000210,-14.772099717123793994
0.362000000000000210,-14.685097832366590609
0.363000000000000211,-14.595741653784397585
0.364000000000000212,-14.504101717337164246
0.365000000000000213,-14.410249379350563714
0.366000000000000214,-14.314256717613115910
0.367000000000000215,-14.216196434024695350
0.368000000000000216,-14.116141758947165386
0.369000000000000217,-14.014166357395017926
0.370000000000000218,-13.910344237191869965
0.371000000000000218,-13.804749659206379420
0.372000000000000219,-13.697457049770232373
0.373000000000000220,-13.588540915369520690
0.374000000000000221,-13.478075759690549162
0.375000000000000222,-13.366136003090707263
0.376000000000000223,-13.252795904555881634
0.377000000000000224,-13.138129486196229223
0.378000000000000225,-13.022210460323702108
0.379000000000000226,-12.905112159146131745
0.380000000000000226,-12.786907467105226743
0.381000000000000227,-12.667668755877629749
0.382000000000000228,-12.547467822052015052
0.383000000000000229,-12.426375827487904147
0.384000000000000230,-12.304463242355677011
0.385000000000000231,-12.181799790851963294
0.386000000000000232,-12.058454399578220517
0.387000000000000233,-11.934495148565973821
0.388000000000000234,-11.809989224926844997
0.389000000000000234,-11.685002879101514139
0.390000000000000235,-11.559601383677229336
0.391000000000000236,-11.433848994740145599
0.392000000000000237,-11.307808915724795185
0.393000000000000238,-11.181543263720413961
0.394000000000000239,-11.055113038190299335
0.395000000000000240,-10.928578092058369720
0.396000000000000241,-10.801997105114336861
0.397000000000000242,-10.675427559686850643
0.398000000000000242,-10.548925718532391471
0.399000000000000243,-10.422546604885631893
0.400000000000000244,-10.296343984615818457
0.401000000000000245,-10.170370350432582640
0.402000000000000246,-10.044676908083292943
0.403000000000000247,-9.919313564483365653
0.404000000000000248,-9.794328917720443783
0.405000000000000249,-9.669770248872570306
0.406000000000000250,-9.545683515580316580
0.407000000000000250,-9.422113347312594200
0.408000000000000251,-9.299103042265773666
0.409000000000000252,-9.176694565835914474
0.410000000000000253,-9.054928550603893456
0.411000000000000254,-8.933844297773779530
0.412000000000000255,-8.813479780004938036
0.413000000000000256,-8.693871645579113405
0.414000000000000257,-8.575055223843978780
0.415000000000000258,-8.457064531875763791
0.416000000000000258,-8.339932282303848865
0.417000000000000259,-8.223689892241356603
0.418000000000000260,-8.108367493266490200
0.419000000000000261,-7.993993942400337005
0.420000000000000262,-7.880596834027815412
0.421000000000000263,-7.768202512709551755
0.422000000000000264,-7.656836086833394006
0.423000000000000265,-7.546521443055432599
0.424000000000000266,-7.437281261481755834
0.425000000000000266,-7.329137031542821035
0.426000000000000267,-7.222109068514038555
0.427000000000000268,-7.116216530637059279
0.428000000000000269,-7.011477436797498797
0.429000000000000270,-6.907908684716277392
0.430000000000000271,-6.805526069612575668
0.431000000000000272,-6.704344303298168661
0.432000000000000273,-6.604377033663681118
0.433000000000000274,-6.505636864518879570
0.434000000000000274,-6.408135375750132035
0.435000000000000275,-6.311883143759581927
0.436000000000000276,-6.216889762151774690
0.437000000000000277,-6.123163862634483756
0.438000000000000278,-6.030713136102102467
0.439000000000000279,-5.939544353870848781
0.440000000000000280,-5.849663389036241057
0.441000000000000281,-5.761075237924676351
0.442000000000000282,-5.673784041611932949
0.443000000000000282,-5.587793107482509569
0.444000000000000283,-5.503104930805062800
0.445000000000000284,-5.419721216300112943
0.446000000000000285,-5.337642899677140562
0.447000000000000286,-5.256870169119840064
0.448000000000000287,-5.177402486698439610
0.449000000000000288,-5.099238609689937363
0.450000000000000289,-5.022376611787326972
0.451000000000000290,-4.946813904180394239
0.452000000000000290,-4.872547256491325030
0.453000000000000291,-4.799572817549351278
0.454000000000000292,-4.727886135989649574
0.455000000000000293,-4.657482180662399607
0.456000000000000294,-4.588355360838969332
0.457000000000000295,-4.520499546202855434
0.458000000000000296,-4.453908086613880712
0.459000000000000297,-4.388573831634928091
0.460000000000000298,-4.324489149811208577
0.461000000000000298,-4.261645947692842107
0.462000000000000299,-4.200035688592192784
0.463000000000000300,-4.139649411068047513
0.464000000000000301,-4.080477747129516608
0.465000000000000302,-4.022510940153052772
0.466000000000000303,-3.965738862506571483
0.467000000000000304,-3.910151032875366806
0.468000000000000305,-3.855736633285051340
0.469000000000000306,-3.802484525817136696
0.470000000000000306,-3.750383269013712884
0.471000000000000307,-3.699421133967786712
0.472000000000000308,-3.649586120096750541
0.473000000000000309,-3.600865970596505150
0.474000000000000310,-3.553248187574566508
0.475000000000000311,-3.506720046860579032
0.476000000000000312,-3.461268612493454189
0.477000000000000313,-3.416880750884224938
0.478000000000000314,-3.373543144654597370
0.479000000000000314,-3.331242306151213306
0.480000000000000315,-3.289964590636007991
0.481000000000000316,-3.249696209153517312
0.482000000000000317,-3.210423241076073797
0.483000000000000318,-3.172131646328306687
0.484000000000000319,-3.134807277292493755
0.485000000000000320,-3.098435890396685544
0.486000000000000321,-3.063003157387640396
0.487000000000000322,-3.028494676290936383
0.488000000000000322,-2.994895982060732820
0.489000000000000323,-2.962192556922066178
0.490000000000000324,-2.930369840408414639
0.491000000000000325,-2.899413239097799799
0.492000000000000326,-2.869308136050553237
0.493000000000000327,-2.840039899952266467
0.494000000000000328,-2.811593893965427249
0.495000000000000329,-2.783955484293434868
0.496000000000000330,-2.757110048460790885
0.497000000000000330,-2.731042983313415107
0.498000000000000331,-2.705739712743033820
0.499000000000000332,-2.681185695139827629
0.500000000000000333,-2.657366430577474681
0.501000000000000334,-2.634267467734828561
0.502000000000000335,-2.611874410558626458
0.503000000000000336,-2.590172924671570343
0.504000000000000337,-2.569148743530198509
0.505000000000000338,-2.548787674337072762
0.506000000000000338,-2.529075603711771869
0.507000000000000339,-2.509998503125227209
0.508000000000000340,-2.491542434101982728
0.509000000000000341,-2.473693553194994621
0.510000000000000342,-2.456438116737510224
0.511000000000000343,-2.439762485376695711
0.512000000000000344,-2.423653128393577383
0.513000000000000345,-2.408096627813921309
0.514000000000000346,-2.393079682314697365
0.515000000000000346,-2.378589110930609873
0.516000000000000347,-2.364611856565354220
0.517000000000000348,-2.351134989312185120
0.518000000000000349,-2.338145709588177468
0.519000000000000350,-2.325631351086849374
0.520000000000000351,-2.313579383553528324
0.521000000000000352,-2.301977415387931991
0.522000000000000353,-2.290813196078360647
0.523000000000000353,-2.280074618471851888
0.524000000000000354,-2.269749720884678634
0.525000000000000355,-2.259826689057415017
0.526000000000000356,-2.250293857958819643
0.527000000000000357,-2.241139713442781733
0.528000000000000358,-2.232352893762365120
0.529000000000000359,-2.223922190945165411
0.530000000000000360,-2.215836552033899842
0.531000000000000361,-2.208085080196317662
0.532000000000000361,-2.200657035708263543
0.533000000000000362,-2.193541836813857948
0.534000000000000363,-2.186729060466535035
0.535000000000000364,-2.180208442954728376
0.536000000000000365,-2.173969880415911327
0.537000000000000366,-2.168003429242596258
0.538000000000000367,-2.162299306383888897
0.539000000000000368,-2.156847889546134933
0.540000000000000369,-2.151639717296052190
0.541000000000000369,-2.146665489069801591
0.542000000000000370,-2.141916065091298726
0.543000000000000371,-2.137382466203006093
0.544000000000000372,-2.133055873612490494
0.545000000000000373,-2.128927628557781393
0.546000000000000374,-2.124989231894695241
0.547000000000000375,-2.121232343609078086
0.548000000000000376,-2.117648782256995155
0.549000000000000377,-2.114230524335674488
0.550000000000000377,-2.110969703588072566
0.551000000000000378,-2.107858610243858344
0.552000000000000379,-2.104889690199457153
0.553000000000000380,-2.102055544139857624
0.554000000000000381,-2.099348926604717835
0.555000000000000382,-2.096762745001350403
0.556000000000000383,-2.094290058566966817
0.557000000000000384,-2.091924077282690142
0.558000000000000385,-2.089658160741577397
0.559000000000000385,-2.087485816973031927
0.560000000000000386,-2.085400701225751163
0.561000000000000387,-2.083396614711448436
0.562000000000000388,-2.081467503311441369
0.563000000000000389,-2.079607456248159014
0.564000000000000390,-2.077810704723580759
0.565000000000000391,-2.076071620526579675
0.566000000000000392,-2.074384714611027469
0.567000000000000393,-2.072744635646559530
0.568000000000000393,-2.071146168543737343
0.569000000000000394,-2.069584232955409941
0.570000000000000395,-2.068053881755920198
0.571000000000000396,-2.066550299499819499
0.572000000000000397,-2.065068800861715292
0.573000000000000398,-2.063604829058717005
0.574000000000000399,-2.062153954257084809
0.575000000000000400,-2.060711871964451269
0.576000000000000401,-2.059274401409056932
0.577000000000000401,-2.057837483907383636
0.578000000000000402,-2.056397181221477855
0.579000000000000403,-2.054949673907215058
0.580000000000000404,-2.053491259654832923
0.581000000000000405,-2.052018351622818315
0.582000000000000406,-2.050527476766371038
0.583000000000000407,-2.049015274161543498
0.584000000000000408,-2.047478493326107873
0.585000000000000409,-2.045913992538210380
0.586000000000000409,-2.044318737153814514
0.587000000000000410,-2.042689797923883610
0.588000000000000411,-2.041024349312221542
0.589000000000000412,-2.039319667814905479
0.590000000000000413,-2.037573130282102962
0.591000000000000414,-2.035782212243165468
0.592000000000000415,-2.033944486235751192
0.593000000000000416,-2.032057620139740894
0.594000000000000417,-2.030119375516692415
0.595000000000000417,-2.028127605955526658
0.596000000000000418,-2.026080255425096066
0.597000000000000419,-2.023975356634323042
0.598000000000000420,-2.021811029400450543
0.599000000000000421,-2.019585479026078545
0.600000000000000422,-2.017296994685455758
0.601000000000000423,-2.014943947820630576
0.602000000000000424,-2.012524790547923992
0.603000000000000425,-2.010038054075244496
0.604000000000000425,-2.007482347130659317
0.605000000000000426,-2.004856354402684282
0.606000000000000427,-2.002158834992750602
0.607000000000000428,-1.999388620880086176
0.608000000000000429,-1.996544615399634681
0.609000000000000430,-1.993625791733052655
0.610000000000000431,-1.990631191413409384
