# Ag110_CS-10309795-AC
# h[nm],U(h)[kJ/mol]
0.149999999999999994,157.828574913117847700
0.150999999999999995,152.789827836138840667
0.151999999999999996,148.977968275717927327
0.152999999999999997,145.453186435851677061
0.153999999999999998,141.884119099360958671
0.154999999999999999,138.219229262370447486
0.156000000000000000,134.511861881994349233
0.157000000000000001,130.834823770734033133
0.158000000000000002,127.244820846600987352
0.159000000000000002,123.772864472073550246
0.160000000000000003,120.426758038024757980
0.161000000000000004,117.197980937743565732
0.162000000000000005,114.069036130713612920
0.163000000000000006,111.019511116637801251
0.164000000000000007,108.030308685503769084
0.165000000000000008,105.086116622291683598
0.166000000000000009,102.176450488924615456
0.167000000000000010,99.295675276848328394
0.168000000000000010,96.442384855601019922
0.169000000000000011,93.618448786265673789
0.170000000000000012,90.827955736478173776
0.171000000000000013,88.076207744871922500
0.172000000000000014,85.368857151266453798
0.173000000000000015,82.711230142069922522
0.174000000000000016,80.107846802305218148
0.175000000000000017,77.562125282731841480
0.176000000000000018,75.076244737982790411
0.177000000000000018,72.651135687662772966
0.178000000000000019,70.286565309383504996
0.179000000000000020,67.981287184150957614
0.180000000000000021,65.733228859977970160
0.181000000000000022,63.539695307943610203
0.182000000000000023,61.397571239474281413
0.183000000000000024,59.303509893203269598
0.184000000000000025,57.254100023446405032
0.185000000000000026,55.246006301286840312
0.186000000000000026,53.276081137095488316
0.187000000000000027,51.341448074627805909
0.188000000000000028,49.439558453306382546
0.189000000000000029,47.568224068069618227
0.190000000000000030,45.725629163462734539
0.191000000000000031,43.910325367439682509
0.192000000000000032,42.121213181137207471
0.193000000000000033,40.357513464788482338
0.194000000000000034,38.618732057420530168
0.195000000000000034,36.904620288636373004
0.196000000000000035,35.215133723971547397
0.197000000000000036,33.550391061093371547
0.198000000000000037,31.910634684456955057
0.199000000000000038,30.296194006109544716
0.200000000000000039,28.707452379737055992
0.201000000000000040,27.144818078937976935
0.202000000000000041,25.608699580856345790
0.203000000000000042,24.099485191955466235
0.204000000000000042,22.617526891333941563
0.205000000000000043,21.163128144878982084
0.206000000000000044,19.736535356325585866
0.207000000000000045,18.337932564249474154
0.208000000000000046,16.967438962431163674
0.209000000000000047,15.625108810329999542
0.210000000000000048,14.310933306350246852
0.211000000000000049,13.024844015317853518
0.212000000000000050,11.766717469702161480
0.213000000000000050,10.536380598677030918
0.214000000000000051,9.333616677617984081
0.215000000000000052,8.158171531027635481
0.216000000000000053,7.009759762508937619
0.217000000000000054,5.888070824970037975
0.218000000000000055,4.792774781769034931
0.219000000000000056,3.723527644294347461
0.220000000000000057,2.679976203054216466
0.221000000000000058,1.661762297461174542
0.222000000000000058,0.668526494016272843
0.223000000000000059,-0.300088836441755491
0.224000000000000060,-1.244437034254535446
0.225000000000000061,-2.164865236822065331
0.226000000000000062,-3.061713001220296437
0.227000000000000063,-3.935311421479654292
0.228000000000000064,-4.785982692449511688
0.229000000000000065,-5.614040068345754086
0.230000000000000066,-6.419788162118251762
0.231000000000000066,-7.203523531404878000
0.232000000000000067,-7.965535497782565422
0.233000000000000068,-8.706107148038746857
0.234000000000000069,-9.425516469036267608
0.235000000000000070,-10.124037571227461285
0.236000000000000071,-10.801941959803967208
0.237000000000000072,-11.459499816692016338
0.238000000000000073,-12.096981260976582107
0.239000000000000073,-12.714657559747639226
0.240000000000000074,-13.312802265714779537
0.241000000000000075,-13.891692262146989378
0.242000000000000076,-14.451608699706946837
0.243000000000000077,-14.992837813514023892
0.244000000000000078,-15.515671612252194933
0.245000000000000079,-16.020408434316934176
0.246000000000000080,-16.507353368853767250
0.247000000000000081,-16.976818542078184748
0.248000000000000081,-17.429123271480428059
0.249000000000000082,-17.864594092419029181
0.250000000000000111,-18.283564663205943646
0.251000000000000112,-18.686375556096699313
0.252000000000000113,-19.073373942643620182
0.253000000000000114,-19.444913182661689888
0.254000000000000115,-19.801352326624986233
0.255000000000000115,-20.143055541669689035
0.256000000000000116,-20.470391471555469565
0.257000000000000117,-20.783732540948903988
0.258000000000000118,-21.083454214261344362
0.259000000000000119,-21.369934219021160970
0.260000000000000120,-21.643551743404053411
0.261000000000000121,-21.904686617102377966
0.262000000000000122,-22.153718484204183881
0.263000000000000123,-22.391025976186732294
0.264000000000000123,-22.616985892525111268
0.265000000000000124,-22.831972395783434848
0.266000000000000125,-23.036356227407473796
0.267000000000000126,-23.230503949782026041
0.268000000000000127,-23.414777219463694280
0.269000000000000128,-23.589532095855670235
0.270000000000000129,-23.755118388963833098
0.271000000000000130,-23.911879049267579234
0.272000000000000131,-24.060149602158308113
0.273000000000000131,-24.200257628847118951
0.274000000000000132,-24.332522295124270784
0.275000000000000133,-24.457253928867718429
0.276000000000000134,-24.574753646747993230
0.277000000000000135,-24.685313030162554071
0.278000000000000136,-24.789213850055570987
0.279000000000000137,-24.886727839937684337
0.280000000000000138,-24.978116516114305057
0.281000000000000139,-25.063631043860844727
0.282000000000000139,-25.143512148045743970
0.283000000000000140,-25.217990066498138901
0.284000000000000141,-25.287284544243036066
0.285000000000000142,-25.351604866583080877
0.286000000000000143,-25.411149928889336991
0.287000000000000144,-25.466108340872622762
0.288000000000000145,-25.516658563041044516
0.289000000000000146,-25.562969073004062182
0.290000000000000147,-25.605198559260276880
0.291000000000000147,-25.643496140100019431
0.292000000000000148,-25.678001605265830420
0.293000000000000149,-25.708845678039757843
0.294000000000000150,-25.736150295466615034
0.295000000000000151,-25.760028904474104650
0.296000000000000152,-25.780586771712300731
0.297000000000000153,-25.797921305006390469
0.298000000000000154,-25.812122384394456276
0.299000000000000155,-25.823272700807212487
0.300000000000000155,-25.831448100535908452
0.301000000000000156,-25.836717933728596819
0.302000000000000157,-25.839145405251549903
0.303000000000000158,-25.838787926351262314
0.304000000000000159,-25.835697465652735616
0.305000000000000160,-25.829920898129483220
0.306000000000000161,-25.821500350781473543
0.307000000000000162,-25.810473543856325307
0.308000000000000163,-25.796874126546505579
0.309000000000000163,-25.780732006191961148
0.310000000000000164,-25.762073670110765988
0.311000000000000165,-25.740922499271629675
0.312000000000000166,-25.717299073110133634
0.313000000000000167,-25.691221464875486191
0.314000000000000168,-25.662705526975877035
0.315000000000000169,-25.631765165868365841
0.316000000000000170,-25.598412606113587486
0.317000000000000171,-25.562658643285679716
0.318000000000000171,-25.524512885494111458
0.319000000000000172,-25.483983983337342494
0.320000000000000173,-25.441079848166125998
0.321000000000000174,-25.395807858589620309
0.322000000000000175,-25.348175055208407969
0.323000000000000176,-25.298188323605540262
0.324000000000000177,-25.245854565670793335
0.325000000000000178,-25.191180859372455103
0.326000000000000179,-25.134174607128645818
0.327000000000000179,-25.074843672962153107
0.328000000000000180,-25.013196508653301464
0.329000000000000181,-24.949242269132277272
0.330000000000000182,-24.882990917375174433
0.331000000000000183,-24.814453319090386429
0.332000000000000184,-24.743641327498643534
0.333000000000000185,-24.670567858526830207
0.334000000000000186,-24.595246956748333389
0.335000000000000187,-24.517693852413479760
0.336000000000000187,-24.437925009922999209
0.337000000000000188,-24.355958168103367001
0.338000000000000189,-24.271812372648405187
0.339000000000000190,-24.185508001094422781
0.340000000000000191,-24.097066780697268484
0.341000000000000192,-24.006511799580589894
0.342000000000000193,-23.913867511522035159
0.343000000000000194,-23.819159734742648027
0.344000000000000195,-23.722415645059918177
0.345000000000000195,-23.623663763761008738
0.346000000000000196,-23.522933940546081999
0.347000000000000197,-23.420257331885835583
0.348000000000000198,-23.315666375129431742
0.349000000000000199,-23.209194758691161553
0.350000000000000200,-23.100877388635915111
0.351000000000000201,-22.990750351973929355
0.352000000000000202,-22.878850876966140504
0.353000000000000203,-22.765217290731641242
0.354000000000000203,-22.649888974438319167
0.355000000000000204,-22.532906316347698805
0.356000000000000205,-22.414310662974195054
0.357000000000000206,-22.294144268608761195
0.358000000000000207,-22.172450243445418039
0.359000000000000208,-22.049272500539366604
0.360000000000000209,-21.924655701813833275
0.361000000000000210,-21.798645203322539743
0.362000000000000210,-21.671286999963875530
0.363000000000000211,-21.542627669832590698
0.364000000000000212,-21.412714318384171719
0.365000000000000213,-21.281594522577133688
0.366000000000000214,-21.149316275148315469
0.367000000000000215,-21.015927929166586807
0.368000000000000216,-20.881478143000705927
0.369000000000000217,-20.746015825827853973
0.370000000000000218,-20.609590083800295446
0.371000000000000218,-20.472250166978660957
0.372000000000000219,-20.334045417131985545
0.373000000000000220,-20.195025216496468090
0.374000000000000221,-20.055238937576653768
0.375000000000000222,-19.914735894065334065
0.376000000000000223,-19.773565292950959105
0.377000000000000224,-19.631776187874400819
0.378000000000000225,-19.489417433789874678
0.379000000000000226,-19.346537642978532290
0.380000000000000226,-19.203185142457193990
0.381000000000000227,-19.059407932818068332
0.382000000000000228,-18.915253648530793384
0.383000000000000229,-18.770769519731736352
0.384000000000000230,-18.626002335520901454
0.385000000000000231,-18.480998408782294717
0.386000000000000232,-18.335803542538286592
0.387000000000000233,-18.190462997845095572
0.388000000000000234,-18.045021463231758929
0.389000000000000234,-17.899523025681983057
0.390000000000000235,-17.754011143153817898
0.391000000000000236,-17.608528618629794238
0.392000000000000237,-17.463117575686247562
0.393000000000000238,-17.317819435568409858
0.394000000000000239,-17.172674895754578728
0.395000000000000240,-17.027723909990928775
0.396000000000000241,-16.883005669775727142
0.397000000000000242,-16.738558587269903200
0.398000000000000242,-16.594420279609270352
0.399000000000000243,-16.450627554591640944
0.400000000000000244,-16.307216397710721623
0.401000000000000245,-16.164221960507500597
0.402000000000000246,-16.021678550208385161
0.403000000000000247,-15.879619620618205644
0.404000000000000248,-15.738077764235749001
0.405000000000000249,-15.597084705558122764
0.406000000000000250,-15.456671295539953448
0.407000000000000250,-15.316867507172748475
0.408000000000000251,-15.177702432149198231
0.409000000000000252,-15.039204278577182450
0.410000000000000253,-14.901400369707479499
0.411000000000000254,-14.764317143639624774
0.412000000000000255,-14.627980153969755150
0.413000000000000256,-14.492414071344763116
0.414000000000000257,-14.357642685886656153
0.415000000000000258,-14.223688910451794953
0.416000000000000258,-14.090574784689277266
0.417000000000000259,-13.958321479863553094
0.418000000000000260,-13.826949304406340957
0.419000000000000261,-13.696477710163375008
0.420000000000000262,-13.566925299302189600
0.421000000000000263,-13.438309831847316644
0.422000000000000264,-13.310648233809896368
0.423000000000000265,-13.183956605879284751
0.424000000000000266,-13.058250232645036704
0.425000000000000266,-12.933543592317695570
0.426000000000000267,-12.809850366918089648
0.427000000000000268,-12.687183452905109959
0.428000000000000269,-12.565554972212748197
0.429000000000000270,-12.444976283667939398
0.430000000000000271,-12.325457994761269021
0.431000000000000272,-12.207009973743625508
0.432000000000000273,-12.089641362022243598
0.433000000000000274,-11.973360586830814611
0.434000000000000274,-11.858175374148501646
0.435000000000000275,-11.744092761843983652
0.436000000000000276,-11.631119113021156863
0.437000000000000277,-11.519260129543736682
0.438000000000000278,-11.408520865717129311
0.439000000000000279,-11.298905742106448713
0.440000000000000280,-11.190418559470202808
0.441000000000000281,-11.083062512790220921
0.442000000000000282,-10.976840205378916693
0.443000000000000282,-10.871753663045689464
0.444000000000000283,-10.767804348305167750
0.445000000000000284,-10.664993174610566840
0.446000000000000285,-10.563320520595976149
0.447000000000000286,-10.462786244312704653
0.448000000000000287,-10.363389697444535642
0.449000000000000288,-10.265129739488370930
0.450000000000000289,-10.168004751886677184
0.451000000000000290,-10.072012652099207486
0.452000000000000290,-9.977150907601920693
0.453000000000000291,-9.883416549801699702
0.454000000000000292,-9.790806187856055942
0.455000000000000293,-9.699316022387499459
0.456000000000000294,-9.608941859083085291
0.457000000000000295,-9.519679122169858232
0.458000000000000296,-9.431522867757758277
0.459000000000000297,-9.344467797041911439
0.460000000000000298,-9.258508269356752862
0.461000000000000298,-9.173638315075038463
0.462000000000000299,-9.089851648345192103
0.463000000000000300,-9.007141679660810141
0.464000000000000301,-8.925501528256884143
0.465000000000000302,-8.844924034327485529
0.466000000000000303,-8.765401771060123082
0.467000000000000304,-8.686927056482463883
0.468000000000000305,-8.609491965117566536
0.469000000000000306,-8.533088339443880344
0.470000000000000306,-8.457707801157059890
0.471000000000000307,-8.383341762230454464
0.472000000000000308,-8.309981435772126446
0.473000000000000309,-8.237617846675902911
0.474000000000000310,-8.166241842064854595
0.475000000000000311,-8.095844101525432990
0.476000000000000312,-8.026415147131285011
0.477000000000000313,-7.957945353255406751
0.478000000000000314,-7.890424956170214443
0.479000000000000314,-7.823844063434913565
0.480000000000000315,-7.758192663069941375
0.481000000000000316,-7.693460632518568154
0.482000000000000317,-7.629637747395778824
0.483000000000000318,-7.566713690024926109
0.484000000000000319,-7.504678057762736998
0.485000000000000320,-7.443520371113576672
0.486000000000000321,-7.383230081633847419
0.487000000000000322,-7.323796579627763315
0.488000000000000322,-7.265209201635750347
0.489000000000000323,-7.207457237717056486
0.490000000000000324,-7.150529938528063845
0.491000000000000325,-7.094416522198107700
0.492000000000000326,-7.039106181004636476
0.493000000000000327,-6.984588087849755489
0.494000000000000328,-6.930851402540147532
0.495000000000000329,-6.877885277872705316
0.496000000000000330,-6.825678865527985195
0.497000000000000330,-6.774221321774042792
0.498000000000000331,-6.723501812982931369
0.499000000000000332,-6.673509520962534580
0.500000000000000333,-6.624233648106264027
0.501000000000000334,-6.575663422363230204
0.502000000000000335,-6.527788102031719220
0.503000000000000336,-6.480596980378640737
0.504000000000000337,-6.434079390087793726
0.505000000000000338,-6.388224707539793101
0.506000000000000338,-6.343022356926555361
0.507000000000000339,-6.298461814203229814
0.508000000000000340,-6.254532610880511712
0.509000000000000341,-6.211224337660380179
0.510000000000000342,-6.168526647918118222
0.511000000000000343,-6.126429261033682572
0.512000000000000344,-6.084921965575428082
0.513000000000000345,-6.043994622339154077
0.514000000000000346,-6.003637167245539530
0.515000000000000346,-5.963839614098933595
0.516000000000000347,-5.924592057210501750
0.517000000000000348,-5.885884673888851282
0.518000000000000349,-5.847707726800896566
0.519000000000000350,-5.810051566206213991
0.520000000000000351,-5.772906632067650534
0.521000000000000352,-5.736263456041259090
0.522000000000000353,-5.700112663348448017
0.523000000000000353,-5.664444974533219046
0.524000000000000354,-5.629251207107523136
0.525000000000000355,-5.594522277087433437
0.526000000000000356,-5.560249200423070803
0.527000000000000357,-5.526423094325146224
0.528000000000000358,-5.493035178490744741
0.529000000000000359,-5.460076776231288953
0.530000000000000360,-5.427539315505284456
0.531000000000000361,-5.395414329858599700
0.532000000000000361,-5.363693459274897712
0.533000000000000362,-5.332368450938891336
0.534000000000000363,-5.301431159914989699
0.535000000000000364,-5.270873549743848585
0.536000000000000365,-5.240687692959426158
0.537000000000000366,-5.210865771528951917
0.538000000000000367,-5.181400077218238032
0.539000000000000368,-5.152283011884856379
0.540000000000000369,-5.123507087701344886
0.541000000000000369,-5.095064927310962943
0.542000000000000370,-5.066949263918145263
0.543000000000000371,-5.039152941315939493
0.544000000000000372,-5.011668913852659557
0.545000000000000373,-4.984490246339867703
0.546000000000000374,-4.957610113903815119
0.547000000000000375,-4.931021801782438096
0.548000000000000376,-4.904718705069960549
0.549000000000000377,-4.878694328411065761
0.550000000000000377,-4.852942285646579812
0.551000000000000378,-4.827456299412657081
0.552000000000000379,-4.802230200695285944
0.553000000000000380,-4.777257928341949622
0.554000000000000381,-4.752533528532232765
0.555000000000000382,-4.728051154209225615
0.556000000000000383,-4.703805064473244535
0.557000000000000384,-4.679789623939770493
0.558000000000000385,-4.655999302063050571
0.559000000000000385,-4.632428672427110428
0.560000000000000386,-4.609072412005608577
0.561000000000000387,-4.585925300392165838
0.562000000000000388,-4.562982219002566175
0.563000000000000389,-4.540238150250333504
0.564000000000000390,-4.517688176697054914
0.565000000000000391,-4.495327480178863411
0.566000000000000392,-4.473151340910350271
0.567000000000000393,-4.451155136567309434
0.568000000000000393,-4.429334341349460580
0.569000000000000394,-4.407684525024477828
0.570000000000000395,-4.386201351954495564
0.571000000000000396,-4.364880580106194508
0.572000000000000397,-4.343718060045709706
0.573000000000000398,-4.322709733919350761
0.574000000000000399,-4.301851634421282711
0.575000000000000400,-4.281139883749132125
0.576000000000000401,-4.260570692548561134
0.577000000000000401,-4.240140358847805047
0.578000000000000402,-4.219845266983050180
0.579000000000000403,-4.199681886515600482
0.580000000000000404,-4.179646771141751316
0.581000000000000405,-4.159736557596147577
0.582000000000000406,-4.139947964549525850
0.583000000000000407,-4.120277791501602671
0.584000000000000408,-4.100722917669893164
0.585000000000000409,-4.081280300875191003
0.586000000000000409,-4.061946976424470890
0.587000000000000410,-4.042720055991871675
0.588000000000000411,-4.023596726498437803
0.589000000000000412,-4.004574248991287888
0.590000000000000413,-3.985649957522801934
0.591000000000000414,-3.966821258030460484
0.592000000000000415,-3.948085627217898796
0.593000000000000416,-3.929440611437703179
0.594000000000000417,-3.910883825576545458
0.595000000000000417,-3.892412951943140964
0.596000000000000418,-3.874025739159451032
0.597000000000000419,-3.855720001055771284
0.598000000000000420,-3.837493615569955718
0.599000000000000421,-3.819344523651374779
0.600000000000000422,-3.801270728169922730
0.601000000000000423,-3.783270292830526849
0.602000000000000424,-3.765341341093503935
0.603000000000000425,-3.747482055101134080
0.604000000000000425,-3.729690674610816270
0.605000000000000426,-3.711965495935088288
0.606000000000000427,-3.694304870888914571
0.607000000000000428,-3.676707205744359275
