# Ag110_CS-65711-AC
# h[nm],U(h)[kJ/mol]
0.149999999999999994,165.910688030074254584
0.150999999999999995,160.601017968291643001
0.151999999999999996,157.118588416672309904
0.152999999999999997,154.062813494014051230
0.153999999999999998,150.922392061655472162
0.154999999999999999,147.602067694696188482
0.156000000000000000,144.168147023280596386
0.157000000000000001,140.722330897593394639
0.158000000000000002,137.347645527871520699
0.159000000000000002,134.092411396241288912
0.160000000000000003,130.972291532366199363
0.161000000000000004,127.979262526827412216
0.162000000000000005,125.091704715698412542
0.163000000000000006,122.282952821552612477
0.164000000000000007,119.527406850935520310
0.165000000000000008,116.804213071258303103
0.166000000000000009,114.098933136807275446
0.167000000000000010,111.403745237392058698
0.168000000000000010,108.716699916797736591
0.169000000000000011,106.040465851783864082
0.170000000000000012,103.380893504916116399
0.171000000000000013,100.745621568717780292
0.172000000000000014,98.142863770157120484
0.173000000000000015,95.580445553873829567
0.174000000000000016,93.065110930768838671
0.175000000000000017,90.602086897649357411
0.176000000000000018,88.194873111888711037
0.177000000000000018,85.845214733276662855
0.178000000000000019,83.553213653822879792
0.179000000000000020,81.317535342158123512
0.180000000000000021,79.135673361744366616
0.181000000000000022,77.004239884784141168
0.182000000000000023,74.919257226237235159
0.183000000000000024,72.876431904134932438
0.184000000000000025,70.871398588663993223
0.185000000000000026,68.899926318840471140
0.186000000000000026,66.958083463043394090
0.187000000000000027,65.042361090773752608
0.188000000000000028,63.149756777798266683
0.189000000000000029,61.277822487594598044
0.190000000000000030,59.424681175027309621
0.191000000000000031,57.589017261317188456
0.192000000000000032,55.770046243997384749
0.193000000000000033,53.967468531806176202
0.194000000000000034,52.181412218865020236
0.195000000000000034,50.412369007218785555
0.196000000000000035,48.661126910153186031
0.197000000000000036,46.928702766104564148
0.198000000000000037,45.216276998530936737
0.199000000000000038,43.525132495189851056
0.200000000000000039,41.856598967139397871
0.201000000000000040,40.212003693171823215
0.202000000000000041,38.592629163901790434
0.203000000000000042,36.999677812057306880
0.204000000000000042,35.434243749506286747
0.205000000000000043,33.897291223078859446
0.206000000000000044,32.389639344925811315
0.207000000000000045,30.911952542916317554
0.208000000000000046,29.464736106075019251
0.209000000000000047,28.048336163006535315
0.210000000000000048,26.662943421654659915
0.211000000000000049,25.308600011041026079
0.212000000000000050,23.985208794797131304
0.213000000000000050,22.692544567920233334
0.214000000000000051,21.430266598401239264
0.215000000000000052,20.197932030947793436
0.216000000000000053,18.995009728259535819
0.217000000000000054,17.820894184019639539
0.218000000000000055,16.674919199225396227
0.219000000000000056,15.556371068378215483
0.220000000000000057,14.464501073422956878
0.221000000000000058,13.398537130524442063
0.222000000000000058,12.357694477374355557
0.223000000000000059,11.341185326556999513
0.224000000000000060,10.348227443526408109
0.225000000000000061,9.378051636070395602
0.226000000000000062,8.429908165960688038
0.227000000000000063,7.503072113086358463
0.228000000000000064,6.596847738068150946
0.229000000000000065,5.710571901504206238
0.230000000000000066,4.843616606980146067
0.231000000000000066,3.995390741153076242
0.232000000000000067,3.165341087961898836
0.233000000000000068,2.352952695670007977
0.234000000000000069,1.557748675345094425
0.235000000000000070,0.779289507828020422
0.236000000000000071,0.017171933521572848
0.237000000000000072,-0.728972504311115044
0.238000000000000073,-1.459479196378862698
0.239000000000000073,-2.174652422789478123
0.240000000000000074,-2.874767470682944914
0.241000000000000075,-3.560072862999080989
0.242000000000000076,-4.230792652676006682
0.243000000000000077,-4.887128741888771444
0.244000000000000078,-5.529263191110854514
0.245000000000000079,-6.157360487749839351
0.246000000000000080,-6.771569748818563994
0.247000000000000081,-7.372026836520161552
0.248000000000000081,-7.958856369719102375
0.249000000000000082,-8.532173618027499629
0.250000000000000111,-9.092086268649005376
0.251000000000000112,-9.638696059188571752
0.252000000000000113,-10.172100272365646845
0.253000000000000114,-10.692393090963363989
0.254000000000000115,-11.199666813431116807
0.255000000000000115,-11.694012932338885946
0.256000000000000116,-12.175523079385722980
0.257000000000000117,-12.644289841907337291
0.258000000000000118,-13.100407456830506447
0.259000000000000119,-13.543972388807834051
0.260000000000000120,-13.975083799855175570
0.261000000000000121,-14.393843918225186940
0.262000000000000122,-14.800358314507411350
0.263000000000000123,-15.194736093063516691
0.264000000000000123,-15.577090006906862740
0.265000000000000124,-15.947536504033504201
0.266000000000000125,-16.306195713024450811
0.267000000000000126,-16.653191375479355685
0.268000000000000127,-16.988650732525893972
0.269000000000000128,-17.312704372285232068
0.270000000000000129,-17.625486044776884853
0.271000000000000130,-17.927132450323775004
0.272000000000000131,-18.217783007078587332
0.273000000000000131,-18.497579602844613333
0.274000000000000132,-18.766666335914067076
0.275000000000000133,-19.025189249199549124
0.276000000000000134,-19.273296061495830855
0.277000000000000135,-19.511135899281786266
0.278000000000000136,-19.738859032061803589
0.279000000000000137,-19.956616613852336428
0.280000000000000138,-20.164560433046169408
0.281000000000000139,-20.362842672535830246
0.282000000000000139,-20.551615681648641498
0.283000000000000140,-20.731031761140634728
0.284000000000000141,-20.901242962214730881
0.285000000000000142,-21.062400900270766613
0.286000000000000143,-21.214656583859895278
0.287000000000000144,-21.358160259104149503
0.288000000000000145,-21.493061269652805834
0.289000000000000146,-21.619507932077954848
0.290000000000000147,-21.737647426464896228
0.291000000000000147,-21.847625701823716327
0.292000000000000148,-21.949587395839149195
0.293000000000000149,-22.043675768381962854
0.294000000000000150,-22.130032648128953099
0.295000000000000151,-22.208798391576216602
0.296000000000000152,-22.280111853681788148
0.297000000000000153,-22.344110369338086031
0.298000000000000154,-22.400929744849690906
0.299000000000000155,-22.450704258577928840
0.300000000000000155,-22.493566669908314992
0.301000000000000156,-22.529648235700072689
0.302000000000000157,-22.559078733387270432
0.303000000000000158,-22.581986489917408534
0.304000000000000159,-22.598498415735821965
0.305000000000000160,-22.608740043050062241
0.306000000000000161,-22.612835567639869794
0.307000000000000162,-22.610907893511587474
0.308000000000000163,-22.603078679732110601
0.309000000000000163,-22.589468388816051458
0.310000000000000164,-22.570196336079483501
0.311000000000000165,-22.545380739414021320
0.312000000000000166,-22.515138768976648009
0.313000000000000167,-22.479586596331934345
0.314000000000000168,-22.438839442624239240
0.315000000000000169,-22.393011625398596465
0.316000000000000170,-22.342216603728605406
0.317000000000000171,-22.286567021348606232
0.318000000000000171,-22.226174747525242026
0.319000000000000172,-22.161150915439851161
0.320000000000000173,-22.091605957888006628
0.321000000000000174,-22.017649640135722677
0.322000000000000175,-21.939391089803656598
0.323000000000000176,-21.856938823680280848
0.324000000000000177,-21.770400771393294548
0.325000000000000178,-21.679884295894353841
0.326000000000000179,-21.585496210737431966
0.327000000000000179,-21.487342794152773706
0.328000000000000180,-21.385529799939828166
0.329000000000000181,-21.280162465221717838
0.330000000000000182,-21.171345515120172820
0.331000000000000183,-21.059183164426851675
0.332000000000000184,-20.943779116359458214
0.333000000000000185,-20.825236558504755635
0.334000000000000186,-20.703658156060424034
0.335000000000000187,-20.579146042497757918
0.336000000000000187,-20.451801807775044750
0.337000000000000188,-20.321726484237899513
0.338000000000000189,-20.189020530348908977
0.339000000000000190,-20.053783812392669716
0.340000000000000191,-19.916115584305654096
0.341000000000000192,-19.776114465783070528
0.342000000000000193,-19.633878418815122302
0.343000000000000194,-19.489504722806621828
0.344000000000000195,-19.343089948432258041
0.345000000000000195,-19.194729930379931915
0.346000000000000196,-19.044519739131541058
0.347000000000000197,-18.892553651928970737
0.348000000000000198,-18.738925123069670065
0.349000000000000199,-18.583726753672763721
0.350000000000000200,-18.427050261052873026
0.351000000000000201,-18.268986447834141273
0.352000000000000202,-18.109625170932851290
0.353000000000000203,-17.949055310531598195
0.354000000000000203,-17.787364739163255223
0.355000000000000204,-17.624640291017122706
0.356000000000000205,-17.460967731574761785
0.357000000000000206,-17.296431727676896628
0.358000000000000207,-17.131115818117091720
0.359000000000000208,-16.965102384852603024
0.360000000000000209,-16.798472624916378493
0.361000000000000210,-16.631306523108968065
0.362000000000000210,-16.463682825542928612
0.363000000000000211,-16.295679014106838167
0.364000000000000212,-16.127371281910445333
0.365000000000000213,-15.958834509766703036
0.366000000000000214,-15.790142243761266627
0.367000000000000215,-15.621366673954501181
0.368000000000000216,-15.452578614256129441
0.369000000000000217,-15.283847483507283727
0.370000000000000218,-15.115241287800206038
0.371000000000000218,-14.946826604060797550
0.372000000000000219,-14.778668564914951844
0.373000000000000220,-14.610830844855005495
0.374000000000000221,-14.443375647718758259
0.375000000000000222,-14.276363695489004968
0.376000000000000223,-14.109854218418330873
0.377000000000000224,-13.943904946479804607
0.378000000000000225,-13.778572102140936195
0.379000000000000226,-13.613910394455032815
0.380000000000000226,-13.449973014461061638
0.381000000000000227,-13.286811631879952955
0.382000000000000228,-13.124476393093084781
0.383000000000000229,-12.963015920385652535
0.384000000000000230,-12.802477312435518897
0.385000000000000231,-12.642906146026145819
0.386000000000000232,-12.484346478959770010
0.387000000000000233,-12.326840854145583393
0.388000000000000234,-12.170430304835608837
0.389000000000000234,-12.015154360979916959
0.390000000000000235,-11.861051056670874004
0.391000000000000236,-11.708156938645476686
0.392000000000000237,-11.556507075813199137
0.393000000000000238,-11.406135069776349056
0.394000000000000239,-11.257073066308574738
0.395000000000000240,-11.109351767756995955
0.396000000000000241,-10.963000446332442195
0.397000000000000242,-10.818046958251931855
0.398000000000000242,-10.674517758697396275
0.399000000000000243,-10.532437917554053897
0.400000000000000244,-10.391831135891710147
0.401000000000000245,-10.252719763152692067
0.402000000000000246,-10.115124815009380654
0.403000000000000247,-9.979065991854890072
0.404000000000000248,-9.844561697890615193
0.405000000000000249,-9.711629060774402689
0.406000000000000250,-9.580283951793500563
0.407000000000000250,-9.450541006526922416
0.408000000000000251,-9.322413645962010165
0.409000000000000252,-9.195914098030927519
0.410000000000000253,-9.071053419532775663
0.411000000000000254,-8.947841518408079509
0.412000000000000255,-8.826287176332723305
0.413000000000000256,-8.706398071599258159
0.414000000000000257,-8.588180802253926771
0.415000000000000258,-8.471640909458821866
0.416000000000000258,-8.356782901049005119
0.417000000000000259,-8.243610275255372599
0.418000000000000260,-8.132125544564818398
0.419000000000000261,-8.022330259689894660
0.420000000000000262,-7.914225033621254290
0.421000000000000263,-7.807809565736739899
0.422000000000000264,-7.703082665941954232
0.423000000000000265,-7.600042278817864982
0.424000000000000266,-7.498685507752165691
0.425000000000000266,-7.399008639031447565
0.426000000000000267,-7.301007165872595017
0.427000000000000268,-7.204675812372346222
0.428000000000000269,-7.110008557354959180
0.429000000000000270,-7.016998658098740016
0.430000000000000271,-6.925638673922927424
0.431000000000000272,-6.835920489617477003
0.432000000000000273,-6.747835338698871865
0.433000000000000274,-6.661373826476078008
0.434000000000000274,-6.576525952911455697
0.435000000000000275,-6.493281135262281900
0.436000000000000276,-6.411628230489377245
0.437000000000000277,-6.331555557419871860
0.438000000000000278,-6.253050918652188095
0.439000000000000279,-6.176101622191920271
0.440000000000000280,-6.100694502807877839
0.441000000000000281,-6.026815943098513984
0.442000000000000282,-5.954451894259563005
0.443000000000000282,-5.883587896544145046
0.444000000000000283,-5.814209099407767312
0.445000000000000284,-5.746300281330730009
0.446000000000000285,-5.679845869311350270
0.447000000000000286,-5.614829958024186496
0.448000000000000287,-5.551236328637520145
0.449000000000000288,-5.489048467285528865
0.450000000000000289,-5.428249583190597249
0.451000000000000290,-5.368822626432136147
0.452000000000000290,-5.310750305358572732
0.453000000000000291,-5.254015103639711803
0.454000000000000292,-5.198599296957263860
0.455000000000000293,-5.144484969331565516
0.456000000000000294,-5.091654029083230171
0.457000000000000295,-5.040088224428663999
0.458000000000000296,-4.989769158708925900
0.459000000000000297,-4.940678305251752889
0.460000000000000298,-4.892797021866946316
0.461000000000000298,-4.846106564975687370
0.462000000000000299,-4.800588103374705540
0.463000000000000300,-4.756222731636450263
0.464000000000000301,-4.712991483146931060
0.465000000000000302,-4.670875342782961681
0.466000000000000303,-4.629855259230969189
0.467000000000000304,-4.589912156949706556
0.468000000000000305,-4.551026947779591936
0.469000000000000306,-4.513180542201451040
0.470000000000000306,-4.476353860247826333
0.471000000000000307,-4.440527842070109088
0.472000000000000308,-4.405683458165065680
0.473000000000000309,-4.371801719264372998
0.474000000000000310,-4.338863685891088728
0.475000000000000311,-4.306850477587046200
0.476000000000000312,-4.275743281815431729
0.477000000000000313,-4.245523362542697576
0.478000000000000314,-4.216172068504425496
0.479000000000000314,-4.187670841159645718
0.480000000000000315,-4.160001222338204130
0.481000000000000316,-4.133144861586125707
0.482000000000000317,-4.107083523213609588
0.483000000000000318,-4.081799093050804572
0.484000000000000319,-4.057273584916206488
0.485000000000000320,-4.033489146802894609
0.486000000000000321,-4.010428066787619983
0.487000000000000322,-3.988072778667997031
0.488000000000000322,-3.966405867332924551
0.489000000000000323,-3.945410073871625123
0.490000000000000324,-3.925068300426429069
0.491000000000000325,-3.905363614794695515
0.492000000000000326,-3.886279254785095727
0.493000000000000327,-3.867798632333653952
0.494000000000000328,-3.849905337384798454
0.495000000000000329,-3.832583141542755811
0.496000000000000330,-3.815816001498570920
0.497000000000000330,-3.799588062238078656
0.498000000000000331,-3.783883660036031049
0.499000000000000332,-3.768687325241679709
0.500000000000000333,-3.753983784861015582
0.501000000000000334,-3.739757964940823687
0.502000000000000335,-3.725994992759731339
0.503000000000000336,-3.712680198831360023
0.504000000000000337,-3.699799118724637736
0.505000000000000338,-3.687337494706294017
0.506000000000000338,-3.675281277210539876
0.507000000000000339,-3.663616626140826504
0.508000000000000340,-3.652329912008564605
0.509000000000000341,-3.641407716913664050
0.510000000000000342,-3.630836835371570093
0.511000000000000343,-3.620604274991587435
0.512000000000000344,-3.610697257011056482
0.513000000000000345,-3.601103216689993669
0.514000000000000346,-3.591809803570750859
0.515000000000000346,-3.582804881607020597
0.516000000000000347,-3.574076529166670291
0.517000000000000348,-3.565613038912719190
0.518000000000000349,-3.557402917566585110
0.519000000000000350,-3.549434885557892549
0.520000000000000351,-3.541697876564898984
0.521000000000000352,-3.534181036949538335
0.522000000000000353,-3.526873725091067335
0.523000000000000353,-3.519765510622172577
0.524000000000000354,-3.512846173571397834
0.525000000000000355,-3.506105703415551833
0.526000000000000356,-3.499534298045791303
0.527000000000000357,-3.493122362651010171
0.528000000000000358,-3.486860508521963276
0.529000000000000359,-3.480739551779632901
0.530000000000000360,-3.474750512031158589
0.531000000000000361,-3.468884610956665338
0.532000000000000361,-3.463133270830161869
0.533000000000000362,-3.457488112977700645
0.534000000000000363,-3.451940956175834962
0.535000000000000364,-3.446483814993400951
0.536000000000000365,-3.441108898079536349
0.537000000000000366,-3.435808606400817755
0.538000000000000367,-3.430575531430249292
0.539000000000000368,-3.425402453290935512
0.540000000000000369,-3.420282338856920568
0.541000000000000369,-3.415208339813944782
0.542000000000000370,-3.410173790682510919
0.543000000000000371,-3.405172206805740842
0.544000000000000372,-3.400197282304449509
0.545000000000000373,-3.395242888001668291
0.546000000000000374,-3.390303069318910900
0.547000000000000375,-3.385372044146369941
0.548000000000000376,-3.380444200689171730
0.549000000000000377,-3.375514095291714423
0.550000000000000377,-3.370576450242098954
0.551000000000000378,-3.365626151558637424
0.552000000000000379,-3.360658246760239276
0.553000000000000380,-3.355667942622581279
0.554000000000000381,-3.350650602921725785
0.555000000000000382,-3.345601746167025770
0.556000000000000383,-3.340517043324800373
0.557000000000000384,-3.335392315534556396
0.558000000000000385,-3.330223531819138660
0.559000000000000385,-3.325006806790440805
0.560000000000000386,-3.319738398351978592
0.561000000000000387,-3.314414705399846728
0.562000000000000388,-3.309032265523286664
0.563000000000000389,-3.303587752706250935
0.564000000000000390,-3.298077975031114217
0.565000000000000391,-3.292499872385809656
0.566000000000000392,-3.286850514175495785
0.567000000000000393,-3.281127097039873597
0.568000000000000393,-3.275326942577200917
0.569000000000000394,-3.269447495076055699
0.570000000000000395,-3.263486319255807011
0.571000000000000396,-3.257441098016705006
0.572000000000000397,-3.251309630200565515
0.573000000000000398,-3.245089828362808682
0.574000000000000399,-3.238779716556752675
0.575000000000000400,-3.232377428130906338
0.576000000000000401,-3.225881203540001962
0.577000000000000401,-3.219289388170531119
0.578000000000000402,-3.212600430181409283
0.579000000000000403,-3.205812878360405627
0.580000000000000404,-3.198925379997032081
0.581000000000000405,-3.191936678772365976
0.582000000000000406,-3.184845612666446613
0.583000000000000407,-3.177651111883689428
0.584000000000000408,-3.170352196796874189
0.585000000000000409,-3.162947975910117115
0.586000000000000409,-3.155437643841299433
0.587000000000000410,-3.147820479324335174
0.588000000000000411,-3.140095843231662798
0.589000000000000412,-3.132263176617352762
0.590000000000000413,-3.124321998781075749
0.591000000000000414,-3.116271905353347638
0.592000000000000415,-3.108112566402270627
0.593000000000000416,-3.099843724562019176
0.594000000000000417,-3.091465193183363880
0.595000000000000417,-3.082976854506438880
0.596000000000000418,-3.074378657855886932
0.597000000000000419,-3.065670617858686775
0.598000000000000420,-3.056852812684680565
0.599000000000000421,-3.047925382310062936
0.600000000000000422,-3.038888526803883661
0.601000000000000423,-3.029742504637696676
0.602000000000000424,-3.020487631018441199
0.603000000000000425,-3.011124276244644626
0.604000000000000425,-3.001652864085968542
0.605000000000000426,-2.992073870186170215
0.606000000000000427,-2.982387820489547980
0.607000000000000428,-2.972595289690738607
0.608000000000000429,-2.962696899708114007
0.609000000000000430,-2.952693318180474424
