# Ag110_HUMICACID-NEUTRAL-AC
# h[nm],U(h)[kJ/mol]
0.200000000000000011,160.821027096796626665
0.201000000000000012,157.889957137751025584
0.202000000000000013,154.744952957282748685
0.203000000000000014,151.589838308474725181
0.204000000000000015,148.522467142530388173
0.205000000000000016,145.576972830781073753
0.206000000000000016,142.751889880730800542
0.207000000000000017,140.028312356421935192
0.208000000000000018,137.381135483009046538
0.209000000000000019,134.785588759443811568
0.210000000000000020,132.220644029330202329
0.211000000000000021,129.670419174155256314
0.212000000000000022,127.124357962711911796
0.213000000000000023,124.576718829294236457
0.214000000000000024,122.025726773497723343
0.215000000000000024,119.472615486215403280
0.216000000000000025,116.920697767364941910
0.217000000000000026,114.374541142070853539
0.218000000000000027,111.839284649614953082
0.219000000000000028,109.320106345961747252
0.220000000000000029,106.821834868527702156
0.221000000000000030,104.348689320759262955
0.222000000000000031,101.904127448802185540
0.223000000000000032,99.490780943882413112
0.224000000000000032,97.110457528459818377
0.225000000000000033,94.764191441597176890
0.226000000000000034,92.452326459420902438
0.227000000000000035,90.174618290052350744
0.228000000000000036,87.930345825833882145
0.229000000000000037,85.718423173210453569
0.230000000000000038,83.537506534189063245
0.231000000000000039,81.386091850974793260
0.232000000000000040,79.262600645595625792
0.233000000000000040,77.165452706491180379
0.234000000000000041,75.093125222490087367
0.235000000000000042,73.044198675021164036
0.236000000000000043,71.017390307038652963
0.237000000000000044,69.011576326353448962
0.238000000000000045,67.025804203804128178
0.239000000000000046,65.059296521712141725
0.240000000000000047,63.111447840459206304
0.241000000000000048,61.181816002291405709
0.242000000000000048,59.270109199537969857
0.243000000000000049,57.376170014054096669
0.244000000000000050,55.499957497672767204
0.245000000000000051,53.641528219010538692
0.246000000000000052,51.801017057210842154
0.247000000000000053,49.978618383314667994
0.248000000000000054,48.174568138623257596
0.249000000000000055,46.389127199094495779
0.250000000000000056,44.622566306934523084
0.251000000000000056,42.875152755771104296
0.252000000000000057,41.147138934189925408
0.253000000000000058,39.438752763603943663
0.254000000000000059,37.750190009710458128
0.255000000000000060,36.081608401270941044
0.256000000000000061,34.433123454586471723
0.257000000000000062,32.804805875736349208
0.258000000000000063,31.196680394286367743
0.259000000000000064,29.608725870659128532
0.260000000000000064,28.040876513651472379
0.261000000000000065,26.493024043706903115
0.262000000000000066,24.965020640601636615
0.263000000000000067,23.456682520380148560
0.264000000000000068,21.967793994950604031
0.265000000000000069,20.498111878088831617
0.266000000000000070,19.047370113158173410
0.267000000000000071,17.615284510153394137
0.268000000000000071,16.201557492334654142
0.269000000000000072,14.805882765399619672
0.270000000000000073,13.427949834587437294
0.271000000000000074,12.067448307108389116
0.272000000000000075,10.724071928683779120
0.273000000000000076,9.397522313648533299
0.274000000000000077,8.087512337927012851
0.275000000000000078,6.793769173192913513
0.276000000000000079,5.516036948641376725
0.277000000000000079,4.254079034026853279
0.278000000000000080,3.007679943977162207
0.279000000000000081,1.776646869096794035
0.280000000000000082,0.560810844070827486
0.281000000000000083,-0.639972433089413428
0.282000000000000084,-1.825822113297689286
0.283000000000000085,-2.996832020219157844
0.284000000000000086,-4.153070763792637621
0.285000000000000087,-5.294582120151497762
0.286000000000000087,-6.421385653720014020
0.287000000000000088,-7.533477556764698768
0.288000000000000089,-8.630831681561421220
0.289000000000000090,-9.713400740549671397
0.290000000000000091,-10.781117650331813351
0.291000000000000092,-11.833896996101712418
0.292000000000000093,-12.871636594003495802
0.293000000000000094,-13.894219129996155715
0.294000000000000095,-14.901513854995368291
0.295000000000000095,-15.893378317353503704
0.296000000000000096,-16.869660115088443320
0.297000000000000097,-17.830198651664698417
0.298000000000000098,-18.774826880538757479
0.299000000000000099,-19.703373025090805015
0.300000000000000100,-20.615662261956739343
0.301000000000000101,-21.511518357140030133
0.302000000000000102,-22.390765245602793243
0.303000000000000103,-23.253228546312151082
0.304000000000000103,-24.098737005930011890
0.305000000000000104,-24.927123865489797083
0.306000000000000105,-25.738228145488257326
0.307000000000000106,-26.531895845836778847
0.308000000000000107,-27.307981058060914137
0.309000000000000108,-28.066346988008195495
0.310000000000000109,-28.806866888125561843
0.311000000000000110,-29.529424899093339008
0.312000000000000111,-30.233916801264417273
0.313000000000000111,-30.920250676945499890
0.314000000000000112,-31.588347485083460242
0.315000000000000113,-32.238141550382437117
0.316000000000000114,-32.869580969280214333
0.317000000000000115,-33.482627935558490151
0.318000000000000116,-34.077258988655451333
0.319000000000000117,-34.653465187992551932
0.320000000000000118,-35.211252216824156847
0.321000000000000119,-35.750640419274503756
0.322000000000000119,-36.271664774340337090
0.323000000000000120,-36.774374810716437878
0.324000000000000121,-37.258834466348687897
0.325000000000000122,-37.725121896633879714
0.326000000000000123,-38.173329235176311158
0.327000000000000124,-38.603562310975846117
0.328000000000000125,-39.015940325867759952
0.329000000000000126,-39.410595495959377388
0.330000000000000127,-39.787672660719138662
0.331000000000000127,-40.147328863269407861
0.332000000000000128,-40.489732905317929124
0.333000000000000129,-40.815064880038100625
0.334000000000000130,-41.123515686073311315
0.335000000000000131,-41.415286525702114773
0.336000000000000132,-41.690588390054330148
0.337000000000000133,-41.949641534121482778
0.338000000000000134,-42.192674944154326511
0.339000000000000135,-42.419925799887494122
0.340000000000000135,-42.631638933882207709
0.341000000000000136,-42.828066290125420323
0.342000000000000137,-43.009466383876329587
0.343000000000000138,-43.176103764604093271
0.344000000000000139,-43.328248483717828776
0.345000000000000140,-43.466175568650022853
0.346000000000000141,-43.590164504718373450
0.347000000000000142,-43.700498726060381216
0.348000000000000143,-43.797465116807778429
0.349000000000000143,-43.881353523546351880
0.350000000000000144,-43.952456279990073540
0.351000000000000145,-44.011067744686911851
0.352000000000000146,-44.057483852467946406
0.353000000000000147,-44.092001680250412221
0.354000000000000148,-44.114919027710534749
0.355000000000000149,-44.126534013251713873
0.356000000000000150,-44.127144685609714259
0.357000000000000151,-44.117048651356846278
0.358000000000000151,-44.096542718493502377
0.359000000000000152,-44.065922556246277964
0.360000000000000153,-44.025482371128418890
0.361000000000000154,-43.975514599258438864
0.362000000000000155,-43.916309614878983325
0.363000000000000156,-43.848155454967901790
0.364000000000000157,-43.771337559787085070
0.365000000000000158,-43.686138529174584733
0.366000000000000159,-43.592837894346196492
0.367000000000000159,-43.491711904940402178
0.368000000000000160,-43.383033331009499989
0.369000000000000161,-43.267071279633292136
0.370000000000000162,-43.144091025808222639
0.371000000000000163,-43.014353857244323365
0.372000000000000164,-42.878116932684363860
0.373000000000000165,-42.735633153345574442
0.374000000000000166,-42.587151047071031940
0.375000000000000167,-42.432914664768155433
0.376000000000000167,-42.273163488704199153
0.377000000000000168,-42.108132352222483519
0.378000000000000169,-41.938051370439325183
0.379000000000000170,-41.763145881480028265
0.380000000000000171,-41.583636397810813889
0.381000000000000172,-41.399738567225753627
0.382000000000000173,-41.211663143048966162
0.383000000000000174,-41.019615963117047386
0.384000000000000175,-40.823797937110306577
0.385000000000000175,-40.624405041807868599
0.386000000000000176,-40.421628323848416642
0.387000000000000177,-40.215653909584347048
0.388000000000000178,-40.006663021627737464
0.389000000000000179,-39.794832001692626022
0.390000000000000180,-39.580332339349340032
0.391000000000000181,-39.363330706315380780
0.392000000000000182,-39.143988995918000739
0.393000000000000183,-38.922464367373720506
0.394000000000000183,-38.698909294541223858
0.395000000000000184,-38.473471618814834017
0.396000000000000185,-38.246294605836624214
0.397000000000000186,-38.017517005717266443
0.398000000000000187,-37.787273116465925682
0.399000000000000188,-37.555692850341969802
0.400000000000000189,-37.322901802851660591
0.401000000000000190,-37.089021324124658463
0.402000000000000191,-36.854168592416641559
0.403000000000000191,-36.618456689494692569
0.404000000000000192,-36.381994677673631600
0.405000000000000193,-36.144887678282131560
0.406000000000000194,-35.907236951347627496
0.407000000000000195,-35.669139976300378692
0.408000000000000196,-35.430690533505952544
0.409000000000000197,-35.191978786446483696
0.410000000000000198,-34.953091364380270534
0.411000000000000199,-34.714111445318522442
0.412000000000000199,-34.475118839168025886
0.413000000000000200,-34.236190070896512339
0.414000000000000201,-33.997398463587174433
0.415000000000000202,-33.758814221256180588
0.416000000000000203,-33.520504511316197238
0.417000000000000204,-33.282533546575777450
0.418000000000000205,-33.044962666672994089
0.419000000000000206,-32.807850418848332197
0.420000000000000207,-32.571252637968981958
0.421000000000000207,-32.335222525724056197
0.422000000000000208,-32.099810728915521452
0.423000000000000209,-31.865065416777163421
0.424000000000000210,-31.631032357259027066
0.425000000000000211,-31.397754992220427539
0.426000000000000212,-31.165274511480838271
0.427000000000000213,-30.933629925682033956
0.428000000000000214,-30.702858137920792103
0.429000000000000214,-30.472994014115521111
0.430000000000000215,-30.244070452074716115
0.431000000000000216,-30.016118449239947097
0.432000000000000217,-29.789167169079092901
0.433000000000000218,-29.563244006110188877
0.434000000000000219,-29.338374649539389338
0.435000000000000220,-29.114583145500166239
0.436000000000000221,-28.891891957883824915
0.437000000000000222,-28.670322027754451710
0.438000000000000222,-28.449892831344435251
0.439000000000000223,-28.230622436629097649
0.440000000000000224,-28.012527558481497891
0.441000000000000225,-27.795623612410672365
0.442000000000000226,-27.579924766889256205
0.443000000000000227,-27.365443994277292461
0.444000000000000228,-27.152193120352261957
0.445000000000000229,-26.940182872456080787
0.446000000000000230,-26.729422926271503513
0.447000000000000230,-26.519921951242555025
0.448000000000000231,-26.311687654653905355
0.449000000000000232,-26.104726824385995343
0.450000000000000233,-25.899045370363818819
0.451000000000000234,-25.694648364717703970
0.452000000000000235,-25.491540080676223567
0.453000000000000236,-25.289724030211068850
0.454000000000000237,-25.089203000455725601
0.455000000000000238,-24.889979088919091055
0.456000000000000238,-24.692053737516893364
0.457000000000000239,-24.495427765443302803
0.458000000000000240,-24.300101400906378046
0.459000000000000241,-24.106074311750422368
0.460000000000000242,-23.913345634989603639
0.461000000000000243,-23.721914005276385495
0.462000000000000244,-23.531777582329574727
0.463000000000000245,-23.342934077345429245
0.464000000000000246,-23.155380778417228527
0.465000000000000246,-22.969114574986900124
0.466000000000000247,-22.784131981353450414
0.467000000000000248,-22.600429159262294121
0.468000000000000249,-22.418001939599911054
0.469000000000000250,-22.236845843217537322
0.470000000000000251,-22.056956100908195140
0.471000000000000252,-21.878327672560072159
0.472000000000000253,-21.700955265510593506
0.473000000000000254,-21.524833352123515340
0.474000000000000254,-21.349956186612548237
0.475000000000000255,-21.176317821133757491
0.476000000000000256,-21.003912121169328486
0.477000000000000257,-20.832732780224617386
0.478000000000000258,-20.662773333859849600
0.479000000000000259,-20.494027173078244175
0.480000000000000260,-20.326487557091081015
0.481000000000000261,-20.160147625480352218
0.482000000000000262,-19.995000409779223105
0.483000000000000262,-19.831038844490077366
0.484000000000000263,-19.668255777559274122
0.485000000000000264,-19.506643980327840637
0.486000000000000265,-19.346196156976539271
0.487000000000000266,-19.186904953483299607
0.488000000000000267,-19.028762966110893018
0.489000000000000268,-18.871762749442144269
0.490000000000000269,-18.715896823979324637
0.491000000000000270,-18.561157683324601919
0.492000000000000270,-18.407537800957022966
0.493000000000000271,-18.255029636622197131
0.494000000000000272,-18.103625642349623348
0.495000000000000273,-17.953318268112301581
0.496000000000000274,-17.804099967143493188
0.497000000000000275,-17.655963200924155387
0.498000000000000276,-17.508900443854891193
0.499000000000000277,-17.362904187625581187
0.500000000000000222,-17.217966945295398062
0.501000000000000334,-17.074081255095816090
0.502000000000000224,-16.931239683968541954
0.503000000000000336,-16.789434830849920388
0.504000000000000226,-16.648659329713588306
0.505000000000000338,-16.508905852381523971
0.506000000000000227,-16.370167111115119241
0.507000000000000339,-16.232435860995458654
0.508000000000000229,-16.095704902103641132
0.509000000000000341,-15.959967081509873310
0.510000000000000231,-15.825215295081553890
0.511000000000000343,-15.691442489118065495
0.512000000000000233,-15.558641661822225188
0.513000000000000345,-15.426805864615346309
0.514000000000000234,-15.295928203305312110
0.515000000000000346,-15.166001839113960159
0.516000000000000236,-15.037019989572499412
0.517000000000000348,-14.908975929291054641
0.518000000000000238,-14.781862990610154185
0.519000000000000350,-14.655674564139861360
0.520000000000000240,-14.530404099193734879
0.521000000000000352,-14.406045104123180067
0.522000000000000242,-14.282591146558377915
0.523000000000000353,-14.160035853561158348
0.524000000000000243,-14.038372911695557121
0.525000000000000355,-13.917596067020852502
0.526000000000000245,-13.797699125012522714
0.527000000000000357,-13.678675950415271956
0.528000000000000247,-13.560520467033404302
0.529000000000000359,-13.443226657462179929
0.530000000000000249,-13.326788562764971147
0.531000000000000361,-13.211200282099587966
0.532000000000000250,-13.096455972298247872
0.533000000000000362,-12.982549847404101229
0.534000000000000252,-12.869476178168421043
0.535000000000000364,-12.757229291511265501
0.536000000000000254,-12.645803569949217504
0.537000000000000366,-12.535193450992572650
0.538000000000000256,-12.425393426515704220
0.539000000000000368,-12.316398042102244759
0.540000000000000258,-12.208201896368809258
0.541000000000000369,-12.100799640268565582
0.542000000000000259,-11.994185976378009428
0.543000000000000371,-11.888355658168254791
0.544000000000000261,-11.783303489263596830
0.545000000000000373,-11.679024322688842830
0.546000000000000263,-11.575513060107692098
0.547000000000000375,-11.472764651053262597
0.548000000000000265,-11.370774092153441259
0.549000000000000377,-11.269536426351386638
0.550000000000000266,-11.169046742123811100
0.551000000000000378,-11.069300172697492002
0.552000000000000268,-10.970291895265978255
0.553000000000000380,-10.872017130207188629
0.554000000000000270,-10.774471140303557348
0.555000000000000382,-10.677649229965123112
0.556000000000000272,-10.581546744457366316
0.557000000000000384,-10.486159069133794475
0.558000000000000274,-10.391481628675093063
0.559000000000000385,-10.297509886334648144
0.560000000000000275,-10.204239343192153200
0.561000000000000387,-10.111665537415090554
0.562000000000000277,-10.019784043529323725
0.563000000000000389,-9.928590471699063613
0.564000000000000279,-9.838080467016888875
0.565000000000000391,-9.748249708804070934
0.566000000000000281,-9.659093909921960375
0.567000000000000393,-9.570608816094381410
0.568000000000000282,-9.482790205241967030
0.569000000000000394,-9.395633886827962300
0.570000000000000284,-9.309135701216641579
0.571000000000000396,-9.223291519043737452
0.572000000000000286,-9.138097240599819315
0.573000000000000398,-9.053548795226118884
0.574000000000000288,-8.969642140723516732
0.575000000000000400,-8.886373262774405646
0.576000000000000290,-8.803738174377755854
0.577000000000000401,-8.721732915297247146
0.578000000000000291,-8.640353551522736097
0.579000000000000403,-8.559596174744781294
0.580000000000000293,-8.479456901842619132
0.581000000000000405,-8.399931874385014652
0.582000000000000295,-8.321017258144651763
0.583000000000000407,-8.242709242625229749
0.584000000000000297,-8.165004040601896662
0.585000000000000409,-8.087897887674355246
0.586000000000000298,-8.011387041833057054
0.587000000000000410,-7.935467783037812417
0.588000000000000300,-7.860136412809315409
0.589000000000000412,-7.785389253832759593
0.590000000000000302,-7.711222649574037469
0.591000000000000414,-7.637632963907930339
0.592000000000000304,-7.564616580758356967
0.593000000000000416,-7.492169903750263593
0.594000000000000306,-7.420289355873390669
0.595000000000000417,-7.348971379157191564
0.596000000000000307,-7.278212434357206106
0.597000000000000419,-7.208009000652320530
0.598000000000000309,-7.138357575353015072
0.599000000000000421,-7.069254673620056550
0.600000000000000311,-7.000696828193841093
0.601000000000000423,-6.932680589133679128
0.602000000000000313,-6.865202523567385029
0.603000000000000425,-6.798259215450269899
0.604000000000000314,-6.731847265334137020
0.605000000000000426,-6.665963290145144882
0.606000000000000316,-6.600603922971208348
0.607000000000000428,-6.535765812857936119
0.608000000000000318,-6.471445624613586745
0.609000000000000430,-6.407640038622112399
0.610000000000000320,-6.344345750664813544
0.611000000000000432,-6.281559471749633694
0.612000000000000322,-6.219277927948557050
0.613000000000000433,-6.157497860242368226
0.614000000000000323,-6.096216024372881570
0.615000000000000435,-6.035429190702251923
0.616000000000000325,-5.975134144079264686
0.617000000000000437,-5.915327683712265916
0.618000000000000327,-5.856006623048722659
0.619000000000000439,-5.797167789660908177
0.620000000000000329,-5.738808025137837276
0.621000000000000441,-5.680924184983041414
0.622000000000000330,-5.623513138518020149
0.623000000000000442,-5.566571768791171770
0.624000000000000332,-5.510096972492114276
0.625000000000000444,-5.454085659871007685
0.626000000000000334,-5.398534754662914992
0.627000000000000446,-5.343441194016787854
0.628000000000000336,-5.288801928429121446
0.629000000000000448,-5.234613921681878779
0.630000000000000338,-5.180874150784786636
0.631000000000000449,-5.127579605921448902
0.632000000000000339,-5.074727290399537516
0.633000000000000451,-5.022314220604529922
0.634000000000000341,-4.970337425957117361
0.635000000000000453,-4.918793948873885213
0.636000000000000343,-4.867680844731314238
0.637000000000000455,-4.816995181832780304
0.638000000000000345,-4.766734041378618336
0.639000000000000457,-4.716894517438761980
0.640000000000000346,-4.667473716928309813
0.641000000000000458,-4.618468759585321770
0.642000000000000348,-4.569876777951252578
0.643000000000000460,-4.521694917353397791
0.644000000000000350,-4.473920335889694400
0.645000000000000462,-4.426550204415300449
0.646000000000000352,-4.379581706531275209
0.647000000000000464,-4.333012038574763913
0.648000000000000353,-4.286838409611161360
0.649000000000000465,-4.241058041427447023
0.650000000000000355,-4.195668168527313391
0.651000000000000467,-4.150666038127317492
0.652000000000000357,-4.106048910154503240
0.653000000000000469,-4.061814057244971465
0.654000000000000359,-4.017958764743655209
0.655000000000000471,-3.974480330704867725
0.656000000000000361,-3.931376065893902538
