# Ag110_GUANINEKETO
# h[nm],U(h)[kJ/mol]
0.149999999999999994,159.172923767398089012
0.150999999999999995,153.628497903167186678
0.151999999999999996,149.202200664693464205
0.152999999999999997,145.063297878867075497
0.153999999999999998,140.912011902539546782
0.154999999999999999,136.695834022568476485
0.156000000000000000,132.457238833048961624
0.157000000000000001,128.258422628128329279
0.158000000000000002,124.149276483334730870
0.159000000000000002,120.158126142316902474
0.160000000000000003,116.293252217024587480
0.161000000000000004,112.548496535304551003
0.162000000000000005,108.909478467064602114
0.163000000000000006,105.358834894134631099
0.164000000000000007,101.879953521504972969
0.165000000000000008,98.459214985069394288
0.166000000000000009,95.087003257264484546
0.167000000000000010,91.757818129443151633
0.168000000000000010,88.469809519569864165
0.169000000000000011,85.223999683676666450
0.170000000000000012,82.023393836134033563
0.171000000000000013,78.872116883427878520
0.172000000000000014,75.774660719638433193
0.173000000000000015,72.735285006745016290
0.174000000000000016,69.757584270835636175
0.175000000000000017,66.844213990245151535
0.176000000000000018,63.996756201604227954
0.177000000000000018,61.215699062104782513
0.178000000000000019,58.500503042988270863
0.179000000000000020,55.849727545638337745
0.180000000000000021,53.261194592172024898
0.181000000000000022,50.732169997693084440
0.182000000000000023,48.259546477523585395
0.183000000000000024,45.840017075320957929
0.184000000000000025,43.470230867534709773
0.185000000000000026,41.146925972185627529
0.186000000000000026,38.867037413917934430
0.187000000000000027,36.627779377025333929
0.188000000000000028,34.426702853369683055
0.189000000000000029,32.261730722501681612
0.190000000000000030,30.131172955543156888
0.191000000000000031,28.033724982591486707
0.192000000000000032,25.968452372114917637
0.193000000000000033,23.934764900107076357
0.194000000000000034,21.932382888789639708
0.195000000000000034,19.961298413066927537
0.196000000000000035,18.021733643185040563
0.197000000000000036,16.114098241926900101
0.198000000000000037,14.238947385200541262
0.199000000000000038,12.396941641236969289
0.200000000000000039,10.588809636125512625
0.201000000000000040,8.815314158442973280
0.202000000000000041,7.077222116531238782
0.203000000000000042,5.375278559417651536
0.204000000000000042,3.710184805566039135
0.205000000000000043,2.082580590490521022
0.206000000000000044,0.493030041837471178
0.207000000000000045,-1.057988784522916781
0.208000000000000046,-2.570091125137609289
0.209000000000000047,-4.042989835168180335
0.210000000000000048,-5.476497183295373716
0.211000000000000049,-6.870524479262390294
0.212000000000000050,-8.225079888151181962
0.213000000000000050,-9.540264767613361840
0.214000000000000051,-10.816268840639320814
0.215000000000000052,-12.053364488962364121
0.216000000000000053,-13.251900422471745600
0.217000000000000054,-14.412294949365243468
0.218000000000000055,-15.535029041255850046
0.219000000000000056,-16.620639357869485764
0.220000000000000057,-17.669711367945428293
0.221000000000000058,-18.682872676892554153
0.222000000000000058,-19.660786647964187068
0.223000000000000059,-20.604146382328828224
0.224000000000000060,-21.513669104508082341
0.225000000000000061,-22.390090983198255969
0.226000000000000062,-23.234162403409335695
0.227000000000000063,-24.046643694021376803
0.228000000000000064,-24.828301305113356534
0.229000000000000065,-25.579904421591702857
0.230000000000000066,-26.302221993540683798
0.231000000000000066,-26.996020159149111350
0.232000000000000067,-27.662060032842525459
0.233000000000000068,-28.301095829186529329
0.234000000000000069,-28.913873292050038089
0.235000000000000070,-29.501128398264729213
0.236000000000000071,-30.063586305438359858
0.237000000000000072,-30.601960514544249037
0.238000000000000073,-31.116952219290737958
0.239000000000000073,-31.609249815968702535
0.240000000000000074,-32.079528549392740899
0.241000000000000075,-32.528450272606299620
0.242000000000000076,-32.956663300149571683
0.243000000000000077,-33.364802336834934238
0.244000000000000078,-33.753488466090409759
0.245000000000000079,-34.123329183980786183
0.246000000000000080,-34.474918466970208897
0.247000000000000081,-34.808836863328956213
0.248000000000000081,-35.125651599792313107
0.249000000000000082,-35.425916696644740966
0.250000000000000111,-35.710173085820386518
0.251000000000000112,-35.978948727879782155
0.252000000000000113,-36.232758724847073495
0.253000000000000114,-36.472105426869418920
0.254000000000000115,-36.697478531506170896
0.255000000000000115,-36.909355175167434027
0.256000000000000116,-37.108200016816361710
0.257000000000000117,-37.294465314531258571
0.258000000000000118,-37.468590995903561236
0.259000000000000119,-37.631004723536733536
0.260000000000000120,-37.782121957118349087
0.261000000000000121,-37.922346013670463094
0.262000000000000122,-38.052068127656156094
0.263000000000000123,-38.171667512635551134
0.264000000000000123,-38.281511426136638931
0.265000000000000124,-38.381955239337742114
0.266000000000000125,-38.473342513061211889
0.267000000000000126,-38.556005081453164962
0.268000000000000127,-38.630263144584048973
0.269000000000000128,-38.696425371047808994
0.270000000000000129,-38.754789011474144900
0.271000000000000130,-38.805640023699751850
0.272000000000000131,-38.849253210173472439
0.273000000000000131,-38.885892368003439401
0.274000000000000132,-38.915810451889612409
0.275000000000000133,-38.939249750028885444
0.276000000000000134,-38.956442072930727250
0.277000000000000135,-38.967608954942519972
0.278000000000000136,-38.972961868155216791
0.279000000000000137,-38.972702448243111917
0.280000000000000138,-38.967022731686071779
0.281000000000000139,-38.956105403729914372
0.282000000000000139,-38.940124056359437077
0.283000000000000140,-38.919243455489777261
0.284000000000000141,-38.893619816524719113
0.285000000000000142,-38.863401087384566779
0.286000000000000143,-38.828727238071628847
0.287000000000000144,-38.789730555815737034
0.288000000000000145,-38.746535944828927711
0.289000000000000146,-38.699261229690421260
0.290000000000000147,-38.648017461386814375
0.291000000000000147,-38.592909225041623245
0.292000000000000148,-38.534034948385382791
0.293000000000000149,-38.471487210040123728
0.294000000000000150,-38.405353046720641430
0.295000000000000151,-38.335714258488252426
0.296000000000000152,-38.262647711229547554
0.297000000000000153,-38.186225635574054138
0.298000000000000154,-38.106515921507387645
0.299000000000000155,-38.023582407983603559
0.300000000000000155,-37.937485166886787624
0.301000000000000156,-37.848280780741980323
0.302000000000000157,-37.756022613624516282
0.303000000000000158,-37.660761074767492573
0.304000000000000159,-37.562543874416768119
0.305000000000000160,-37.461416271533160227
0.306000000000000161,-37.357421312989963269
0.307000000000000162,-37.250600063963105413
0.308000000000000163,-37.140991829256918777
0.309000000000000163,-37.028634365355522107
0.310000000000000164,-36.913564083032618157
0.311000000000000165,-36.795816240395694763
0.312000000000000166,-36.675425126280600807
0.313000000000000167,-36.552424233950951304
0.314000000000000168,-36.426846425093536652
0.315000000000000169,-36.298724084134860846
0.316000000000000170,-36.168089262936518935
0.317000000000000171,-36.034973815956803378
0.318000000000000171,-35.899409525993938530
0.319000000000000172,-35.761428220652263121
0.320000000000000173,-35.621061879695801622
0.321000000000000174,-35.478342733475365378
0.322000000000000175,-35.333303352635134331
0.323000000000000176,-35.185976729320891820
0.324000000000000177,-35.036396350129244581
0.325000000000000178,-34.884596261048820054
0.326000000000000179,-34.730611124657990274
0.327000000000000179,-34.574476269852176813
0.328000000000000180,-34.416227734383006975
0.329000000000000181,-34.255902300498398461
0.330000000000000182,-34.093537523977126114
0.331000000000000183,-33.929171756856291609
0.332000000000000184,-33.762844164151978532
0.333000000000000185,-33.594594734874647202
0.334000000000000186,-33.424464287641747262
0.335000000000000187,-33.252494471187745262
0.336000000000000187,-33.078727760071181763
0.337000000000000188,-32.903207445874443238
0.338000000000000189,-32.725977624188921311
0.339000000000000190,-32.547083177673464149
0.340000000000000191,-32.366569755468582059
0.341000000000000192,-32.184483749244058970
0.342000000000000193,-32.000872266149713141
0.343000000000000194,-31.815783098934037554
0.344000000000000195,-31.629264693486401683
0.345000000000000195,-31.441366114052396341
0.346000000000000196,-31.252137006362811888
0.347000000000000197,-31.061627558909084001
0.348000000000000198,-30.869888462589663902
0.349000000000000199,-30.676970868942611048
0.350000000000000200,-30.482926347171666492
0.351000000000000201,-30.287806840163863598
0.352000000000000202,-30.091664619687623627
0.353000000000000203,-29.894552240952162236
0.354000000000000203,-29.696522496699390814
0.355000000000000204,-29.497628370990941704
0.356000000000000205,-29.297922992844473100
0.357000000000000206,-29.097459589864513418
0.358000000000000207,-28.896291442004262251
0.359000000000000208,-28.694471835587251007
0.360000000000000209,-28.492054017708603908
0.361000000000000210,-28.289091151128172186
0.362000000000000210,-28.085636269759827854
0.363000000000000211,-27.881742234853259532
0.364000000000000212,-27.677461691957802259
0.365000000000000213,-27.472847028749733056
0.366000000000000214,-27.267950333798353313
0.367000000000000215,-27.062823356338618908
0.368000000000000216,-26.857517467112309362
0.369000000000000217,-26.652083620332621905
0.370000000000000218,-26.446572316821903570
0.371000000000000218,-26.241033568365615736
0.372000000000000219,-26.035516863320662395
0.373000000000000220,-25.830071133510699610
0.374000000000000221,-25.624744722435981004
0.375000000000000222,-25.419585354820352308
0.376000000000000223,-25.214640107513790923
0.377000000000000224,-25.009955381764147120
0.378000000000000225,-24.805576876867927893
0.379000000000000226,-24.601549565205868220
0.380000000000000226,-24.397917668665645152
0.381000000000000227,-24.194724636450299471
0.382000000000000228,-23.992013124268162017
0.383000000000000229,-23.789824974896639276
0.384000000000000230,-23.588201200109573108
0.385000000000000231,-23.387181963955619324
0.386000000000000232,-23.186806567371899490
0.387000000000000233,-22.987113434115791222
0.388000000000000234,-22.788140097995000843
0.389000000000000234,-22.589923191374769118
0.390000000000000235,-22.392498434938580942
0.391000000000000236,-22.195900628678181477
0.392000000000000237,-22.000163644086203618
0.393000000000000238,-21.805320417524512777
0.394000000000000239,-21.611402944739257492
0.395000000000000240,-21.418442276493440346
0.396000000000000241,-21.226468515286509131
0.397000000000000242,-21.035510813129718599
0.398000000000000242,-20.845597370345700483
0.399000000000000243,-20.656755435359862361
0.400000000000000244,-20.469011305450749205
0.401000000000000245,-20.282390328426707526
0.402000000000000246,-20.096916905195286063
0.403000000000000247,-19.912614493192013043
0.404000000000000248,-19.729505610635250434
0.405000000000000249,-19.547611841573527158
0.406000000000000250,-19.366953841692016169
0.407000000000000250,-19.187551344844990808
0.408000000000000251,-19.009423170281113613
0.409000000000000252,-18.832587230529089339
0.410000000000000253,-18.657060539910872876
0.411000000000000254,-18.482859223650773828
0.412000000000000255,-18.309998527548522418
0.413000000000000256,-18.138492828185384553
0.414000000000000257,-17.968355643632314411
0.415000000000000258,-17.799599644630276885
0.416000000000000258,-17.632236666213003673
0.417000000000000259,-17.466277719743114716
0.418000000000000260,-17.301733005333378657
0.419000000000000261,-17.138611924624989058
0.420000000000000262,-16.976923093896132855
0.421000000000000263,-16.816674357474134638
0.422000000000000264,-16.657872801425394726
0.423000000000000265,-16.500524767497996237
0.424000000000000266,-16.344635867292858222
0.425000000000000266,-16.190210996639368801
0.426000000000000267,-16.037254350152721827
0.427000000000000268,-15.885769435950692241
0.428000000000000269,-15.735759090508244284
0.429000000000000270,-15.587225493629270900
0.430000000000000271,-15.440170183515130375
0.431000000000000272,-15.294594071910887934
0.432000000000000273,-15.150497459310305004
0.433000000000000274,-15.007880050201871214
0.434000000000000274,-14.866740968338334028
0.435000000000000275,-14.727078772013376451
0.436000000000000276,-14.588891469329514194
0.437000000000000277,-14.452176533441820183
0.438000000000000278,-14.316930917763198039
0.439000000000000279,-14.183151071117176656
0.440000000000000280,-14.050832952824942268
0.441000000000000281,-13.919972047714093577
0.442000000000000282,-13.790563381037205914
0.443000000000000282,-13.662601533288565747
0.444000000000000283,-13.536080654908662524
0.445000000000000284,-13.410994480865985778
0.446000000000000285,-13.287336345106529834
0.447000000000000286,-13.165099194862225573
0.448000000000000287,-13.044275604809319802
0.449000000000000288,-12.924857791069225499
0.450000000000000289,-12.806837625043943518
0.451000000000000290,-12.690206647079381952
0.452000000000000290,-12.574956079949954457
0.453000000000000291,-12.461076842158480105
0.454000000000000292,-12.348559561045881594
0.455000000000000293,-12.237394585705466454
0.456000000000000294,-12.127571999697282834
0.457000000000000295,-12.019081633558130306
0.458000000000000296,-11.911913077103438496
0.459000000000000297,-11.806055691517624240
0.460000000000000298,-11.701498621229642794
0.461000000000000298,-11.598230805571166258
0.462000000000000299,-11.496240990214975142
0.463000000000000300,-11.395517738391387041
0.464000000000000301,-11.296049441881120146
0.465000000000000302,-11.197824331783168716
0.466000000000000303,-11.100830489056432882
0.467000000000000304,-11.005055854834330020
0.468000000000000305,-10.910488240511876157
0.469000000000000306,-10.817115337604752412
0.470000000000000306,-10.724924727380487965
0.471000000000000307,-10.633903890261644065
0.472000000000000308,-10.544040215001732719
0.473000000000000309,-10.455321007634134745
0.474000000000000310,-10.367733500195019047
0.475000000000000311,-10.281264859221138863
0.476000000000000312,-10.195902194023890530
0.477000000000000313,-10.111632564740606455
0.478000000000000314,-10.028442990164977644
0.479000000000000314,-9.946320455358023338
0.480000000000000315,-9.865251919041481798
0.481000000000000316,-9.785224320775636642
0.482000000000000317,-9.706224587923509617
0.483000000000000318,-9.628239642403706000
0.484000000000000319,-9.551256407234175683
0.485000000000000320,-9.475261812869328892
0.486000000000000321,-9.400242803332954367
0.487000000000000322,-9.326186342149549446
0.488000000000000322,-9.253079418076685769
0.489000000000000323,-9.180909050641298919
0.490000000000000324,-9.109662295482493732
0.491000000000000325,-9.039326249503981003
0.492000000000000326,-8.969888055838818985
0.493000000000000327,-8.901334908629689124
0.494000000000000328,-8.833654057627558842
0.495000000000000329,-8.766832812611893289
0.496000000000000330,-8.700858547635458962
0.497000000000000330,-8.635718705096902426
0.498000000000000331,-8.571400799644234070
0.499000000000000332,-8.507892421912385927
0.500000000000000333,-8.445181242098090735
0.501000000000000334,-8.383255013375224607
0.502000000000000335,-8.322101575153851627
0.503000000000000336,-8.261708856186285033
0.504000000000000337,-8.202064877523202568
0.505000000000000338,-8.143157755323226610
0.506000000000000338,-8.084975703519093670
0.507000000000000339,-8.027507036343614288
0.508000000000000340,-7.970740170718665141
0.509000000000000341,-7.914663628510409055
0.510000000000000342,-7.859266038653882624
0.511000000000000343,-7.804536139150082263
0.512000000000000344,-7.750462778938742581
0.513000000000000345,-7.697034919649894391
0.514000000000000346,-7.644241637237281672
0.515000000000000346,-7.592072123496687475
0.516000000000000347,-7.540515687472181483
0.517000000000000348,-7.489561756753451149
0.518000000000000349,-7.439199878666853394
0.519000000000000350,-7.389419721363507776
0.520000000000000351,-7.340211074807074354
0.521000000000000352,-7.291563851664169427
0.522000000000000353,-7.243468088100271984
0.523000000000000353,-7.195913944483841362
0.524000000000000354,-7.148891706001539781
0.525000000000000355,-7.102391783187087526
0.526000000000000356,-7.056404712366600052
0.527000000000000357,-7.010921156022969392
0.528000000000000358,-6.965931903081838072
0.529000000000000359,-6.921427869121839827
0.530000000000000360,-6.877400096511488314
0.531000000000000361,-6.833839754475310890
0.532000000000000361,-6.790738139091504699
0.533000000000000362,-6.748086673223672172
0.534000000000000363,-6.705876906388811953
0.535000000000000364,-6.664100514563966904
0.536000000000000365,-6.622749299933744282
0.537000000000000366,-6.581815190580934782
0.538000000000000367,-6.541290240122319410
0.539000000000000368,-6.501166627291953937
0.540000000000000369,-6.461436655473787205
0.541000000000000369,-6.422092752185837305
0.542000000000000370,-6.383127468517828973
0.543000000000000371,-6.344533478524195580
0.544000000000000372,-6.306303578574492086
0.545000000000000373,-6.268430686662924245
0.546000000000000374,-6.230907841678899217
0.547000000000000375,-6.193728202640349068
0.548000000000000376,-6.156885047891603513
0.549000000000000377,-6.120371774267452381
0.550000000000000377,-6.084181896225018704
0.551000000000000378,-6.048309044945186841
0.552000000000000379,-6.012746967405006693
0.553000000000000380,-5.977489525422720718
0.554000000000000381,-5.942530694676788627
0.555000000000000382,-5.907864563700538696
0.556000000000000383,-5.873485332853612739
0.557000000000000384,-5.839387313271844349
0.558000000000000385,-5.805564925796706355
0.559000000000000385,-5.772012699885747722
0.560000000000000386,-5.738725272505214470
0.561000000000000387,-5.705697387006140708
0.562000000000000388,-5.672923891985069744
0.563000000000000389,-5.640399740130566109
0.564000000000000390,-5.608119987056651823
0.565000000000000391,-5.576079790124267355
0.566000000000000392,-5.544274407251787551
0.567000000000000393,-5.512699195715672573
0.568000000000000393,-5.481349610942153561
0.569000000000000394,-5.450221205291013504
0.570000000000000395,-5.419309626832373716
0.571000000000000396,-5.388610618117291473
0.572000000000000397,-5.358120014943214215
0.573000000000000398,-5.327833745114953778
0.574000000000000399,-5.297747827202137216
0.575000000000000400,-5.267858369293817233
0.576000000000000401,-5.238161567751052239
0.577000000000000401,-5.208653705958219859
0.578000000000000402,-5.179331153073669647
0.579000000000000403,-5.150190362780477038
0.580000000000000404,-5.121227872037956708
0.581000000000000405,-5.092440299834509077
0.582000000000000406,-5.063824345942441241
0.583000000000000407,-5.035376789675345854
0.584000000000000408,-5.007094488648599295
0.585000000000000409,-4.978974377543491592
0.586000000000000409,-4.951013466875528124
0.587000000000000410,-4.923208841767410249
0.588000000000000411,-4.895557660727110516
0.589000000000000412,-4.868057154431580713
0.590000000000000413,-4.840704624516417809
0.591000000000000414,-4.813497442372023372
0.592000000000000415,-4.786433047946554886
0.593000000000000416,-4.759508948556083752
0.594000000000000417,-4.732722717702300130
0.595000000000000417,-4.706071993898201633
0.596000000000000418,-4.679554479501861763
0.597000000000000419,-4.653167939558898070
0.598000000000000420,-4.626910200653636451
0.599000000000000421,-4.600779149769459231
0.600000000000000422,-4.574772733158465776
0.601000000000000423,-4.548888955220792063
0.602000000000000424,-4.523125877393718852
0.603000000000000425,-4.497481617050891778
0.604000000000000425,-4.471954346411765258
0.605000000000000426,-4.446542291461507368
0.606000000000000427,-4.421243730881604606
