# Ag110_HIP-AC
# h[nm],U(h)[kJ/mol]
0.149999999999999994,150.980676551914882566
0.150999999999999995,144.607427263888723701
0.151999999999999996,141.958461280907329183
0.152999999999999997,140.204340400726664484
0.153999999999999998,138.232921793727427939
0.154999999999999999,135.780510677527558983
0.156000000000000000,132.944157827815388373
0.157000000000000001,129.925544066791019304
0.158000000000000002,126.910687964822813001
0.159000000000000002,124.025426887778777996
0.160000000000000003,121.330019752397902266
0.161000000000000004,118.831302593436504367
0.162000000000000005,116.500354447706143901
0.163000000000000006,114.289491000256020925
0.164000000000000007,112.145880843814779837
0.165000000000000008,110.021037935001388064
0.166000000000000009,107.876458407959077590
0.167000000000000010,105.686117033592068992
0.168000000000000010,103.436660949858534764
0.169000000000000011,101.126088615206285226
0.170000000000000012,98.761573537538481560
0.171000000000000013,96.356939731049038755
0.172000000000000014,93.930148839405688932
0.173000000000000015,91.501031852195026772
0.174000000000000016,89.089396551477378239
0.175000000000000017,86.713565274933515070
0.176000000000000018,84.389343615555134193
0.177000000000000018,82.129385513360475102
0.178000000000000019,79.942899830545897544
0.179000000000000020,77.835634209121579374
0.180000000000000021,75.810070567863220958
0.181000000000000022,73.865770366606312791
0.182000000000000023,71.999814687095479826
0.183000000000000024,70.207292702587736244
0.184000000000000025,68.481801122315843600
0.185000000000000026,66.815925946210086295
0.186000000000000026,65.201685872593856175
0.187000000000000027,63.630923699734374566
0.188000000000000028,62.095637936956407543
0.189000000000000029,60.588251584947144579
0.190000000000000030,59.101818720481105629
0.191000000000000031,57.630172233078972965
0.192000000000000032,56.168017936958563041
0.193000000000000033,54.710981455182320587
0.194000000000000034,53.255614875591774648
0.195000000000000034,51.799370332288255270
0.196000000000000035,50.340547481602378355
0.197000000000000036,48.878221412677824276
0.198000000000000037,47.412156939988584270
0.199000000000000038,45.942714533915797404
0.200000000000000039,44.470752408202578465
0.201000000000000040,42.997528540059107627
0.202000000000000041,41.524605679956522408
0.203000000000000042,40.053761735033766911
0.204000000000000042,38.586907296613887297
0.205000000000000043,37.126011536822893788
0.206000000000000044,35.673037225352658197
0.207000000000000045,34.229885215133620591
0.208000000000000046,32.798348412605008662
0.209000000000000047,31.380074980087197645
0.210000000000000048,29.976540308976723281
0.211000000000000049,28.589027146903923438
0.212000000000000050,27.218613153117026116
0.213000000000000050,25.866165087691570079
0.214000000000000051,24.532338805417065686
0.215000000000000052,23.217584218476950753
0.216000000000000053,21.922154407867957104
0.217000000000000054,20.646118096990335289
0.218000000000000055,19.389374747627094564
0.219000000000000056,18.151671594829487333
0.220000000000000057,16.932621999775882671
0.221000000000000058,15.731724565750834444
0.222000000000000058,14.548382529717722278
0.223000000000000059,13.381923008721187784
0.224000000000000060,12.231615745095401948
0.225000000000000061,11.096691056074231341
0.226000000000000062,9.976356751089481278
0.227000000000000063,8.869813833245771661
0.228000000000000064,7.776270849834801879
0.229000000000000065,6.694956800126368179
0.230000000000000066,5.625132547032074548
0.231000000000000066,4.566100712663063277
0.232000000000000067,3.517214066483574264
0.233000000000000068,2.477882438937607734
0.234000000000000069,1.447578213395219082
0.235000000000000070,0.425840465351081221
0.236000000000000071,-0.587722169641590297
0.237000000000000072,-1.593429808458200370
0.238000000000000073,-2.591530715939640128
0.239000000000000073,-3.582201682074499072
0.240000000000000074,-4.565549277559345143
0.241000000000000075,-5.541611884457725345
0.242000000000000076,-6.510362400235398361
0.243000000000000077,-7.471711516304040401
0.244000000000000078,-8.425511476111569920
0.245000000000000079,-9.371560222556675868
0.246000000000000080,-10.309605849874444061
0.247000000000000081,-11.239351280970392821
0.248000000000000081,-12.160459097309415100
0.249000000000000082,-13.072556454765798861
0.250000000000000111,-13.975240025194324289
0.251000000000000112,-14.868080909791061117
0.252000000000000113,-15.750629476500341397
0.253000000000000114,-16.622420079715325869
0.254000000000000115,-17.482975626273976388
0.255000000000000115,-18.331811957215187192
0.256000000000000116,-19.168442019910667540
0.257000000000000117,-19.992379810000450391
0.258000000000000118,-20.803144067018784824
0.259000000000000119,-21.600261711701044476
0.260000000000000120,-22.383271016704757272
0.261000000000000121,-23.151724505864795134
0.262000000000000122,-23.905191580143583252
0.263000000000000123,-24.643260871139275991
0.264000000000000123,-25.365542325396361889
0.265000000000000124,-26.071669024835795625
0.266000000000000125,-26.761298750405131841
0.267000000000000126,-27.434115297560691005
0.268000000000000127,-28.089829553452734245
0.269000000000000128,-28.728180346708160897
0.270000000000000129,-29.348935081515310941
0.271000000000000130,-29.951890168329533992
0.272000000000000131,-30.536871263952832578
0.273000000000000131,-31.103733334017970691
0.274000000000000132,-31.652360551039286918
0.275000000000000133,-32.182666041200072016
0.276000000000000134,-32.694591492941221134
0.277000000000000135,-33.188106640213725029
0.278000000000000136,-33.663208632974445322
0.279000000000000137,-34.119921307148146639
0.280000000000000138,-34.558294365864597353
0.281000000000000139,-34.978402483317566407
0.282000000000000139,-35.380344342089770748
0.283000000000000140,-35.764241614257791468
0.284000000000000141,-36.130237896036717871
0.285000000000000142,-36.478497605156448458
0.286000000000000143,-36.809204849585483998
0.287000000000000144,-37.122562275637420726
0.288000000000000145,-37.418789902920160273
0.289000000000000146,-37.698123953014324172
0.290000000000000147,-37.960815678209286261
0.291000000000000147,-38.207130196075425488
0.292000000000000148,-38.437345335121747780
0.293000000000000149,-38.651750496272491375
0.294000000000000150,-38.850645534404378623
0.295000000000000151,-39.034339663712799506
0.296000000000000152,-39.203150390225786737
0.297000000000000153,-39.357402474357130018
0.298000000000000154,-39.497426925987028312
0.299000000000000155,-39.623560034178716194
0.300000000000000155,-39.736142433283724529
0.301000000000000156,-39.835518206856136203
0.302000000000000157,-39.922034030487452583
0.303000000000000158,-39.996038354387572156
0.304000000000000159,-40.057880626273551172
0.305000000000000160,-40.107910554886110788
0.306000000000000161,-40.146477414232123238
0.307000000000000162,-40.173929388451014688
0.308000000000000163,-40.190612957020711349
0.309000000000000163,-40.196872319855266653
0.310000000000000164,-40.193048861701200281
0.311000000000000165,-40.179480655108967824
0.312000000000000166,-40.156502001143479674
0.313000000000000167,-40.124443006897578812
0.314000000000000168,-40.083629198787640746
0.315000000000000169,-40.034381170537486128
0.316000000000000170,-39.977014264697295687
0.317000000000000171,-39.911838286493619421
0.318000000000000171,-39.839157248768373165
0.319000000000000172,-39.759269146735064737
0.320000000000000173,-39.672465761259019246
0.321000000000000174,-39.579032489355952862
0.322000000000000175,-39.479248200597055529
0.323000000000000176,-39.373385118109929692
0.324000000000000177,-39.261708722871148325
0.325000000000000178,-39.144477679997741859
0.326000000000000179,-39.021943785762928769
0.327000000000000179,-38.894351934080546584
0.328000000000000180,-38.761940101228262279
0.329000000000000181,-38.624939347607472939
0.330000000000000182,-38.483573835367074878
0.331000000000000183,-38.338060860752726455
0.332000000000000184,-38.188610900076447763
0.333000000000000185,-38.035427668238909860
0.334000000000000186,-37.878708188773828169
0.335000000000000187,-37.718642874422513955
0.336000000000000187,-37.555415617286669772
0.337000000000000188,-37.389203887646040414
0.338000000000000189,-37.220178840569310807
0.339000000000000190,-37.048505429485224738
0.340000000000000191,-36.874342525921775859
0.341000000000000192,-36.697843044660899636
0.342000000000000193,-36.519154073594918941
0.343000000000000194,-36.338417007610281928
0.344000000000000195,-36.155767685861412986
0.345000000000000195,-35.971336531835511607
0.346000000000000196,-35.785248695644490624
0.347000000000000197,-35.597624198016490027
0.348000000000000198,-35.408578075493217341
0.349000000000000199,-35.218220526372888912
0.350000000000000200,-35.026657056970847748
0.351000000000000201,-34.833988627800664517
0.352000000000000202,-34.640311799309017715
0.353000000000000203,-34.445718876825743848
0.354000000000000203,-34.250298054418934157
0.355000000000000204,-34.054133557370235508
0.356000000000000205,-33.857305783011867106
0.357000000000000206,-33.659891439690326820
0.358000000000000207,-33.461963683644533774
0.359000000000000208,-33.263592253608521787
0.360000000000000209,-33.064843602968991831
0.361000000000000210,-32.865781029327621354
0.362000000000000210,-32.666464801336573487
0.363000000000000211,-32.466952282693171128
0.364000000000000212,-32.267298053195894170
0.365000000000000213,-32.067554026779262699
0.366000000000000214,-31.867769566459749342
0.367000000000000215,-31.667991596138286070
0.368000000000000216,-31.468264709217521613
0.369000000000000217,-31.268631274003542586
0.370000000000000218,-31.069131535873168559
0.371000000000000218,-30.869803716197413479
0.372000000000000219,-30.670684108021344372
0.373000000000000220,-30.471807168509439379
0.374000000000000221,-30.273205608172766290
0.375000000000000222,-30.074910476902154244
0.376000000000000223,-29.876951246837808895
0.377000000000000224,-29.679355892111964010
0.378000000000000225,-29.482150965506413343
0.379000000000000226,-29.285361672071775985
0.380000000000000226,-29.089011939759778613
0.381000000000000227,-28.893124487123351685
0.382000000000000228,-28.697720888143379625
0.383000000000000229,-28.502821634243314719
0.384000000000000230,-28.308446193555614201
0.385000000000000231,-28.114613067506752486
0.386000000000000232,-27.921339844788388262
0.387000000000000233,-27.728643252784671347
0.388000000000000234,-27.536539206526406076
0.389000000000000234,-27.345042855243963942
0.390000000000000235,-27.154168626591332014
0.391000000000000236,-26.963930268614291208
0.392000000000000237,-26.774340889535579890
0.393000000000000238,-26.585412995430353078
0.394000000000000239,-26.397158525864558243
0.395000000000000240,-26.209588887568799009
0.396000000000000241,-26.022714986219561695
0.397000000000000242,-25.836547256398880279
0.398000000000000242,-25.651095689802996702
0.399000000000000243,-25.466369861769329930
0.400000000000000244,-25.282378956190015629
0.401000000000000245,-25.099131788879372351
0.402000000000000246,-24.916636829461243252
0.403000000000000247,-24.734902221840620484
0.404000000000000248,-24.553935803323124532
0.405000000000000249,-24.373745122444034905
0.406000000000000250,-24.194337455567055173
0.407000000000000250,-24.015719822311922371
0.408000000000000251,-23.837898999867842775
0.409000000000000252,-23.660881536248581369
0.410000000000000253,-23.484673762543216924
0.411000000000000254,-23.309281804214968759
0.412000000000000255,-23.134711591499002026
0.413000000000000256,-22.960968868948345545
0.414000000000000257,-22.788059204175432626
0.415000000000000258,-22.615987995835329372
0.416000000000000258,-22.444760480894778709
0.417000000000000259,-22.274381741229994702
0.418000000000000260,-22.104856709594191244
0.419000000000000261,-21.936190174994340651
0.420000000000000262,-21.768386787515428438
0.421000000000000263,-21.601451062628413524
0.422000000000000264,-21.435387385017101280
0.423000000000000265,-21.270200011957179242
0.424000000000000266,-21.105893076279890863
0.425000000000000266,-20.942470588950598653
0.426000000000000267,-20.779936441291805949
0.427000000000000268,-20.618294406878423075
0.428000000000000269,-20.457548143131937479
0.429000000000000270,-20.297701192638900380
0.430000000000000271,-20.138756984217714319
0.431000000000000272,-19.980718833756657915
0.432000000000000273,-19.823589944844862032
0.433000000000000274,-19.667373409216875046
0.434000000000000274,-19.512072207030044524
0.435000000000000275,-19.357689206993452302
0.436000000000000276,-19.204227166365548385
0.437000000000000277,-19.051688730836797703
0.438000000000000278,-18.900076434312993001
0.439000000000000279,-18.749392698613490893
0.440000000000000280,-18.599639833097999286
0.441000000000000281,-18.450820034234709510
0.442000000000000282,-18.302935385121632095
0.443000000000000282,-18.155987854972167383
0.444000000000000283,-18.009979298575395035
0.445000000000000284,-17.864911455740600132
0.446000000000000285,-17.720785950734764924
0.447000000000000286,-17.577604291721847574
0.448000000000000287,-17.435367870210590979
0.449000000000000288,-17.294077960518752235
0.450000000000000289,-17.153735719259383785
0.451000000000000290,-17.014342184855557605
0.452000000000000290,-16.875898277088602129
0.453000000000000291,-16.738404796684687170
0.454000000000000292,-16.601862424944219043
0.455000000000000293,-16.466271723417751360
0.456000000000000294,-16.331633133632042387
0.457000000000000295,-16.197946976869218361
0.458000000000000296,-16.065213454001700200
0.459000000000000297,-15.933432645385243731
0.460000000000000298,-15.802604510812011895
0.461000000000000298,-15.672728889525336271
0.462000000000000299,-15.543805500297526834
0.463000000000000300,-15.415833941571637666
0.464000000000000301,-15.288813691668156736
0.465000000000000302,-15.162744109057054942
0.466000000000000303,-15.037624432695427146
0.467000000000000304,-14.913453782430869055
0.468000000000000305,-14.790231159470483391
0.469000000000000306,-14.667955446915078355
0.470000000000000306,-14.546625410358259956
0.471000000000000307,-14.426239698549451873
0.472000000000000308,-14.306796844120407641
0.473000000000000309,-14.188295264373920190
0.474000000000000310,-14.070733262133945374
0.475000000000000311,-13.954109026655601156
0.476000000000000312,-13.838420634594310599
0.477000000000000313,-13.723666051032003210
0.478000000000000314,-13.609843130559411861
0.479000000000000314,-13.496949618412818594
0.480000000000000315,-13.384983151663385925
0.481000000000000316,-13.273941260457757352
0.482000000000000317,-13.163821369307905584
0.483000000000000318,-13.054620798428597794
0.484000000000000319,-12.946336765120587842
0.485000000000000320,-12.838966385197840836
0.486000000000000321,-12.732506674456676166
0.487000000000000322,-12.626954550185200077
0.488000000000000322,-12.522306832710821567
0.489000000000000323,-12.418560246984302609
0.490000000000000324,-12.315711424198116930
0.491000000000000325,-12.213756903437309020
0.492000000000000326,-12.112693133360945552
0.493000000000000327,-12.012516473912260295
0.494000000000000328,-11.913223198055522545
0.495000000000000329,-11.814809493537847374
0.496000000000000330,-11.717271464673954640
0.497000000000000330,-11.620605134152173221
0.498000000000000331,-11.524806444859677867
0.499000000000000332,-11.429871261725406129
0.500000000000000333,-11.335795373578658740
0.501000000000000334,-11.242574495021720793
0.502000000000000335,-11.150204268314810818
0.503000000000000336,-11.058680265271707555
0.504000000000000337,-10.967997989164288697
0.505000000000000338,-10.878152876634477053
0.506000000000000338,-10.789140299612029139
0.507000000000000339,-10.700955567236512422
0.508000000000000340,-10.613593927782051907
0.509000000000000341,-10.527050570583496025
0.510000000000000342,-10.441320627962339174
0.511000000000000343,-10.356399177151205393
0.512000000000000344,-10.272281242215512975
0.513000000000000345,-10.188961795970968183
0.514000000000000346,-10.106435761895756542
0.515000000000000346,-10.024698016036049708
0.516000000000000347,-9.943743388903767411
0.517000000000000348,-9.863566667365514462
0.518000000000000349,-9.784162596521385424
0.519000000000000350,-9.705525881572839353
0.520000000000000351,-9.627651189678491761
0.521000000000000352,-9.550533151796877007
0.522000000000000353,-9.474166364515323124
0.523000000000000353,-9.398545391863853737
0.524000000000000354,-9.323664767113619689
0.525000000000000355,-9.249518994558673768
0.526000000000000356,-9.176102551280532538
0.527000000000000357,-9.103409888894852031
0.528000000000000358,-9.031435435279217216
0.529000000000000359,-8.960173596281816089
0.530000000000000360,-8.889618757409952110
0.531000000000000361,-8.819765285498167628
0.532000000000000361,-8.750607530355138053
0.533000000000000362,-8.682139826389031256
0.534000000000000363,-8.614356494210749560
0.535000000000000364,-8.547251842214569351
0.536000000000000365,-8.480820168135881687
0.537000000000000366,-8.415055760585506306
0.538000000000000367,-8.349952900560310809
0.539000000000000368,-8.285505862929815279
0.540000000000000369,-8.221708917898375546
0.541000000000000369,-8.158556332442824299
0.542000000000000370,-8.096042371725209463
0.543000000000000371,-8.034161300480445078
0.544000000000000372,-7.972907384378723705
0.545000000000000373,-7.912274891362491402
0.546000000000000374,-7.852258092957784541
0.547000000000000375,-7.792851265559926688
0.548000000000000376,-7.734048691693426569
0.549000000000000377,-7.675844661246022049
0.550000000000000377,-7.618233472676715579
0.551000000000000378,-7.561209434197964541
0.552000000000000379,-7.504766864931854187
0.553000000000000380,-7.448900096040321550
0.554000000000000381,-7.393603471829419682
0.555000000000000382,-7.338871350827770534
0.556000000000000383,-7.284698106839071485
0.557000000000000384,-7.231078129968951274
0.558000000000000385,-7.178005827626098956
0.559000000000000385,-7.125475625497871945
0.560000000000000386,-7.073481968500436423
0.561000000000000387,-7.022019321703647954
0.562000000000000388,-6.971082171230738922
0.563000000000000389,-6.920665025133038384
0.564000000000000390,-6.870762414239862892
0.565000000000000391,-6.821368892983771914
0.566000000000000392,-6.772479040201377920
0.567000000000000393,-6.724087459909940279
0.568000000000000393,-6.676188782059898408
0.569000000000000394,-6.628777663263607955
0.570000000000000395,-6.581848787500573117
0.571000000000000396,-6.535396866799236371
0.572000000000000397,-6.489416641895805249
0.573000000000000398,-6.443902882870167659
0.574000000000000399,-6.398850389759292767
0.575000000000000400,-6.354253993148291535
0.576000000000000401,-6.310108554739482400
0.577000000000000401,-6.266408967899741000
0.578000000000000402,-6.223150158186312453
0.579000000000000403,-6.180327083851501868
0.580000000000000404,-6.137934736326495333
0.581000000000000405,-6.095968140684560943
0.582000000000000406,-6.054422356084002921
0.583000000000000407,-6.013292476191090863
0.584000000000000408,-5.972573629583367349
0.585000000000000409,-5.932260980133537309
0.586000000000000409,-5.892349727374345925
0.587000000000000410,-5.852835106844679558
0.588000000000000411,-5.813712390417248521
0.589000000000000412,-5.774976886608177651
0.590000000000000413,-5.736623940868740945
0.591000000000000414,-5.698648935859660369
0.592000000000000415,-5.661047291708245943
0.593000000000000416,-5.623814466248636457
0.594000000000000417,-5.586945955245529838
0.595000000000000417,-5.550437292601775319
0.596000000000000418,-5.514284050549902005
0.597000000000000419,-5.478481839828251765
0.598000000000000420,-5.443026309841705768
0.599000000000000421,-5.407913148807526049
0.600000000000000422,-5.373138083886529692
0.601000000000000423,-5.338696881299964225
0.602000000000000424,-5.304585346432327597
0.603000000000000425,-5.270799323920498658
0.604000000000000425,-5.237334697729460586
0.605000000000000426,-5.204187391214910363
0.606000000000000427,-5.171353367173122884
