# ZnO1m210BOND_CHL-AC
# h[nm],U(h)[kJ/mol]
0.149999999999999994,211.195605938254715284
0.150999999999999995,208.685531610414358283
0.151999999999999996,206.909901029079264845
0.152999999999999997,205.281616093881126517
0.153999999999999998,203.583413046943661584
0.154999999999999999,201.773666289782880767
0.156000000000000000,199.880762967944633601
0.157000000000000001,197.949871865857232933
0.158000000000000002,196.019477358177937276
0.159000000000000002,194.113859092242506676
0.160000000000000003,192.243340195681668092
0.161000000000000004,190.407672239403524372
0.162000000000000005,188.600099785416716713
0.163000000000000006,186.810938925060440852
0.164000000000000007,185.030237423682905273
0.165000000000000008,183.249472499123356783
0.166000000000000009,181.462424384001963062
0.167000000000000010,179.665427918119945616
0.168000000000000010,177.857205474868976580
0.169000000000000011,176.038455787434941158
0.170000000000000012,174.211333971514761743
0.171000000000000013,172.378918706546670592
0.172000000000000014,170.544728214481153827
0.173000000000000015,168.712319267154441604
0.174000000000000016,166.884983098948907809
0.175000000000000017,165.065538049801176612
0.176000000000000018,163.256209899763632620
0.177000000000000018,161.458586000909065206
0.178000000000000019,159.673627379480876698
0.179000000000000020,157.901723049190849224
0.180000000000000021,156.142772107971438800
0.181000000000000022,154.396281223923409698
0.182000000000000023,152.661467444621933964
0.183000000000000024,150.937358607895873774
0.184000000000000025,149.222885812892087642
0.185000000000000026,147.516964325107977629
0.186000000000000026,145.818560890926192997
0.187000000000000027,144.126746717178519930
0.188000000000000028,142.440736345593620626
0.189000000000000029,140.759913351777811386
0.190000000000000030,139.083844262333343522
0.191000000000000031,137.412282352901939930
0.192000000000000032,135.745163104355896166
0.193000000000000033,134.082593090826861726
0.194000000000000034,132.424833984189120883
0.195000000000000034,130.772283212509336181
0.196000000000000035,129.125452627456752452
0.197000000000000036,127.484946335714113275
0.198000000000000037,125.851438645816443795
0.199000000000000038,124.225652884727338687
0.200000000000000039,122.608341654895724560
0.201000000000000040,121.000268937054300977
0.202000000000000041,119.402194299144952083
0.203000000000000042,117.814859348441132170
0.204000000000000042,116.238976461968761100
0.205000000000000043,114.675219748668681063
0.206000000000000044,113.124218133781454299
0.207000000000000045,111.586550409734030609
0.208000000000000046,110.062742066246386230
0.209000000000000047,108.553263693306774940
0.210000000000000048,107.058530741988349178
0.211000000000000049,105.578904427828121015
0.212000000000000050,104.114693567850551403
0.213000000000000050,102.666157153684451941
0.214000000000000051,101.233507478175866368
0.215000000000000052,99.816913650232635291
0.216000000000000053,98.416505351337022489
0.217000000000000054,97.032376706394103394
0.218000000000000055,95.664590160684170428
0.219000000000000056,94.313180273142179999
0.220000000000000057,92.978157353602583157
0.221000000000000058,91.659510887766742826
0.222000000000000058,90.357212708275170598
0.223000000000000059,89.071219883318747179
0.224000000000000060,87.801477305652213090
0.225000000000000061,86.547919974705735058
0.226000000000000062,85.310474972777498692
0.227000000000000063,84.089063143116163701
0.228000000000000064,82.883600483176650187
0.229000000000000065,81.693999270566962423
0.230000000000000066,80.520168942331466155
0.231000000000000066,79.362016750358947093
0.232000000000000067,78.219448216992617517
0.233000000000000068,77.092367415475450798
0.234000000000000069,75.980677099805248531
0.235000000000000070,74.884278708004515579
0.236000000000000071,73.803072261838195800
0.237000000000000072,72.736956184716504481
0.238000000000000073,71.685827057991659217
0.239000000000000073,70.649579334161856536
0.240000000000000074,69.628105023692498321
0.241000000000000075,68.621293370315171956
0.242000000000000076,67.629030527802939332
0.243000000000000077,66.651199249390927548
0.244000000000000078,65.687678599240200583
0.245000000000000079,64.738343693655139077
0.246000000000000080,63.803065478176826275
0.247000000000000081,62.881710545201940477
0.248000000000000081,61.974140995425372580
0.249000000000000082,61.080214345181921942
0.250000000000000111,60.199783480668180857
0.251000000000000112,59.332696659060104594
0.252000000000000113,58.478797555702840327
0.253000000000000114,57.637925355831065133
0.254000000000000115,56.809914888675358213
0.255000000000000115,55.994596801316291135
0.256000000000000116,55.191797769254762329
0.257000000000000117,54.401340740366777027
0.258000000000000118,53.623045208696069608
0.259000000000000119,52.856727514399175050
0.260000000000000120,52.102201166085947648
0.261000000000000121,51.359277181788833389
0.262000000000000122,50.627764444835449353
0.263000000000000123,49.907470070985894495
0.264000000000000123,49.198199783320461620
0.265000000000000124,48.499758291520201681
0.266000000000000125,47.811949672364008279
0.267000000000000126,47.134577748467563652
0.268000000000000127,46.467446462506110549
0.269000000000000128,45.810360244390096796
0.270000000000000129,45.163124369096188104
0.271000000000000130,44.525545303092165739
0.272000000000000131,43.897431037530779463
0.273000000000000131,43.278591406620037674
0.274000000000000132,42.668838389806012401
0.275000000000000133,42.067986396624043266
0.276000000000000134,41.475852533286499124
0.277000000000000135,40.892256850277320268
0.278000000000000136,40.317022570413215021
0.279000000000000137,39.749976297011279769
0.280000000000000138,39.190948201968545561
0.281000000000000139,38.639772193713078252
0.282000000000000139,38.096286065126946596
0.283000000000000140,37.560331621669746482
0.284000000000000141,37.031754790046392145
0.285000000000000142,36.510405707866368630
0.286000000000000143,35.996138794831892938
0.287000000000000144,35.488812806072367323
0.288000000000000145,34.988290868309881887
0.289000000000000146,34.494440499598681527
0.290000000000000147,34.007133613428187857
0.291000000000000147,33.526246508017791825
0.292000000000000148,33.051659841660146810
0.293000000000000149,32.583258594991391988
0.294000000000000150,32.120932021079312335
0.295000000000000151,31.664573584227746039
0.296000000000000152,31.214080888394892810
0.297000000000000153,30.769355596118714402
0.298000000000000154,30.330303338830663762
0.299000000000000155,29.896833619425070339
0.300000000000000155,29.468859707931226666
0.301000000000000156,29.046298531113443175
0.302000000000000157,28.629070556797511671
0.303000000000000158,28.217099673694757911
0.304000000000000159,27.810313067463606984
0.305000000000000160,27.408641093716745729
0.306000000000000161,27.012017148648293841
0.307000000000000162,26.620377537920678179
0.308000000000000163,26.233661344415587280
0.309000000000000163,25.851810295417703145
0.310000000000000164,25.474768629763715921
0.311000000000000165,25.102482965453297936
0.312000000000000166,24.734902168183143800
0.313000000000000167,24.371977221229663257
0.314000000000000168,24.013661097071796746
0.315000000000000169,23.659908631110873500
0.316000000000000170,23.310676397812251537
0.317000000000000171,22.965922589560697986
0.318000000000000171,22.625606898491330554
0.319000000000000172,22.289690401527394670
0.320000000000000173,21.958135448828226544
0.321000000000000174,21.630905555823176201
0.322000000000000175,21.307965298981081048
0.323000000000000176,20.989280215440718536
0.324000000000000177,20.674816706603522221
0.325000000000000178,20.364541945768714015
0.326000000000000179,20.058423789869262777
0.327000000000000179,19.756430695348722537
0.328000000000000180,19.458531638200064151
0.329000000000000181,19.164696038171236125
0.330000000000000182,18.874893687126576225
0.331000000000000183,18.589094681538622211
0.332000000000000184,18.307269359071845827
0.333000000000000185,18.029388239207960964
0.334000000000000186,17.755421967851152232
0.335000000000000187,17.485341265841974234
0.336000000000000187,17.219116881299679989
0.337000000000000188,16.956719545705112751
0.338000000000000189,16.698119933628891687
0.339000000000000190,16.443288626003884190
0.340000000000000191,16.192196076835699614
0.341000000000000192,15.944812583240382864
0.342000000000000193,15.701108258694651099
0.343000000000000194,15.461053009381254597
0.344000000000000195,15.224616513509692695
0.345000000000000195,14.991768203490305922
0.346000000000000196,14.762477250839179277
0.347000000000000197,14.536712553690156469
0.348000000000000198,14.314442726790442606
0.349000000000000199,14.095636093856185767
0.350000000000000200,13.880260682165390662
0.351000000000000201,13.668284219266467971
0.352000000000000202,13.459674131682039189
0.353000000000000203,13.254397545489547738
0.354000000000000203,13.052421288661790300
0.355000000000000204,12.853711895053313796
0.356000000000000205,12.658235609920463816
0.357000000000000206,12.465958396865840285
0.358000000000000207,12.276845946100785056
0.359000000000000208,12.090863683922240313
0.360000000000000209,11.907976783303505286
0.361000000000000210,11.728150175501756536
0.362000000000000210,11.551348562588160007
0.363000000000000211,11.377536430809993107
0.364000000000000212,11.206678064697477737
0.365000000000000213,11.038737561831325706
0.366000000000000214,10.873678848190728274
0.367000000000000215,10.711465694004639104
0.368000000000000216,10.552061730032770370
0.369000000000000217,10.395430464206217636
0.370000000000000218,10.241535298560835443
0.371000000000000218,10.090339546400095116
0.372000000000000219,9.941806449627080156
0.373000000000000220,9.795899196188964098
0.374000000000000221,9.652580937580108156
0.375000000000000222,9.511814806353612539
0.376000000000000223,9.373563933593302977
0.377000000000000224,9.237791466302178733
0.378000000000000225,9.104460584665499567
0.379000000000000226,8.973534519149907851
0.380000000000000226,8.844976567402408563
0.381000000000000227,8.718750110916214879
0.382000000000000228,8.594818631432385558
0.383000000000000229,8.473145727049239184
0.384000000000000230,8.353695128013578497
0.385000000000000231,8.236430712170188073
0.386000000000000232,8.121316520048385001
0.387000000000000233,8.008316769566153681
0.388000000000000234,7.897395870335112811
0.389000000000000234,7.788518437550704832
0.390000000000000235,7.681649305454479659
0.391000000000000236,7.576753540356851779
0.392000000000000237,7.473796453210428403
0.393000000000000238,7.372743611725558921
0.394000000000000239,7.273560852021498491
0.395000000000000240,7.176214289807679059
0.396000000000000241,7.080670331091228675
0.397000000000000242,6.986895682408059471
0.398000000000000242,6.894857360575935346
0.399000000000000243,6.804522701969387022
0.400000000000000244,6.715859371316956761
0.401000000000000245,6.628835370022628126
0.402000000000000246,6.543419044014169295
0.403000000000000247,6.459579091121632644
0.404000000000000248,6.377284567990616715
0.405000000000000249,6.296504896535130236
0.406000000000000250,6.217209869935935274
0.407000000000000250,6.139369658190661383
0.408000000000000251,6.062954813222630968
0.409000000000000252,5.987936273555929390
0.410000000000000253,5.914285368564579315
0.411000000000000254,5.841973822304238340
0.412000000000000255,5.770973756935227073
0.413000000000000256,5.701257695745848508
0.414000000000000257,5.632798565785587463
0.415000000000000258,5.565569700117661611
0.416000000000000258,5.499544839701004939
0.417000000000000259,5.434698134911643663
0.418000000000000260,5.371004146713786120
0.419000000000000261,5.308437847490925954
0.420000000000000262,5.246974621547581208
0.421000000000000263,5.186590265292037927
0.422000000000000264,5.127260987110879853
0.423000000000000265,5.068963406945824701
0.424000000000000266,5.011674555583458535
0.425000000000000266,4.955371873668658722
0.426000000000000267,4.900033210452013677
0.427000000000000268,4.845636822281968570
0.428000000000000269,4.792161370852035418
0.429000000000000270,4.739585921213371300
0.430000000000000271,4.687889939563087083
0.431000000000000272,4.637053290818253792
0.432000000000000273,4.587056235985724761
0.433000000000000274,4.537879429337552395
0.434000000000000274,4.489503915401670930
0.435000000000000275,4.441911125777471270
0.436000000000000276,4.395082875785520926
0.437000000000000277,4.349001360960681239
0.438000000000000278,4.303649153397612004
0.439000000000000279,4.259009197957445814
0.440000000000000280,4.215064808344274994
0.441000000000000281,4.171799663059909236
0.442000000000000282,4.129197801244953503
0.443000000000000282,4.087243618414485802
0.444000000000000283,4.045921862095841703
0.445000000000000284,4.005217627376311817
0.446000000000000285,3.965116352368059260
0.447000000000000286,3.925603813597342118
0.448000000000000287,3.886666121325159651
0.449000000000000288,3.848289714805888106
0.450000000000000289,3.810461357490564360
0.451000000000000290,3.773168132181078160
0.452000000000000290,3.736397436141325468
0.453000000000000291,3.700136976171358949
0.454000000000000292,3.664374763650051214
0.455000000000000293,3.629099109551896962
0.456000000000000294,3.594298619443151210
0.457000000000000295,3.559962188462372445
0.458000000000000296,3.526078996290331169
0.459000000000000297,3.492638502113876164
0.460000000000000298,3.459630439588310846
0.461000000000000298,3.427044811802529178
0.462000000000000299,3.394871886251085158
0.463000000000000300,3.363102189817110066
0.464000000000000301,3.331726503769782965
0.465000000000000302,3.300735858780004861
0.466000000000000303,3.270121529957693784
0.467000000000000304,3.239875031913796111
0.468000000000000305,3.209988113850336333
0.469000000000000306,3.180452754681212024
0.470000000000000306,3.151261158186542843
0.471000000000000307,3.122405748203308740
0.472000000000000308,3.093879163854576397
0.473000000000000309,3.065674254819708899
0.474000000000000310,3.037784076647752407
0.475000000000000311,3.010201886116006698
0.476000000000000312,2.982921136635725556
0.477000000000000313,2.955935473706653660
0.478000000000000314,2.929238730422212722
0.479000000000000314,2.902824923026687376
0.480000000000000315,2.876688246525982429
0.481000000000000316,2.850823070353194044
0.482000000000000317,2.825223934090215216
0.483000000000000318,2.799885543246460884
0.484000000000000319,2.774802765095723434
0.485000000000000320,2.749970624572079636
0.486000000000000321,2.725384300225589307
0.487000000000000322,2.701039120238536206
0.488000000000000322,2.676930558502930158
0.489000000000000323,2.653054230759614995
0.490000000000000324,2.629405890799632495
0.491000000000000325,2.605981426728143369
0.492000000000000326,2.582776857291251282
0.493000000000000327,2.559788328265915958
0.494000000000000328,2.537012108913238695
0.495000000000000329,2.514444588495096333
0.496000000000000330,2.492082272854333702
0.497000000000000330,2.469921781058288524
0.498000000000000331,2.447959842105885464
0.499000000000000332,2.426193291697855248
0.500000000000000333,2.404619069070110804
0.501000000000000334,2.383234213890093045
0.502000000000000335,2.362035863215615983
0.503000000000000336,2.341021248516149011
0.504000000000000337,2.320187692756006115
0.505000000000000338,2.299532607539160445
0.506000000000000338,2.279053490315221531
0.507000000000000339,2.258747921646102164
0.508000000000000340,2.238613562532981938
0.509000000000000341,2.218648151802862678
0.510000000000000342,2.198849503554395124
0.511000000000000343,2.179215504662206371
0.512000000000000344,2.159744112339263555
0.513000000000000345,2.140433351756599656
0.514000000000000346,2.121281313719701522
0.515000000000000346,2.102286152401036556
0.516000000000000347,2.083446083127925341
0.517000000000000348,2.064759380225066110
0.518000000000000349,2.046224374911074673
0.519000000000000350,2.027839453248230228
0.520000000000000351,2.009603054144771583
0.521000000000000352,1.991513667408873145
0.522000000000000353,1.973569831853705825
0.523000000000000353,1.955770133452641391
0.524000000000000354,1.938113203543978980
0.525000000000000355,1.920597717084260081
0.526000000000000356,1.903222390949561360
0.527000000000000357,1.885985982283778339
0.528000000000000358,1.868887286893274879
0.529000000000000359,1.851925137686948108
0.530000000000000360,1.835098403161084857
0.531000000000000361,1.818405985928012836
0.532000000000000361,1.801846821287893530
0.533000000000000362,1.785419875842770399
0.534000000000000363,1.769124146152152077
0.535000000000000364,1.752958657429206868
0.536000000000000365,1.736922462276929480
0.537000000000000366,1.721014639463332330
0.538000000000000367,1.705234292735038126
0.539000000000000368,1.689580549668284970
0.540000000000000369,1.674052560556787750
0.541000000000000369,1.658649497335461076
0.542000000000000370,1.643370552539460405
0.543000000000000371,1.628214938297559033
0.544000000000000372,1.613181885359270540
0.545000000000000373,1.598270642154862697
0.546000000000000374,1.583480473887587170
0.547000000000000375,1.568810661657355165
0.548000000000000376,1.554260501615119860
0.549000000000000377,1.539829304147307010
0.550000000000000377,1.525516393089468181
0.551000000000000378,1.511321104968621487
0.552000000000000379,1.497242788273396519
0.553000000000000380,1.483280802751447025
0.554000000000000381,1.469434518733405692
0.555000000000000382,1.455703316482648280
0.556000000000000383,1.442086585570355073
0.557000000000000384,1.428583724275042099
0.558000000000000385,1.415194139006113572
0.559000000000000385,1.401917243750638420
0.560000000000000386,1.388752459542831330
0.561000000000000387,1.375699213955604128
0.562000000000000388,1.362756940613609080
0.563000000000000389,1.349925078727103323
0.564000000000000390,1.337203072646176105
0.565000000000000391,1.324590371434674063
0.566000000000000392,1.312086428463334453
0.567000000000000393,1.299690701021481543
0.568000000000000393,1.287402649946885580
0.569000000000000394,1.275221739273120658
0.570000000000000395,1.263147435893983594
0.571000000000000396,1.251179209244460688
0.572000000000000397,1.239316530997665255
0.573000000000000398,1.227558874777399112
0.574000000000000399,1.215905715885686522
0.575000000000000400,1.204356531044977086
0.576000000000000401,1.192910798154453111
0.577000000000000401,1.181567996059976755
0.578000000000000402,1.170327604337337402
0.579000000000000403,1.159189103088308581
0.580000000000000404,1.148151972749011929
0.581000000000000405,1.137215693910375247
0.582000000000000406,1.126379747150053845
0.583000000000000407,1.115643612875598656
0.584000000000000408,1.105006771178383529
0.585000000000000409,1.094468701697952850
0.586000000000000409,1.084028883496442219
0.587000000000000410,1.073686794942616540
0.588000000000000411,1.063441913605360112
0.589000000000000412,1.053293716156029403
0.590000000000000413,1.043241678279582363
0.591000000000000414,1.033285274593978231
0.592000000000000415,1.023423978577610249
0.593000000000000416,1.013657262504462864
0.594000000000000417,1.003984597386686106
0.595000000000000417,0.994405452924213562
0.596000000000000418,0.984919297461325227
0.597000000000000419,0.975525597949645773
0.598000000000000420,0.966223819917515270
0.599000000000000421,0.957013427445300935
0.600000000000000422,0.947893883146507243
0.601000000000000423,0.938864648154409287
0.602000000000000424,0.929925182113899851
0.603000000000000425,0.921074943178392447
0.604000000000000425,0.912313388011551263
0.605000000000000426,0.903639971793561814
0.606000000000000427,0.895054148231734126
0.607000000000000428,0.886555369575376950
0.608000000000000429,0.878143086634424086
0.609000000000000430,0.869816748802020312
0.610000000000000431,0.861575804080488061
0.611000000000000432,0.853419699110755325
0.612000000000000433,0.845347879204964014
0.613000000000000433,0.837359788382051939
0.614000000000000434,0.829454869406201167
0.615000000000000435,0.821632563827969342
0.616000000000000436,0.813892312027962639
0.617000000000000437,0.806233553262778124
