# ZnO1m210BOND_ETA-AC
# h[nm],U(h)[kJ/mol]
0.200000000000000011,39.030165062351912297
0.201000000000000012,38.006739795158004824
0.202000000000000013,37.270162231597623759
0.203000000000000014,36.652505133463101572
0.204000000000000015,36.063307996041004344
0.205000000000000016,35.459902160328326204
0.206000000000000016,34.827602538172719449
0.207000000000000017,34.166827881075178652
0.208000000000000018,33.485014134168530120
0.209000000000000019,32.791783052407787125
0.210000000000000020,32.096270594034209012
0.211000000000000021,31.405844761458091341
0.212000000000000022,30.725679692987721836
0.213000000000000023,30.058824162278995118
0.214000000000000024,29.406525122272505257
0.215000000000000024,28.768653338106645379
0.216000000000000025,28.144138140633334189
0.217000000000000026,27.531359140351685966
0.218000000000000027,26.928469774441460061
0.219000000000000028,26.333644823984275973
0.220000000000000029,25.745254484032141562
0.221000000000000030,25.161973348933749151
0.222000000000000031,24.582835345091591961
0.223000000000000032,24.007246313865302056
0.224000000000000032,23.434965399964927002
0.225000000000000033,22.866065174720834108
0.226000000000000034,22.300878882318130536
0.227000000000000035,21.739941576981344440
0.228000000000000036,21.183930366773775944
0.229000000000000037,20.633607578954237027
0.230000000000000038,20.089769453681494582
0.231000000000000039,19.553201969863739151
0.232000000000000040,19.024644603687129063
0.233000000000000040,18.504762200708814390
0.234000000000000041,17.994124684628143740
0.235000000000000042,17.493194006031007603
0.236000000000000043,17.002317528650547018
0.237000000000000044,16.521726936543959852
0.238000000000000045,16.051541702787975652
0.239000000000000046,15.591776171157894382
0.240000000000000047,15.142349351742860009
0.241000000000000048,14.703096607107918103
0.242000000000000048,14.273782497358439514
0.243000000000000049,13.854114152339883859
0.244000000000000050,13.443754641115631898
0.245000000000000051,13.042335908274941048
0.246000000000000052,12.649470940322462553
0.247000000000000053,12.264764911243918988
0.248000000000000054,11.887825133046700188
0.249000000000000055,11.518269704025495770
0.250000000000000056,11.155734804598603560
0.251000000000000056,10.799880638075947559
0.252000000000000057,10.450396052196326835
0.253000000000000058,10.107001907429101095
0.254000000000000059,9.769453280698694897
0.255000000000000060,9.437540609236421574
0.256000000000000061,9.111089889576424738
0.257000000000000062,8.789962052153583727
0.258000000000000063,8.474051633347077228
0.259000000000000064,8.163284864900893112
0.260000000000000064,7.857617296129584261
0.261000000000000065,7.557031057798883289
0.262000000000000066,7.261531868594647499
0.263000000000000067,6.971145876129051899
0.264000000000000068,6.685916414874827574
0.265000000000000069,6.405900753599654607
0.266000000000000070,6.131166895066057165
0.267000000000000071,5.861790481184327106
0.268000000000000071,5.597851847629034872
0.269000000000000072,5.339433263280212394
0.270000000000000073,5.086616381821250421
0.271000000000000074,4.839479925477017552
0.272000000000000075,4.598097614242066200
0.273000000000000076,4.362536348043493994
0.274000000000000077,4.132854644100381947
0.275000000000000078,3.909101327263800663
0.276000000000000079,3.691314467318048465
0.277000000000000079,3.479520554057039305
0.278000000000000080,3.273733898377245488
0.279000000000000081,3.073956245601350723
0.280000000000000082,2.880176585717185933
0.281000000000000083,2.692371144133147709
0.282000000000000084,2.510503535865503455
0.283000000000000085,2.334525065735696625
0.284000000000000086,2.164375157120754345
0.285000000000000087,1.999981892023465324
0.286000000000000087,1.841262645669457854
0.287000000000000088,1.688124799457944691
0.288000000000000089,1.540466516856772383
0.289000000000000090,1.398177567708436486
0.290000000000000091,1.261140187374292898
0.291000000000000092,1.129229958162681458
0.292000000000000093,1.002316701542227850
0.293000000000000094,0.880265370713620876
0.294000000000000095,0.762936934185636684
0.295000000000000095,0.650189242059403982
0.296000000000000096,0.541877867757560971
0.297000000000000097,0.437856918931558592
0.298000000000000098,0.337979812233895172
0.299000000000000099,0.242100007545489493
0.300000000000000100,0.150071698098153405
0.301000000000000101,0.061750453724026322
0.302000000000000102,-0.023006184803199825
0.303000000000000103,-0.104338161698393897
0.304000000000000103,-0.182382413117250314
0.305000000000000104,-0.257272425329668153
0.306000000000000105,-0.329137843819365394
0.307000000000000106,-0.398104132577770886
0.308000000000000107,-0.464292282477686391
0.309000000000000108,-0.527818567281258533
0.310000000000000109,-0.588794345555195164
0.311000000000000110,-0.647325906530155981
0.312000000000000111,-0.703514357748767138
0.313000000000000111,-0.757455552193405879
0.314000000000000112,-0.809240052468697457
0.315000000000000113,-0.858953129530614978
0.316000000000000114,-0.906674793401610501
0.317000000000000115,-0.952479853285902012
0.318000000000000116,-0.996438004498397367
0.319000000000000117,-1.038613939641640505
0.320000000000000118,-1.079067481505148862
0.321000000000000119,-1.117853735218102162
0.322000000000000119,-1.155023257257031588
0.323000000000000120,-1.190622238992854909
0.324000000000000121,-1.224692702554438295
0.325000000000000122,-1.257272706886547686
0.326000000000000123,-1.288396561987306344
0.327000000000000124,-1.318095049422159715
0.328000000000000125,-1.346395647326863010
0.329000000000000126,-1.373322758229248208
0.330000000000000127,-1.398897938138038421
0.331000000000000127,-1.423140125465209849
0.332000000000000128,-1.446065868465713056
0.333000000000000129,-1.467689549993885567
0.334000000000000130,-1.488023608488930449
0.335000000000000131,-1.507078754211948590
0.336000000000000132,-1.524864179863323788
0.337000000000000133,-1.541387764812012895
0.338000000000000134,-1.556656272266414565
0.339000000000000135,-1.570675538810276217
0.340000000000000135,-1.583450655816167396
0.341000000000000136,-1.594986142333096435
0.342000000000000137,-1.605286109124142824
0.343000000000000138,-1.614354413604081273
0.344000000000000139,-1.622194805496279146
0.345000000000000140,-1.628811063092343137
0.346000000000000141,-1.634207120057388662
0.347000000000000142,-1.638387182778334505
0.348000000000000143,-1.641355838302632764
0.349000000000000143,-1.643118152960077794
0.350000000000000144,-1.643679761801449146
0.351000000000000145,-1.643046949024420389
0.352000000000000146,-1.641226719589984118
0.353000000000000147,-1.638226862261448646
0.354000000000000148,-1.634056004323393596
0.355000000000000149,-1.628723658259622287
0.356000000000000150,-1.622240260687744851
0.357000000000000151,-1.614617203863402128
0.358000000000000151,-1.605866860079714131
0.359000000000000152,-1.596002599297389413
0.360000000000000153,-1.585038800348385957
0.361000000000000154,-1.572990856061006415
0.362000000000000155,-1.559875172657346765
0.363000000000000156,-1.545709163775017991
0.364000000000000157,-1.530511239464237505
0.365000000000000158,-1.514300790509163441
0.366000000000000159,-1.497098168418336428
0.367000000000000159,-1.478924661424072085
0.368000000000000160,-1.459802466824334122
0.369000000000000161,-1.439754659993218722
0.370000000000000162,-1.418805160377976549
0.371000000000000163,-1.396978694791519704
0.372000000000000164,-1.374300758299509484
0.373000000000000165,-1.350797572991039308
0.374000000000000166,-1.326496044911033012
0.375000000000000167,-1.301423719421404446
0.376000000000000167,-1.275608735246654302
0.377000000000000168,-1.249079777447867023
0.378000000000000169,-1.221866029557326261
0.379000000000000170,-1.193997125094145906
0.380000000000000171,-1.165503098669345095
0.381000000000000172,-1.136414336877054954
0.382000000000000173,-1.106761529156680579
0.383000000000000174,-1.076575618799341161
0.384000000000000175,-1.045887754260296898
0.385000000000000175,-1.014729240927958021
0.386000000000000176,-0.983131493488965780
0.387000000000000177,-0.951125989018070994
0.388000000000000178,-0.918744220911159259
0.389000000000000179,-0.886017653769457736
0.390000000000000180,-0.852977679333268290
0.391000000000000181,-0.819655573553923156
0.392000000000000182,-0.786082454883658910
0.393000000000000183,-0.752289243854125544
0.394000000000000183,-0.718306624005962346
0.395000000000000184,-0.684165004223747930
0.396000000000000185,-0.649894482522872519
0.397000000000000186,-0.615524811327679999
0.398000000000000187,-0.581085364273153493
0.399000000000000188,-0.546605104555871413
0.400000000000000189,-0.512112554853769053
0.401000000000000190,-0.477635768828261920
0.402000000000000191,-0.443202304216938514
0.403000000000000191,-0.408839197519662967
0.404000000000000192,-0.374572940276252153
0.405000000000000193,-0.340429456929294605
0.406000000000000194,-0.306434084261519857
0.407000000000000195,-0.272611552393278944
0.408000000000000196,-0.238985967322061482
0.409000000000000197,-0.205580794982733794
0.410000000000000198,-0.172418846804208464
0.411000000000000199,-0.139522266735424616
0.412000000000000199,-0.106912519711143128
0.413000000000000200,-0.074610381525783323
0.414000000000000201,-0.042635930081566034
0.415000000000000202,-0.011008537975390165
0.416000000000000203,0.020253133612529471
0.417000000000000204,0.051131139766772062
0.418000000000000205,0.081608255461047954
0.419000000000000206,0.111667977999305473
0.420000000000000207,0.141294528314973550
0.421000000000000207,0.170472851170165945
0.422000000000000208,0.199188614297406946
0.423000000000000209,0.227428206526491483
0.424000000000000210,0.255178734939494056
0.425000000000000211,0.282428021096915338
0.426000000000000212,0.309164596377898948
0.427000000000000213,0.335377696477352327
0.428000000000000214,0.361057255102457841
0.429000000000000214,0.386193896910798418
0.430000000000000215,0.410778929731824616
0.431000000000000216,0.434804336112847190
0.432000000000000217,0.458262764230250308
0.433000000000000218,0.481147518205849001
0.434000000000000219,0.503452547867667466
0.435000000000000220,0.525172437993623342
0.436000000000000221,0.546302397075797641
0.437000000000000222,0.566838245642108829
0.438000000000000222,0.586776404171308608
0.439000000000000223,0.606113880636279800
0.440000000000000224,0.624848257709713417
0.441000000000000225,0.642977679665215573
0.442000000000000226,0.660500839005873086
0.443000000000000227,0.677416962851414506
0.444000000000000228,0.693725799113921737
0.445000000000000229,0.709427602491153442
0.446000000000000230,0.724523120305413437
0.447000000000000230,0.739013578214911759
0.448000000000000231,0.752900665823497461
0.449000000000000232,0.766186522213631260
0.450000000000000233,0.778873721426414201
0.451000000000000234,0.790965257911478870
0.452000000000000235,0.802464531968535510
0.453000000000000236,0.813375335201382610
0.454000000000000237,0.823701836004132715
0.455000000000000238,0.833448565098549699
0.456000000000000238,0.842620401140301012
0.457000000000000239,0.851222556411109443
0.458000000000000240,0.859260562612755963
0.459000000000000241,0.866740256778087526
0.460000000000000242,0.873667767313189847
0.461000000000000243,0.880049500184128086
0.462000000000000244,0.885892125260704488
0.463000000000000245,0.891202562829001677
0.464000000000000246,0.895987970283505186
0.465000000000000246,0.900255729008988204
0.466000000000000247,0.904013431461481387
0.467000000000000248,0.907268868456968081
0.468000000000000249,0.910030016675713704
0.469000000000000250,0.912305026389474305
0.470000000000000251,0.914102209418146017
0.471000000000000252,0.915430027321821660
0.472000000000000253,0.916297079833515937
0.473000000000000254,0.916712093537361716
0.474000000000000254,0.916683910796383117
0.475000000000000255,0.916221478933481714
0.476000000000000256,0.915333839668727500
0.477000000000000257,0.914030118815532311
0.478000000000000258,0.912319516237816375
0.479000000000000259,0.910211296069825870
0.480000000000000260,0.907714777199793765
0.481000000000000261,0.904839324018256064
0.482000000000000262,0.901594337431396831
0.483000000000000262,0.897989246139457853
0.484000000000000263,0.894033498179861441
0.485000000000000264,0.889736552734375019
0.486000000000000265,0.885107872199291434
0.487000000000000266,0.880156914517354338
0.488000000000000267,0.874893125769815483
0.489000000000000268,0.869325933026754094
0.490000000000000269,0.863464737453579212
0.491000000000000270,0.857318907671322905
0.492000000000000270,0.850897773368194499
0.493000000000000271,0.844210619159578513
0.494000000000000272,0.837266678693550981
0.495000000000000273,0.830075128998716716
0.496000000000000274,0.822645085071101456
0.497000000000000275,0.814985594696621796
0.498000000000000276,0.807105633505503461
0.499000000000000277,0.799014100254975213
0.500000000000000222,0.790719812336338146
0.501000000000000334,0.782231501502506754
0.502000000000000224,0.773557809811959207
0.503000000000000336,0.764707285784970492
0.504000000000000226,0.755688380767960743
0.505000000000000338,0.746509445501651547
0.506000000000000227,0.737178726888766733
0.507000000000000339,0.727704364956866412
0.508000000000000229,0.718094390011974726
0.509000000000000341,0.708356719978496030
0.510000000000000231,0.698499157921045333
0.511000000000000343,0.688529389743654519
0.512000000000000233,0.678454982061951872
0.513000000000000345,0.668283380243750669
0.514000000000000234,0.658021906613644902
0.515000000000000346,0.647677758817090110
0.516000000000000236,0.637258008339567583
0.517000000000000348,0.626769599176326908
0.518000000000000238,0.616219346648386290
0.519000000000000350,0.605613936360309135
0.520000000000000240,0.594959923295512505
0.521000000000000352,0.584263731044684320
0.522000000000000242,0.573531651163156853
0.523000000000000353,0.562769842652872887
0.524000000000000243,0.551984331564905117
0.525000000000000355,0.541181010718261635
0.526000000000000245,0.530365639531011568
0.527000000000000357,0.519543843959607621
0.528000000000000247,0.508721116542523388
0.529000000000000359,0.497902816544221416
0.530000000000000249,0.487094170195663589
0.531000000000000361,0.476300271027524702
0.532000000000000250,0.465526080292447464
0.533000000000000362,0.454776427472600442
0.534000000000000252,0.444056010869070039
0.535000000000000364,0.433369398269403738
0.536000000000000254,0.422721027690025064
0.537000000000000366,0.412115208189992033
0.538000000000000256,0.401556120752884993
0.539000000000000368,0.391047819233510230
0.540000000000000258,0.380594231366316427
0.541000000000000369,0.370199159832336089
0.542000000000000259,0.359866283381732877
0.543000000000000371,0.349599158008883248
0.544000000000000261,0.339401218177195541
0.545000000000000373,0.329275778090790783
0.546000000000000263,0.319226033010359067
0.547000000000000375,0.309255060610442167
0.548000000000000265,0.299365822375633084
0.549000000000000377,0.289561165033064838
0.550000000000000266,0.279843822018817967
0.551000000000000378,0.270216414975764985
0.552000000000000268,0.260681455280609042
0.553000000000000380,0.251241345597788879
0.554000000000000270,0.241898381458117651
0.555000000000000382,0.232654752859985325
0.556000000000000272,0.223512545891102199
0.557000000000000384,0.214473744368772923
0.558000000000000274,0.205540231496769060
0.559000000000000385,0.196713791536944294
0.560000000000000275,0.187996111493786561
0.561000000000000387,0.179388782810143615
0.562000000000000277,0.170893303072489705
0.563000000000000389,0.162511077724032560
0.564000000000000279,0.154243421784178436
0.565000000000000391,0.146091561572772199
0.566000000000000281,0.138056636437726254
0.567000000000000393,0.130139700484578263
0.568000000000000282,0.122341724306689853
0.569000000000000394,0.114663596714740731
0.570000000000000284,0.107106126464351609
0.571000000000000396,0.099670043980552070
0.572000000000000286,0.092356003078046311
0.573000000000000398,0.085164582676126449
0.574000000000000288,0.078096288507226302
0.575000000000000400,0.071151554818075641
0.576000000000000290,0.064330746062573663
0.577000000000000401,0.057634158585385273
0.578000000000000291,0.051062022295481277
0.579000000000000403,0.044614502328735053
0.580000000000000293,0.038291700698845285
0.581000000000000405,0.032093657935788410
0.582000000000000295,0.026020354711167086
0.583000000000000407,0.020071713449709823
0.584000000000000297,0.014247599926380994
0.585000000000000409,0.008547824848416697
0.586000000000000298,0.002972145421821232
0.587000000000000410,-0.002479733098287340
0.588000000000000300,-0.007808155873892992
0.589000000000000412,-0.013013516967390499
0.590000000000000302,-0.018096257842348130
0.591000000000000414,-0.023056865882194376
0.592000000000000304,-0.027895872927126204
0.593000000000000416,-0.032613853829634498
0.594000000000000306,-0.037211425028933542
0.595000000000000417,-0.041689243144603275
0.596000000000000307,-0.046048003589668943
0.597000000000000419,-0.050288439203408863
0.598000000000000309,-0.054411318904069181
0.599000000000000421,-0.058417446361674938
0.600000000000000311,-0.062307658691132507
0.601000000000000423,-0.066082825165757628
0.602000000000000313,-0.069743845951339173
0.603000000000000425,-0.073291650860888263
0.604000000000000314,-0.076727198130116664
0.605000000000000426,-0.080051473213751237
0.606000000000000316,-0.083265487602709271
0.607000000000000428,-0.086370277662191033
0.608000000000000318,-0.089366903490702504
0.609000000000000430,-0.092256447800008690
0.610000000000000320,-0.095040014816007864
0.611000000000000432,-0.097718729200512833
0.612000000000000322,-0.100293734993880501
0.613000000000000433,-0.102766194578454859
0.614000000000000323,-0.105137287662755249
0.615000000000000435,-0.107408210286333142
0.616000000000000325,-0.109580173845192919
0.617000000000000437,-0.111654404137717961
0.618000000000000327,-0.113632140430950115
0.619000000000000439,-0.115514634547128694
0.620000000000000329,-0.117303149970356332
0.621000000000000441,-0.118998960973251772
0.622000000000000330,-0.120603351763444389
0.623000000000000442,-0.122117615649767156
0.624000000000000332,-0.123543054227961052
0.625000000000000444,-0.124880976585763317
0.626000000000000334,-0.126132698527164910
0.627000000000000446,-0.127299541815685147
0.628000000000000336,-0.128382833436460342
0.629000000000000448,-0.129383904876965827
0.630000000000000338,-0.130304091426159147
0.631000000000000449,-0.131144731491866950
0.632000000000000339,-0.131907165936178933
0.633000000000000451,-0.132592737428663815
0.634000000000000341,-0.133202789817174067
0.635000000000000453,-0.133738667516046295
0.636000000000000343,-0.134201714911436037
0.637000000000000455,-0.134593275783615990
0.638000000000000345,-0.134914692745958575
0.639000000000000457,-0.135167306700411688
0.640000000000000346,-0.135352456309219521
0.641000000000000458,-0.135471477482660058
0.642000000000000348,-0.135525702882564547
0.643000000000000460,-0.135516461441381131
0.644000000000000350,-0.135445077896552940
0.645000000000000462,-0.135312872339958645
0.646000000000000352,-0.135121159782194467
0.647000000000000464,-0.134871249731443488
0.648000000000000353,-0.134564445786705955
0.649000000000000465,-0.134202045245133128
0.650000000000000355,-0.133785338723249769
0.651000000000000467,-0.133315609791793799
0.652000000000000357,-0.132794134623975990
0.653000000000000469,-0.132222181656867749
0.654000000000000359,-0.131601011265735146
0.655000000000000471,-0.130931875451034851
0.656000000000000361,-0.130216017537865991
0.657000000000000473,-0.129454671887623357
0.658000000000000362,-0.128649063621634335
0.659000000000000474,-0.127800408356527229
0.660000000000000364,-0.126909911951119114
0.661000000000000476,-0.125978770264574547
0.662000000000000366,-0.125008168925622914
0.663000000000000478,-0.123999283112588191
0.664000000000000368,-0.122953277344024434
0.665000000000000480,-0.121871305279724187
0.666000000000000369,-0.120754509531872320
0.667000000000000481,-0.119604021486139286
0.668000000000000371,-0.118420961132481087
