# ZnO1m210BOND_GLUPSCA-AC
# h[nm],U(h)[kJ/mol]
0.149999999999999994,137.756493959206125055
0.150999999999999995,135.996334284191391362
0.151999999999999996,134.104335077255655051
0.152999999999999997,132.188518088568315534
0.153999999999999998,130.289739603357332953
0.154999999999999999,128.418157707903304754
0.156000000000000000,126.572156584083543862
0.157000000000000001,124.747323045287458854
0.158000000000000002,122.940063078528964979
0.159000000000000002,121.148544474974386276
0.160000000000000003,119.372473036806837854
0.161000000000000004,117.612497791788001678
0.162000000000000005,115.869624719404171742
0.163000000000000006,114.144786736352472190
0.164000000000000007,112.438597509249717632
0.165000000000000008,110.751261738061515416
0.166000000000000009,109.082595919047577127
0.167000000000000010,107.432113604894908576
0.168000000000000010,105.799137455994767265
0.169000000000000011,104.182911123550042021
0.170000000000000012,102.582694237972447127
0.171000000000000013,100.997832179846810163
0.172000000000000014,99.427798513714293449
0.173000000000000015,97.872212087544582459
0.174000000000000016,96.330833185013219122
0.175000000000000017,94.803544171484404046
0.176000000000000018,93.290320188588552242
0.177000000000000018,91.791194960947237291
0.178000000000000019,90.306225947061236070
0.179000000000000020,88.835462091536498974
0.180000000000000021,87.378916454501336375
0.181000000000000022,85.936545093847726662
0.182000000000000023,84.508232806288830830
0.183000000000000024,83.093785715669682190
0.184000000000000025,81.692930233572866427
0.185000000000000026,80.305317597572354771
0.186000000000000026,78.930532998749328044
0.187000000000000027,77.568108221127857860
0.188000000000000028,76.217536709612119239
0.189000000000000029,74.878290038955810815
0.190000000000000030,73.549834855529240940
0.191000000000000031,72.231649490092721067
0.192000000000000032,70.923239580209866517
0.193000000000000033,69.624152184891357820
0.194000000000000034,68.333988013674883177
0.195000000000000034,67.052411521996134525
0.196000000000000035,65.779158740697241115
0.197000000000000036,64.514042807729623519
0.198000000000000037,63.256957253667408736
0.199000000000000038,62.007877159640898412
0.200000000000000039,60.766858357504460741
0.201000000000000040,59.534034878731368678
0.202000000000000041,58.309614882233276489
0.203000000000000042,57.093875303753932826
0.204000000000000042,55.887155472437633819
0.205000000000000043,54.689849935353052501
0.206000000000000044,53.502400719781839200
0.207000000000000045,52.325289247456751696
0.208000000000000046,51.159028095985362938
0.209000000000000047,50.004152781587855259
0.210000000000000048,48.861213715003039226
0.211000000000000049,47.730768459803037729
0.212000000000000050,46.613374400070952674
0.213000000000000050,45.509581902968292866
0.214000000000000051,44.419928041544110897
0.215000000000000052,43.344930924505348457
0.216000000000000053,42.285084662763040342
0.217000000000000054,41.240854987502494566
0.218000000000000055,40.212675521333224538
0.219000000000000056,39.200944692745025577
0.220000000000000057,38.206023274566419445
0.221000000000000058,37.228232519309059967
0.222000000000000058,36.267852858060415144
0.223000000000000059,35.325123124840352773
0.224000000000000060,34.400240264913783506
0.225000000000000061,33.493359483315977343
0.226000000000000062,32.604594788650523185
0.227000000000000063,31.734019886924244247
0.228000000000000064,30.881669380654784618
0.229000000000000065,30.047540229594961403
0.230000000000000066,29.231593431051017262
0.231000000000000066,28.433755879816970946
0.232000000000000067,27.653922370111011730
0.233000000000000068,26.891957704493012926
0.234000000000000069,26.147698877489638392
0.235000000000000070,25.420957304488077000
0.236000000000000071,24.711521069324568600
0.237000000000000072,24.019157166839796957
0.238000000000000073,23.343613719462087630
0.239000000000000073,22.684622149577069905
0.240000000000000074,22.041899292021916779
0.241000000000000075,21.415149433486853070
0.242000000000000076,20.804066267898569720
0.243000000000000077,20.208334758990627478
0.244000000000000078,19.627632903229908834
0.245000000000000079,19.061633388060979399
0.246000000000000080,18.510005142055465654
0.247000000000000081,17.972414775009575294
0.248000000000000081,17.448527907329442144
0.249000000000000082,16.938010389183169480
0.250000000000000111,16.440529410890338369
0.251000000000000112,15.955754506871475229
0.252000000000000113,15.483358456200420505
0.253000000000000114,15.023018083403218981
0.254000000000000115,14.574414963633419262
0.255000000000000115,14.137236036740040035
0.256000000000000116,13.711174135036339194
0.257000000000000117,13.295928429786163960
0.258000000000000118,12.891204801559505100
0.259000000000000119,12.496716139676056656
0.260000000000000120,12.112182575965464437
0.261000000000000121,11.737331658032482906
0.262000000000000122,11.371898467130646893
0.263000000000000123,11.015625685627425057
0.264000000000000123,10.668263618891536737
0.265000000000000124,10.329570176256499536
0.266000000000000125,9.999310815516807338
0.267000000000000126,9.677258455200703935
0.268000000000000127,9.363193358638508101
0.269000000000000128,9.056902993613698882
0.270000000000000129,8.758181871146742736
0.271000000000000130,8.466831366722619379
0.272000000000000131,8.182659527035051283
0.273000000000000131,7.905480865084731690
0.274000000000000132,7.635116146237896473
0.275000000000000133,7.371392167626607872
0.276000000000000134,7.114141533054089805
0.277000000000000135,6.863202425359641090
0.278000000000000136,6.618418377996464486
0.279000000000000137,6.379638047385428834
0.280000000000000138,6.146714987427253973
0.281000000000000139,5.919507427384786524
0.282000000000000139,5.697878054187838437
0.283000000000000140,5.481693800063347943
0.284000000000000141,5.270825636255159985
0.285000000000000142,5.065148373469154031
0.286000000000000143,4.864540469560979297
0.287000000000000144,4.668883844875555411
0.288000000000000145,4.478063705547716822
0.289000000000000146,4.291968374984364232
0.290000000000000147,4.110489133666375139
0.291000000000000147,3.933520067336382375
0.292000000000000148,3.760957923572778583
0.293000000000000149,3.592701976693251531
0.294000000000000150,3.428653900880112015
0.295000000000000151,3.268717651375559363
0.296000000000000152,3.112799353557059057
0.297000000000000153,2.960807199670396184
0.298000000000000154,2.812651352970798158
0.299000000000000155,2.668243858999976847
0.300000000000000155,2.527498563708860946
0.301000000000000156,2.390331038121887186
0.302000000000000157,2.256658509227920550
0.303000000000000158,2.126399796776150097
0.304000000000000159,1.999475255650736472
0.305000000000000160,1.875806723496800332
0.306000000000000161,1.755317473270845197
0.307000000000000162,1.637932170391772857
0.308000000000000163,1.523576834173329120
0.309000000000000163,1.412178803225103474
0.310000000000000164,1.303666704516784236
0.311000000000000165,1.197970425809314676
0.312000000000000166,1.095021091166195948
0.313000000000000167,0.994751039268854220
0.314000000000000168,0.897093804271174688
0.315000000000000169,0.801984098939960810
0.316000000000000170,0.709357799840026892
0.317000000000000171,0.619151934335145926
0.318000000000000171,0.531304669188335410
0.319000000000000172,0.445755300557387435
0.320000000000000173,0.362444245194148973
0.321000000000000174,0.281313032668292606
0.322000000000000175,0.202304298448400532
0.323000000000000176,0.125361777685224218
0.324000000000000177,0.050430299553463523
0.325000000000000178,-0.022544217980048888
0.326000000000000179,-0.093614773083251987
0.327000000000000179,-0.162833284791442878
0.328000000000000180,-0.230250597646087740
0.329000000000000181,-0.295916486330844553
0.330000000000000182,-0.359879660386010880
0.331000000000000183,-0.422187769074331309
0.332000000000000184,-0.482887406462150892
0.333000000000000185,-0.542024116772232611
0.334000000000000186,-0.599642400056996427
0.335000000000000187,-0.655785718233730552
0.336000000000000187,-0.710496501516965306
0.337000000000000188,-0.763816155276576647
0.338000000000000189,-0.815785067344908632
0.339000000000000190,-0.866442615790504411
0.340000000000000191,-0.915827177171079421
0.341000000000000192,-0.963976135274057788
0.342000000000000193,-1.010925890348457479
0.343000000000000194,-1.056711868828449585
0.344000000000000195,-1.101368533544895723
0.345000000000000195,-1.144929394418693791
0.346000000000000196,-1.187427019626238422
0.347000000000000197,-1.228893047225222857
0.348000000000000198,-1.269358197226521767
0.349000000000000199,-1.308852284095940011
0.350000000000000200,-1.347404229667921394
0.351000000000000201,-1.385042076451735493
0.352000000000000202,-1.421793001309366922
0.353000000000000203,-1.457683329483378198
0.354000000000000203,-1.492738548952005084
0.355000000000000204,-1.526983325088064891
0.356000000000000205,-1.560441515597768447
0.357000000000000206,-1.593136185715274378
0.358000000000000207,-1.625089623628207081
0.359000000000000208,-1.656323356109714595
0.360000000000000209,-1.686858164332438959
0.361000000000000210,-1.716714099839806718
0.362000000000000210,-1.745910500650559083
0.363000000000000211,-1.774466007472456308
0.364000000000000212,-1.802398580001768336
0.365000000000000213,-1.829725513285402227
0.366000000000000214,-1.856463454123224555
0.367000000000000215,-1.882628417488612538
0.368000000000000216,-1.908235802946058657
0.369000000000000217,-1.933300411045113520
0.370000000000000218,-1.957836459670953433
0.371000000000000218,-1.981857600332303182
0.372000000000000219,-2.005376934368507058
0.373000000000000220,-2.028407029058171496
0.374000000000000221,-2.050959933612637176
0.375000000000000222,-2.073047195038300927
0.376000000000000223,-2.094679873852897334
0.377000000000000224,-2.115868559641266966
0.378000000000000225,-2.136623386437334737
0.379000000000000226,-2.156954047919583672
0.380000000000000226,-2.176869812408381399
0.381000000000000227,-2.196379537653993630
0.382000000000000228,-2.215491685405288624
0.383000000000000229,-2.234214335749608260
0.384000000000000230,-2.252555201215190372
0.385000000000000231,-2.270521640628369919
0.386000000000000232,-2.288120672718232385
0.387000000000000233,-2.305358989462474195
0.388000000000000234,-2.322242969168549109
0.389000000000000234,-2.338778689285206269
0.390000000000000235,-2.354971938939843135
0.391000000000000236,-2.370828231197997127
0.392000000000000237,-2.386352815041702158
0.393000000000000238,-2.401550687064187617
0.394000000000000239,-2.416426602878750440
0.395000000000000240,-2.430985088240408487
0.396000000000000241,-2.445230449879237433
0.397000000000000242,-2.459166786044888031
0.398000000000000242,-2.472797996762257533
0.399000000000000243,-2.486127793798633689
0.400000000000000244,-2.499159710343129781
0.401000000000000245,-2.511897110399656352
0.402000000000000246,-2.524343197894855173
0.403000000000000247,-2.536501025503034690
0.404000000000000248,-2.548373503190246581
0.405000000000000249,-2.559963406480124437
0.406000000000000250,-2.571273384444211274
0.407000000000000250,-2.582305967419960435
0.408000000000000251,-2.593063574459706366
0.409000000000000252,-2.603548520514159748
0.410000000000000253,-2.613763023354240822
0.411000000000000254,-2.623709210235194877
0.412000000000000255,-2.633389124307103035
0.413000000000000256,-2.642804730776207478
0.414000000000000257,-2.651957922821302382
0.415000000000000258,-2.660850527269997823
0.416000000000000258,-2.669484310039319297
0.417000000000000259,-2.677860981345612679
0.418000000000000260,-2.685982200688491695
0.419000000000000261,-2.693849581613883437
0.420000000000000262,-2.701464696261072440
0.421000000000000263,-2.708829079698946263
0.422000000000000264,-2.715944234056352879
0.423000000000000265,-2.722811632451852315
0.424000000000000266,-2.729432722727986427
0.425000000000000266,-2.735808930995105914
0.426000000000000267,-2.741941664990066307
0.427000000000000268,-2.747832317254846224
0.428000000000000269,-2.753482268140226008
0.429000000000000270,-2.758892888639707941
0.430000000000000271,-2.764065543058646490
0.431000000000000272,-2.769001591523771122
0.432000000000000273,-2.773702392337976441
0.433000000000000274,-2.778169304185430732
0.434000000000000274,-2.782403688191880775
0.435000000000000275,-2.786406909844972635
0.436000000000000276,-2.790180340779451207
0.437000000000000277,-2.793725360431863702
0.438000000000000278,-2.797043357569511279
0.439000000000000279,-2.800135731698192743
0.440000000000000280,-2.803003894353248704
0.441000000000000281,-2.805649270278315122
0.442000000000000282,-2.808073298496245762
0.443000000000000282,-2.810277433276274994
0.444000000000000283,-2.812263145001842268
0.445000000000000284,-2.814031920942979603
0.446000000000000285,-2.815585265937366355
0.447000000000000286,-2.816924702984022311
0.448000000000000287,-2.818051773753336597
0.449000000000000288,-2.818968039017338612
0.450000000000000289,-2.819675079003744145
0.451000000000000290,-2.820174493677391592
0.452000000000000290,-2.820467902952594752
0.453000000000000291,-2.820556946839670509
0.454000000000000292,-2.820443285529083077
0.455000000000000293,-2.820128599416285464
0.456000000000000294,-2.819614589070452926
0.457000000000000295,-2.818902975150111789
0.458000000000000296,-2.817995498268561327
0.459000000000000297,-2.816893918812009012
0.460000000000000298,-2.815600016713116549
0.461000000000000298,-2.814115591182661635
0.462000000000000299,-2.812442460401912037
0.463000000000000300,-2.810582461178179337
0.464000000000000301,-2.808537448566025496
0.465000000000000302,-2.806309295456423936
0.466000000000000303,-2.803899892136145322
0.467000000000000304,-2.801311145819564086
0.468000000000000305,-2.798544980154952899
0.469000000000000306,-2.795603334707318144
0.470000000000000306,-2.792488164419753449
0.471000000000000307,-2.789201439055084553
0.472000000000000308,-2.785745142619739489
0.473000000000000309,-2.782121272771501008
0.474000000000000310,-2.778331840212800330
0.475000000000000311,-2.774378868071180282
0.476000000000000312,-2.770264391268461690
0.477000000000000313,-2.765990455880049659
0.478000000000000314,-2.761559118485769293
0.479000000000000314,-2.756972445513655945
0.480000000000000315,-2.752232512577850621
0.481000000000000316,-2.747341403811963456
0.482000000000000317,-2.742301211198936439
0.483000000000000318,-2.737114033898624399
0.484000000000000319,-2.731781977574075704
0.485000000000000320,-2.726307153717560716
0.486000000000000321,-2.720691678977284145
0.487000000000000322,-2.714937674485693897
0.488000000000000322,-2.709047265190184461
0.489000000000000323,-2.703022579187129626
0.490000000000000324,-2.696865747059878693
0.491000000000000325,-2.690578901221517327
0.492000000000000326,-2.684164175263016983
0.493000000000000327,-2.677623703307480785
0.494000000000000328,-2.670959619371001459
0.495000000000000329,-2.664174056730775675
0.496000000000000330,-2.657269147300898471
0.497000000000000330,-2.650247021016477689
0.498000000000000331,-2.643109805226308229
0.499000000000000332,-2.635859624094753606
0.500000000000000333,-2.628498598013085719
0.501000000000000334,-2.621028843020634991
0.502000000000000335,-2.613452470236184322
0.503000000000000336,-2.605771585299803572
0.504000000000000337,-2.597988287825465203
0.505000000000000338,-2.590104670864643133
0.506000000000000338,-2.582122820381159922
0.507000000000000339,-2.574044814737455500
0.508000000000000340,-2.565872724192427512
0.509000000000000341,-2.557608610411107541
0.510000000000000342,-2.549254525986139441
0.511000000000000343,-2.540812513971334674
0.512000000000000344,-2.532284607427274903
0.513000000000000345,-2.523672828979105276
0.514000000000000346,-2.514979190386597452
0.515000000000000346,-2.506205692126424633
0.516000000000000347,-2.497354322986766295
0.517000000000000348,-2.488427059674255926
0.518000000000000349,-2.479425866433163428
0.519000000000000350,-2.470352694676941852
0.520000000000000351,-2.461209482631967482
0.521000000000000352,-2.451998154993566548
0.522000000000000353,-2.442720622594139801
0.523000000000000353,-2.433378782083418734
0.524000000000000354,-2.423974515620760606
0.525000000000000355,-2.414509690579342394
0.526000000000000356,-2.404986159262224366
0.527000000000000357,-2.395405758630166915
0.528000000000000358,-2.385770310041046560
0.529000000000000359,-2.376081619000831591
0.530000000000000360,-2.366341474925898858
0.531000000000000361,-2.356551650916651752
0.532000000000000361,-2.346713903542236412
0.533000000000000362,-2.336829972636242925
0.534000000000000363,-2.326901581103240524
0.535000000000000364,-2.316930434735994027
0.536000000000000365,-2.306918222043182976
0.537000000000000366,-2.296866614087522240
0.538000000000000367,-2.286777264334006965
0.539000000000000368,-2.276651808508283192
0.540000000000000369,-2.266491864464774686
0.541000000000000369,-2.256299032064587262
0.542000000000000370,-2.246074893062839362
0.543000000000000371,-2.235821011005379333
0.544000000000000372,-2.225538931134628307
0.545000000000000373,-2.215230180304413654
0.546000000000000374,-2.204896266903568325
0.547000000000000375,-2.194538680788140628
0.548000000000000376,-2.184158893222046149
0.549000000000000377,-2.173758356825941096
0.550000000000000377,-2.163338505534153633
0.551000000000000378,-2.152900754559475605
0.552000000000000379,-2.142446500365662310
0.553000000000000380,-2.131977120647416069
0.554000000000000381,-2.121493974317673281
0.555000000000000382,-2.110998401502082622
0.556000000000000383,-2.100491723540349742
0.557000000000000384,-2.089975242994447591
0.558000000000000385,-2.079450243663335751
0.559000000000000385,-2.068917990604144830
0.560000000000000386,-2.058379730159574983
0.561000000000000387,-2.047836689991360259
0.562000000000000388,-2.037290079119592257
0.563000000000000389,-2.026741087967801391
0.564000000000000390,-2.016190888413526672
0.565000000000000391,-2.005640633844283816
0.566000000000000392,-1.995091459218718555
0.567000000000000393,-1.984544481132825000
0.568000000000000393,-1.974000797890987258
0.569000000000000394,-1.963461489581764141
0.570000000000000395,-1.952927618158236456
0.571000000000000396,-1.942400227522683043
0.572000000000000397,-1.931880343615584028
0.573000000000000398,-1.921368974508624206
0.574000000000000399,-1.910867110501694555
0.575000000000000400,-1.900375724223630769
0.576000000000000401,-1.889895770736605751
0.577000000000000401,-1.879428187644049730
0.578000000000000402,-1.868973895201878177
0.579000000000000403,-1.858533796432937368
0.580000000000000404,-1.848108777244583889
0.581000000000000405,-1.837699706549138723
0.582000000000000406,-1.827307436387212380
0.583000000000000407,-1.816932802053669915
0.584000000000000408,-1.806576622226192530
0.585000000000000409,-1.796239699096252806
0.586000000000000409,-1.785922818502400089
0.587000000000000410,-1.775626750065773196
0.588000000000000411,-1.765352247327637958
0.589000000000000412,-1.755100047888953796
0.590000000000000413,-1.744870873551733315
0.591000000000000414,-1.734665430462182467
0.592000000000000415,-1.724484409255484296
0.593000000000000416,-1.714328485202081698
0.594000000000000417,-1.704198318355408137
0.595000000000000417,-1.694094553700997041
0.596000000000000418,-1.684017821306727836
0.597000000000000419,-1.673968736474329422
0.598000000000000420,-1.663947899891831339
0.599000000000000421,-1.653955897787045659
0.600000000000000422,-1.643993302081890651
0.601000000000000423,-1.634060670547491823
0.602000000000000424,-1.624158546960012162
0.603000000000000425,-1.614287461257097434
0.604000000000000425,-1.604447929694847286
0.605000000000000426,-1.594640455005267299
0.606000000000000427,-1.584865526554152693
0.607000000000000428,-1.575123620499183641
0.608000000000000429,-1.565415199948426039
0.609000000000000430,-1.555740715118858253
0.610000000000000431,-1.546100603495142334
0.611000000000000432,-1.536495289988373703
0.612000000000000433,-1.526925187094827940
0.613000000000000433,-1.517390695054673833
