# ZnO1m210BOND_VALSCA-AC
# h[nm],U(h)[kJ/mol]
0.149999999999999994,153.202720941264203702
0.150999999999999995,151.468078423742042560
0.151999999999999996,149.920260083893708725
0.152999999999999997,148.395502739875013276
0.153999999999999998,146.843565221316765701
0.154999999999999999,145.264147225358527749
0.156000000000000000,143.673589017904021148
0.157000000000000001,142.089124781101617145
0.158000000000000002,140.522818298081517696
0.159000000000000002,138.980446877817655604
0.160000000000000003,137.462591808005157645
0.161000000000000004,135.966431902698730028
0.162000000000000005,134.487484907425340452
0.163000000000000006,133.020976467171664126
0.164000000000000007,131.562755238291742899
0.165000000000000008,130.109792209498266402
0.166000000000000009,128.660351776902587062
0.167000000000000010,127.213932779228272807
0.168000000000000010,125.771068730085787024
0.169000000000000011,124.333059279085475168
0.170000000000000012,122.901685916039383528
0.171000000000000013,121.478947429809934988
0.172000000000000014,120.066836105459785244
0.173000000000000015,118.667164475141504454
0.174000000000000016,117.281444439492503307
0.175000000000000017,115.910815288653822108
0.176000000000000018,114.556014029213201866
0.177000000000000018,113.217379931638930657
0.178000000000000019,111.894884880653151527
0.179000000000000020,110.588181548826923972
0.180000000000000021,109.296662315733328796
0.181000000000000022,108.019522992393604000
0.182000000000000023,106.755826620313470698
0.183000000000000024,105.504563786298447781
0.184000000000000025,104.264706960188306084
0.185000000000000026,103.035257285531059779
0.186000000000000026,101.815283018263841086
0.187000000000000027,100.603949416251083449
0.188000000000000028,99.400540343466758486
0.189000000000000029,98.204472182815891301
0.190000000000000030,97.015300869935714445
0.191000000000000031,95.832722986272983690
0.192000000000000032,94.656571902040738564
0.193000000000000033,93.486809955440293152
0.194000000000000034,92.323517608870631079
0.195000000000000034,91.166880448559382444
0.196000000000000035,90.017174801747572133
0.197000000000000036,88.874752643738318625
0.198000000000000037,87.740026362391333237
0.199000000000000038,86.613453844955273553
0.200000000000000039,85.495524255024918148
0.201000000000000040,84.386744778261714828
0.202000000000000041,83.287628535759765214
0.203000000000000042,82.198683794267523695
0.204000000000000042,81.120404543013506782
0.205000000000000043,80.053262457346747283
0.206000000000000044,78.997700229201740285
0.207000000000000045,77.954126212767747006
0.208000000000000046,76.922910309790395900
0.209000000000000047,75.904381001731650258
0.210000000000000048,74.898823424620388778
0.211000000000000049,73.906478375938206682
0.212000000000000050,72.927542140448693431
0.213000000000000050,71.962167022717395071
0.214000000000000051,71.010462477477361176
0.215000000000000052,70.072496734355880221
0.216000000000000053,69.148298820251781649
0.217000000000000054,68.237860890381952572
0.218000000000000055,67.341140787316916771
0.219000000000000056,66.458064755880798202
0.220000000000000057,65.588530250346593675
0.221000000000000058,64.732408778716802544
0.222000000000000058,63.889548736880882984
0.223000000000000059,63.059778192985298517
0.224000000000000060,62.242907589350707553
0.225000000000000061,61.438732335683766905
0.226000000000000062,60.647035273131187694
0.227000000000000063,59.867588993904519157
0.228000000000000064,59.100158005780464521
0.229000000000000065,58.344500734768203642
0.230000000000000066,57.600371362668383313
0.231000000000000066,56.867521499160055498
0.232000000000000067,56.145701690484507651
0.233000000000000068,55.434662768787760001
0.234000000000000069,54.734157047781977212
0.235000000000000070,54.043939371631566360
0.236000000000000071,53.363768024902228149
0.237000000000000072,52.693405512071798569
0.238000000000000073,52.032619215526537459
0.239000000000000073,51.381181941190426699
0.240000000000000074,50.738872360987876675
0.241000000000000075,50.105475361254683264
0.242000000000000076,49.480782306008975979
0.243000000000000077,48.864591223701303591
0.244000000000000078,48.256706925697258725
0.245000000000000079,47.656941064328208313
0.246000000000000080,47.065112137889300925
0.247000000000000081,46.481045449482564891
0.248000000000000081,45.904573026109666500
0.249000000000000082,45.335533503919727139
0.250000000000000111,44.773771985024758635
0.251000000000000112,44.219139870810536763
0.252000000000000113,43.671494676202982532
0.253000000000000114,43.130699828900993964
0.254000000000000115,42.596624457159684596
0.255000000000000115,42.069143169305611707
0.256000000000000116,41.548135827788470920
0.257000000000000117,41.033487320223080985
0.258000000000000118,40.525087329551716664
0.259000000000000119,40.022830105158789138
0.260000000000000120,39.526614236498005539
0.261000000000000121,39.036342430545474258
0.262000000000000122,38.551921294168877807
0.263000000000000123,38.073261122302902493
0.264000000000000123,37.600275692642320280
0.265000000000000124,37.132882067405617477
0.266000000000000125,36.671000402582237143
0.267000000000000126,36.214553764954253268
0.268000000000000127,35.763467957076450432
0.269000000000000128,35.317671350307378475
0.270000000000000129,34.877094725905138262
0.271000000000000130,34.441671124134970228
0.272000000000000131,34.011335701280486887
0.273000000000000131,33.586025594403544403
0.274000000000000132,33.165679793661261954
0.275000000000000133,32.750239021958144292
0.276000000000000134,32.339645621688575261
0.277000000000000135,31.933843448307612789
0.278000000000000136,31.532777770456213773
0.279000000000000137,31.136395176358565351
0.280000000000000138,30.744643486206435057
0.281000000000000139,30.357471670243249662
0.282000000000000139,29.974829772264133254
0.283000000000000140,29.596668838250604239
0.284000000000000141,29.222940849865970847
0.285000000000000142,28.853598662543920028
0.286000000000000143,28.488595947911580453
0.287000000000000144,28.127887140297804791
0.288000000000000145,27.771427387086987437
0.289000000000000146,27.419172502689661997
0.290000000000000147,27.071078925910882162
0.291000000000000147,26.727103680509024741
0.292000000000000148,26.387204338747302756
0.293000000000000149,26.051338987751478271
0.294000000000000150,25.719466198497251241
0.295000000000000151,25.391544997260673711
0.296000000000000152,25.067534839374513211
0.297000000000000153,24.747395585143230790
0.298000000000000154,24.431087477777253980
0.299000000000000155,24.118571123216433705
0.300000000000000155,23.809807471719846461
0.301000000000000156,23.504757801107324156
0.302000000000000157,23.203383701544453288
0.303000000000000158,22.905647061770093131
0.304000000000000159,22.611510056671406232
0.305000000000000160,22.320935136117153519
0.306000000000000161,22.033885014965768789
0.307000000000000162,21.750322664169559062
0.308000000000000163,21.470211302901212491
0.309000000000000163,21.193514391633208049
0.310000000000000164,20.920195626104941766
0.311000000000000165,20.650218932115841142
0.312000000000000166,20.383548461086782311
0.313000000000000167,20.120148586334885010
0.314000000000000168,19.859983900010405478
0.315000000000000169,19.603019210646671411
0.316000000000000170,19.349219541277129508
0.317000000000000171,19.098550128075849841
0.318000000000000171,18.850976419480183210
0.319000000000000172,18.606464075756360188
0.320000000000000173,18.364978968970852691
0.321000000000000174,18.126487183332411490
0.322000000000000175,17.890955015871163880
0.323000000000000176,17.658348977423028003
0.324000000000000177,17.428635793889306171
0.325000000000000178,17.201782407742733483
0.326000000000000179,16.977755979752707560
0.327000000000000179,16.756523890903906704
0.328000000000000180,16.538053744483605101
0.329000000000000181,16.322313368314421922
0.330000000000000182,16.109270817110381557
0.331000000000000183,15.898894374935181872
0.332000000000000184,15.691152557742890750
0.333000000000000185,15.486014115982282391
0.334000000000000186,15.283448037246865070
0.335000000000000187,15.083423548954007387
0.336000000000000187,14.885910121037147391
0.337000000000000188,14.690877468636355019
0.338000000000000189,14.498295554773230620
0.339000000000000190,14.308134592996875512
0.340000000000000191,14.120365049988924611
0.341000000000000192,13.934957648116116147
0.342000000000000193,13.751883367919722545
0.343000000000000194,13.571113450532038769
0.344000000000000195,13.392619400011033903
0.345000000000000195,13.216372985584452948
0.346000000000000196,13.042346243796103522
0.347000000000000197,12.870511480547156324
0.348000000000000198,12.700841273026265199
0.349000000000000199,12.533308471522863314
0.350000000000000200,12.367886201118603040
0.351000000000000201,12.204547863252518169
0.352000000000000202,12.043267137156048463
0.353000000000000203,11.884017981154773480
0.354000000000000203,11.726774633833811023
0.355000000000000204,11.571511615064917322
0.356000000000000205,11.418203726893420225
0.357000000000000206,11.266826054283539449
0.358000000000000207,11.117353965721466835
0.359000000000000208,10.969763113675698563
0.360000000000000209,10.824029434914349324
0.361000000000000210,10.680129150680221173
0.362000000000000210,10.538038766723875739
0.363000000000000211,10.397735073196063382
0.364000000000000212,10.259195144400639066
0.365000000000000213,10.122396338409778593
0.366000000000000214,9.987316296543259142
0.367000000000000215,9.853932942714092036
0.368000000000000216,9.722224482642829457
0.369000000000000217,9.592169402943250489
0.370000000000000218,9.463746470082181617
0.371000000000000218,9.336934729216581630
0.372000000000000219,9.211713502910923168
0.373000000000000220,9.088062389738306379
0.374000000000000221,8.965961262768741946
0.375000000000000222,8.845390267948259222
0.376000000000000223,8.726329822372370870
0.377000000000000224,8.608760612457833972
0.378000000000000225,8.492663592016507224
0.379000000000000226,8.378019980235253072
0.380000000000000226,8.264811259565785662
0.381000000000000227,8.153019173528607055
0.382000000000000228,8.042625724434975254
0.383000000000000229,7.933613171030991396
0.384000000000000230,7.825964026067938839
0.385000000000000231,7.719661053802829187
0.386000000000000232,7.614687267433344786
0.387000000000000233,7.511025926471073255
0.388000000000000234,7.408660534057181835
0.389000000000000234,7.307574834224437765
0.390000000000000235,7.207752809109462255
0.391000000000000236,7.109178676119223717
0.392000000000000237,7.011836885055489965
0.393000000000000238,6.915712115201053223
0.394000000000000239,6.820789272371436951
0.395000000000000240,6.727053485935703847
0.396000000000000241,6.634490105809929261
0.397000000000000242,6.543084699426820805
0.398000000000000242,6.452823048684843243
0.399000000000000243,6.363691146880301019
0.400000000000000244,6.275675195625380454
0.401000000000000245,6.188761601755451203
0.402000000000000246,6.102936974228725830
0.403000000000000247,6.018188121020978443
0.404000000000000248,5.934502046018431010
0.405000000000000249,5.851865945911436384
0.406000000000000250,5.770267207091674067
0.407000000000000250,5.689693402555370483
0.408000000000000251,5.610132288815051993
0.409000000000000252,5.531571802822203843
0.410000000000000253,5.454000058903059944
0.411000000000000254,5.377405345709728834
0.412000000000000255,5.301776123188773227
0.413000000000000256,5.227101019569099449
0.414000000000000257,5.153368828371197807
0.415000000000000258,5.080568505439353899
0.416000000000000258,5.008689165998713833
0.417000000000000259,4.937720081738612876
0.418000000000000260,4.867650677923841762
0.419000000000000261,4.798470530535153600
0.420000000000000262,4.730169363440444918
0.421000000000000263,4.662737045597750374
0.422000000000000264,4.596163588291350521
0.423000000000000265,4.530439142401943897
0.424000000000000266,4.465553995711954549
0.425000000000000266,4.401498570246916486
0.426000000000000267,4.338263419653700659
0.427000000000000268,4.275839226616441557
0.428000000000000269,4.214216800310820688
0.429000000000000270,4.153387073897323312
0.430000000000000271,4.093341102054088410
0.431000000000000272,4.034070058549749760
0.432000000000000273,3.975565233856811265
0.433000000000000274,3.917818032805843842
0.434000000000000274,3.860819972280828516
0.435000000000000275,3.804562678955937027
0.436000000000000276,3.749037887073913389
0.437000000000000277,3.694237436266174512
0.438000000000000278,3.640153269414810211
0.439000000000000279,3.586777430556428392
0.440000000000000280,3.534102062827887636
0.441000000000000281,3.482119406453921151
0.442000000000000282,3.430821796776414523
0.443000000000000282,3.380201662325409195
0.444000000000000283,3.330251522931456432
0.445000000000000284,3.280963987879287114
0.446000000000000285,3.232331754102452770
0.447000000000000286,3.184347604418672706
0.448000000000000287,3.137004405805648766
0.449000000000000288,3.090295107716925394
0.450000000000000289,3.044212740437496567
0.451000000000000290,2.998750413478751931
0.452000000000000290,2.953901314012311818
0.453000000000000291,2.909658705342388352
0.454000000000000292,2.866015925416159682
0.455000000000000293,2.822966385371685316
0.456000000000000294,2.780503568122904223
0.457000000000000295,2.738621026981142847
0.458000000000000296,2.697312384312684053
0.459000000000000297,2.656571330231783712
0.460000000000000298,2.616391621328614914
0.461000000000000298,2.576767079431575347
0.462000000000000299,2.537691590403370778
0.463000000000000300,2.499159102970309299
0.464000000000000301,2.461163627584160185
0.465000000000000302,2.423699235316062683
0.466000000000000303,2.386760056781811468
0.467000000000000304,2.350340281097889950
0.468000000000000305,2.314434154867739402
0.469000000000000306,2.279035981197539140
0.470000000000000306,2.244140118740897805
0.471000000000000307,2.209740980771899288
0.472000000000000308,2.175833034285807877
0.473000000000000309,2.142410799126815313
0.474000000000000310,2.109468847142271564
0.475000000000000311,2.077001801362681199
0.476000000000000312,2.045004335206970669
0.477000000000000313,2.013471171712238661
0.478000000000000314,1.982397082787584974
0.479000000000000314,1.951776888491226103
0.480000000000000315,1.921605456330402362
0.481000000000000316,1.891877700583428634
0.482000000000000317,1.862588581643332741
0.483000000000000318,1.833733105382441053
0.484000000000000319,1.805306322537361563
0.485000000000000320,1.777303328113821745
0.486000000000000321,1.749719260810698840
0.487000000000000322,1.722549302462757836
0.488000000000000322,1.695788677501557373
0.489000000000000323,1.669432652433874953
0.490000000000000324,1.643476535337219602
0.491000000000000325,1.617915675371853101
0.492000000000000326,1.592745462308798654
0.493000000000000327,1.567961326073315842
0.494000000000000328,1.543558736303373591
0.495000000000000329,1.519533201922562027
0.496000000000000330,1.495880270727054651
0.497000000000000330,1.472595528985977342
0.498000000000000331,1.449674601054947942
0.499000000000000332,1.427113149002090742
0.500000000000000333,1.404906872246210803
0.501000000000000334,1.383051507206704001
0.502000000000000335,1.361542826964643016
0.503000000000000336,1.340376640934778596
0.504000000000000337,1.319548794547889425
0.505000000000000338,1.299055168943209493
0.506000000000000338,1.278891680670445785
0.507000000000000339,1.259054281401029041
0.508000000000000340,1.239538957648281148
0.509000000000000341,1.220341730495990262
0.510000000000000342,1.201458655335229109
0.511000000000000343,1.182885821608875121
0.512000000000000344,1.164619352563649901
0.513000000000000345,1.146655405009272766
0.514000000000000346,1.128990169084375328
0.515000000000000346,1.111619868028975722
0.516000000000000347,1.094540757963108124
0.517000000000000348,1.077749127671352669
0.518000000000000349,1.061241298392991084
0.519000000000000350,1.045013623617473630
0.520000000000000351,1.029062488885019278
0.521000000000000352,1.013384311591918330
0.522000000000000353,0.997975540800509875
0.523000000000000353,0.982832657053383629
0.524000000000000354,0.967952172191710813
0.525000000000000355,0.953330629177391087
0.526000000000000356,0.938964601918874209
0.527000000000000357,0.924850695100352782
0.528000000000000358,0.910985544014198068
0.529000000000000359,0.897365814396383854
0.530000000000000360,0.883988202264776590
0.531000000000000361,0.870849433760019997
0.532000000000000361,0.857946264988908025
0.533000000000000362,0.845275481870039869
0.534000000000000363,0.832833899981627490
0.535000000000000364,0.820618364411224155
0.536000000000000365,0.808625749607340127
0.537000000000000366,0.796852959232666747
0.538000000000000367,0.785296926018914432
0.539000000000000368,0.773954611622969080
0.540000000000000369,0.762823006484406707
0.541000000000000369,0.751899129684082679
0.542000000000000370,0.741180028803854252
0.543000000000000371,0.730662779787143668
0.544000000000000372,0.720344486800385098
0.545000000000000373,0.710222282095159252
0.546000000000000374,0.700293325870969041
0.547000000000000375,0.690554806138556798
0.548000000000000376,0.681003938583653157
0.549000000000000377,0.671637966431126054
0.550000000000000377,0.662454160309359996
0.551000000000000378,0.653449818114941516
0.552000000000000379,0.644622264877400708
0.553000000000000380,0.635968852624099634
0.554000000000000381,0.627486960245136727
0.555000000000000382,0.619173993358167252
0.556000000000000383,0.611027384173216670
0.557000000000000384,0.603044591357258963
0.558000000000000385,0.595223099898708030
0.559000000000000385,0.587560420971620423
0.560000000000000386,0.580054091799624416
0.561000000000000387,0.572701675519580733
0.562000000000000388,0.565500761044894995
0.563000000000000389,0.558448962928424164
0.564000000000000390,0.551543921225030487
0.565000000000000391,0.544783301353676364
0.566000000000000392,0.538164793959106103
0.567000000000000393,0.531686114773003426
0.568000000000000393,0.525345004474724986
0.569000000000000394,0.519139228551492193
0.570000000000000395,0.513066577158063253
0.571000000000000396,0.507124864975919132
0.572000000000000397,0.501311931071843353
0.573000000000000398,0.495625638756027498
0.574000000000000399,0.490063875439561314
0.575000000000000400,0.484624552491418004
0.576000000000000401,0.479305605094865306
0.577000000000000401,0.474104992103284606
0.578000000000000402,0.469020695895479622
0.579000000000000403,0.464050722230424928
0.580000000000000404,0.459193100101406515
0.581000000000000405,0.454445881589705780
0.582000000000000406,0.449807141717649905
0.583000000000000407,0.445274978301208324
0.584000000000000408,0.440847511802010927
0.585000000000000409,0.436522885178874609
0.586000000000000409,0.432299263738844364
0.587000000000000410,0.428174834987679442
0.588000000000000411,0.424147808479961530
0.589000000000000412,0.420216415668621557
0.590000000000000413,0.416378909754117288
0.591000000000000414,0.412633565533117808
0.592000000000000415,0.408978679246773502
0.593000000000000416,0.405412568428606512
0.594000000000000417,0.401933571752011887
0.595000000000000417,0.398540048877340736
0.596000000000000418,0.395230380298726203
0.597000000000000419,0.392002967190475726
0.598000000000000420,0.388856231253242868
0.599000000000000421,0.385788614559838261
0.600000000000000422,0.382798579400798089
0.601000000000000423,0.379884608129721413
0.602000000000000424,0.377045203008329111
0.603000000000000425,0.374278886051332804
0.604000000000000425,0.371584198871143356
0.605000000000000426,0.368959702522371091
0.606000000000000427,0.366403977346172305
0.607000000000000428,0.363915622814551920
0.608000000000000429,0.361493257374428167
0.609000000000000430,0.359135518291761824
0.610000000000000431,0.356841061495506651
0.611000000000000432,0.354608561421590696
0.612000000000000433,0.352436710856872337
0.613000000000000433,0.350324220783070850
0.614000000000000434,0.348269820220757531
0.615000000000000435,0.346272256073384632
0.616000000000000436,0.344330292971409435
0.617000000000000437,0.342442713116449249
0.618000000000000438,0.340608316125611044
