# ZnO1m210BOND_HSPSCA-JS
# h[nm],U(h)[kJ/mol]
0.200000000000000011,77.176765462245015215
0.201000000000000012,75.676440475139216346
0.202000000000000013,74.184004618113007723
0.203000000000000014,72.708901373453457495
0.204000000000000015,71.253947815189846438
0.205000000000000016,69.818607004295841989
0.206000000000000016,68.400969414345780706
0.207000000000000017,66.998878227716929246
0.208000000000000018,65.610502993848712094
0.209000000000000019,64.234571575364483920
0.210000000000000020,62.870402338719316049
0.211000000000000021,61.517830227883692373
0.212000000000000022,60.177086461887540736
0.213000000000000023,58.848668198406208774
0.214000000000000024,57.533218680786092136
0.215000000000000024,56.231427965406588498
0.216000000000000025,54.943957711414121547
0.217000000000000026,53.671389536630762507
0.218000000000000027,52.414194254509972382
0.219000000000000028,51.172718299721999813
0.220000000000000029,49.947183393999317502
0.221000000000000030,48.737695699342680200
0.222000000000000031,47.544261147676039059
0.223000000000000032,46.366804188212469739
0.224000000000000032,45.205187768711503793
0.225000000000000033,44.059232911383055864
0.226000000000000034,42.928736729019306040
0.227000000000000035,41.813488138556266449
0.228000000000000036,40.713280864586444352
0.229000000000000037,39.627923587696123775
0.230000000000000038,38.557247288886600245
0.231000000000000039,37.501109980546218026
0.232000000000000040,36.459399105811243658
0.233000000000000040,35.432031940777207524
0.234000000000000041,34.418954356282839058
0.235000000000000042,33.420138295304873566
0.236000000000000043,32.435578304734193011
0.237000000000000044,31.465287431756923553
0.238000000000000045,30.509292759539285100
0.239000000000000046,29.567630817817860844
0.240000000000000047,28.640343063927900857
0.241000000000000048,27.727471590700712767
0.242000000000000048,26.829055180884939347
0.243000000000000049,25.945125794201267411
0.244000000000000050,25.075705543363223882
0.245000000000000051,24.220804189627607172
0.246000000000000052,23.380417166715520949
0.247000000000000053,22.554524124130001184
0.248000000000000054,21.743087966751978968
0.249000000000000055,20.946054356806214969
0.250000000000000056,20.163351636496550157
0.251000000000000056,19.394891124439595842
0.252000000000000057,18.640567736102312324
0.253000000000000058,17.900260877409685634
0.254000000000000059,17.173835561190440302
0.255000000000000060,16.461143697859885293
0.256000000000000061,15.762025514415693550
0.257000000000000062,15.076311059194930309
0.258000000000000063,14.403821753692056973
0.259000000000000064,13.744371956881735741
0.260000000000000064,13.097770511771807733
0.261000000000000065,12.463822248203566545
0.262000000000000066,11.842329420112831073
0.263000000000000067,11.233093059490173005
0.264000000000000068,10.635914233067818913
0.265000000000000069,10.050595191272119422
0.266000000000000070,9.476940402186656343
0.267000000000000071,8.914757466152803289
0.268000000000000071,8.363857909189114537
0.269000000000000072,7.824057855637367886
0.270000000000000073,7.295178582352508379
0.271000000000000074,6.777046958358873496
0.272000000000000075,6.269495775213272282
0.273000000000000076,5.772363974368553308
0.274000000000000077,5.285496778639125814
0.275000000000000078,4.808745735457354620
0.276000000000000079,4.341968679999177461
0.277000000000000079,3.885029626470891451
0.278000000000000080,3.437798595911814026
0.279000000000000081,3.000151388796968632
0.280000000000000082,2.571969310544138132
0.281000000000000083,2.153138857756155655
0.282000000000000084,1.743551372682031753
0.283000000000000085,1.343102672973702116
0.284000000000000086,0.951692663362977087
0.285000000000000087,0.569224935400559628
0.286000000000000087,0.195606360893903458
0.287000000000000088,-0.169253315834165002
0.288000000000000089,-0.525441882261665327
0.289000000000000090,-0.873045054467039505
0.290000000000000091,-1.212146862821390725
0.291000000000000092,-1.542830023468913403
0.292000000000000093,-1.865176292955619930
0.293000000000000094,-2.179266803808521225
0.294000000000000095,-2.485182379283096488
0.295000000000000095,-2.783003825885851601
0.296000000000000096,-3.072812202637869028
0.297000000000000097,-3.354689066376355555
0.298000000000000098,-3.628716692691907664
0.299000000000000099,-3.894978272371639516
0.300000000000000100,-4.153558083461406980
0.301000000000000101,-4.404541639276763121
0.302000000000000102,-4.648015812880596620
0.303000000000000103,-4.884068938710298902
0.304000000000000103,-5.112790892175970825
0.305000000000000104,-5.334273148169027756
0.306000000000000105,-5.548608819516386959
0.307000000000000106,-5.755892676491845883
0.308000000000000107,-5.956221148555014722
0.309000000000000108,-6.149692309529886103
0.310000000000000109,-6.336405847462899921
0.311000000000000110,-6.516463020413043594
0.312000000000000111,-6.689966599429385319
0.313000000000000111,-6.857020799961423663
0.314000000000000112,-7.017731202929789802
0.315000000000000113,-7.172204666658087646
0.316000000000000114,-7.320549230833425902
0.317000000000000115,-7.462874013623290281
0.318000000000000116,-7.599289103032541348
0.319000000000000117,-7.729905443535661114
0.320000000000000118,-7.854834718967886431
0.321000000000000119,-7.974189232605228383
0.322000000000000119,-8.088081785307513982
0.323000000000000120,-8.196625552541920712
0.324000000000000121,-8.299933961047759823
0.325000000000000122,-8.398120565845616170
0.326000000000000123,-8.491298928237650756
0.327000000000000124,-8.579582495389658447
0.328000000000000125,-8.663084482031262468
0.329000000000000126,-8.741917754756851622
0.330000000000000127,-8.816194719358641407
0.331000000000000127,-8.886027211573431117
0.332000000000000128,-8.951526391576924979
0.333000000000000129,-9.012802642514211371
0.334000000000000130,-9.069965473311384585
0.335000000000000131,-9.123123425972973877
0.336000000000000132,-9.172383987530700722
0.337000000000000133,-9.217853506773375116
0.338000000000000134,-9.259637115854006950
0.339000000000000135,-9.297838656838408156
0.340000000000000135,-9.332560613231203561
0.341000000000000136,-9.363904046487805388
0.342000000000000137,-9.391968537496861558
0.343000000000000138,-9.416852132995021663
0.344000000000000139,-9.438651296855978146
0.345000000000000140,-9.457460866177232361
0.346000000000000141,-9.473374012071985817
0.347000000000000142,-9.486482205058885953
0.348000000000000143,-9.496875184929979952
0.349000000000000143,-9.504640934965914667
0.350000000000000144,-9.509865660358189032
0.351000000000000145,-9.512633770690070989
0.352000000000000146,-9.513027866321463577
0.353000000000000147,-9.511128728517359576
0.354000000000000148,-9.507015313155699587
0.355000000000000149,-9.500764747847210145
0.356000000000000150,-9.492452332297968809
0.357000000000000151,-9.482151541744229917
0.358000000000000151,-9.469934033289042929
0.359000000000000152,-9.455869654970552318
0.360000000000000153,-9.440026457393370762
0.361000000000000154,-9.422470707756211539
0.362000000000000155,-9.403266906111518608
0.363000000000000156,-9.382477803695838503
0.364000000000000157,-9.360164423173028325
0.365000000000000158,-9.336386080636568607
0.366000000000000159,-9.311200409220870000
0.367000000000000159,-9.284663384176550238
0.368000000000000160,-9.256829349268887341
0.369000000000000161,-9.227751044363831312
0.370000000000000162,-9.197479634070958809
0.371000000000000163,-9.166064737317924482
0.372000000000000164,-9.133554457736192234
0.373000000000000165,-9.099995414743380806
0.374000000000000166,-9.065432775212654448
0.375000000000000167,-9.029910285625092570
0.376000000000000167,-8.993470304606407950
0.377000000000000168,-8.956153835754470549
0.378000000000000169,-8.918000560669559817
0.379000000000000170,-8.879048872104334578
0.380000000000000171,-8.839335907155541960
0.381000000000000172,-8.798897580424618781
0.382000000000000173,-8.757768617078982132
0.383000000000000174,-8.715982585750801093
0.384000000000000175,-8.673571931214357988
0.385000000000000175,-8.630568006787743940
0.386000000000000176,-8.587001106408976625
0.387000000000000177,-8.542900496340504191
0.388000000000000178,-8.498294446460525009
0.389000000000000179,-8.453210261102869438
0.390000000000000180,-8.407674309411323321
0.391000000000000181,-8.361712055177509484
0.392000000000000182,-8.315348086134948247
0.393000000000000183,-8.268606142685051452
0.394000000000000183,-8.221509146033893600
0.395000000000000184,-8.174079225721513353
0.396000000000000185,-8.126337746528118799
0.397000000000000186,-8.078305334744317889
0.398000000000000187,-8.030001903794815377
0.399000000000000188,-7.981446679207357064
0.400000000000000189,-7.932658222920798252
0.401000000000000190,-7.883654456928267606
0.402000000000000191,-7.834452686253274400
0.403000000000000191,-7.785069621258196904
0.404000000000000192,-7.735521399286490407
0.405000000000000193,-7.685823605641148859
0.406000000000000194,-7.635991293903631849
0.407000000000000195,-7.586039005598545160
0.408000000000000196,-7.535980789210604769
0.409000000000000197,-7.485830218561501326
0.410000000000000198,-7.435600410555265327
0.411000000000000199,-7.385304042301465977
0.412000000000000199,-7.334953367626627418
0.413000000000000200,-7.284560232984702566
0.414000000000000201,-7.234136092778248539
0.415000000000000202,-7.183692024102315443
0.416000000000000203,-7.133238740923795618
0.417000000000000204,-7.082786607709114612
0.418000000000000205,-7.032345652513686041
0.419000000000000206,-6.981925579546794047
0.420000000000000207,-6.931535781225681703
0.421000000000000207,-6.881185349733101475
0.422000000000000208,-6.830883088092248201
0.423000000000000209,-6.780637520773626470
0.424000000000000210,-6.730456903847991335
0.425000000000000211,-6.680349234699716199
0.426000000000000212,-6.630322261314999466
0.427000000000000213,-6.580383491158928955
0.428000000000000214,-6.530540199655763267
0.429000000000000214,-6.480799438286256375
0.430000000000000215,-6.431168042315951183
0.431000000000000216,-6.381652638168199054
0.432000000000000217,-6.332259650455246636
0.433000000000000218,-6.282995308680776603
0.434000000000000219,-6.233865653626891046
0.435000000000000220,-6.184876543438412533
0.436000000000000221,-6.136033659416925801
0.437000000000000222,-6.087342511536943945
0.438000000000000222,-6.038808443696099815
0.439000000000000223,-5.990436638711157613
0.440000000000000224,-5.942232123071154781
0.441000000000000225,-5.894199771458809245
0.442000000000000226,-5.846344311051074882
0.443000000000000227,-5.798670325609127651
0.444000000000000228,-5.751182259368213145
0.445000000000000229,-5.703884420737010075
0.446000000000000230,-5.656780985816103779
0.447000000000000230,-5.609876001744906304
0.448000000000000231,-5.563173389885799125
0.449000000000000232,-5.516676948854152052
0.450000000000000233,-5.470390357402569848
0.451000000000000234,-5.424317177167276682
0.452000000000000235,-5.378460855284384223
0.453000000000000236,-5.332824726883369060
0.454000000000000237,-5.287412017464951930
0.455000000000000238,-5.242225845170072951
0.456000000000000238,-5.197269222946578004
0.457000000000000239,-5.152545060619791784
0.458000000000000240,-5.108056166873021553
0.459000000000000241,-5.063805251143572939
0.460000000000000242,-5.019794925439909683
0.461000000000000243,-4.976027706084925839
0.462000000000000244,-4.932506015390511145
0.463000000000000245,-4.889232183267848697
0.464000000000000246,-4.846208448778179800
0.465000000000000246,-4.803436961628065660
0.466000000000000247,-4.760919783613305256
0.467000000000000248,-4.718658890015201557
0.468000000000000249,-4.676656170952908198
0.469000000000000250,-4.634913432695134006
0.470000000000000251,-4.593432398934514715
0.471000000000000252,-4.552214712027539356
0.472000000000000253,-4.511261934203081303
0.473000000000000254,-4.470575548741980931
0.474000000000000254,-4.430156961130347959
0.475000000000000255,-4.390007500188823464
0.476000000000000256,-4.350128419180061101
0.477000000000000257,-4.310520896896441023
0.478000000000000258,-4.271186038729901213
0.479000000000000259,-4.232124877725700784
0.480000000000000260,-4.193338375621715741
0.481000000000000261,-4.154827423874786874
0.482000000000000262,-4.116592844675523999
0.483000000000000262,-4.078635391952886380
0.484000000000000263,-4.040955752369629117
0.485000000000000264,-4.003554546309786133
0.486000000000000265,-3.966432328859141876
0.487000000000000266,-3.929589590779527519
0.488000000000000267,-3.893026759477816512
0.489000000000000268,-3.856744199970327802
0.490000000000000269,-3.820742215843205170
0.491000000000000270,-3.785021050209477433
0.492000000000000270,-3.749580886663129942
0.493000000000000271,-3.714421850230789968
0.494000000000000272,-3.679544008321287585
0.495000000000000273,-3.644947371673411762
0.496000000000000274,-3.610631895302228056
0.497000000000000275,-3.576597479444007632
0.498000000000000276,-3.542843970500081152
0.499000000000000277,-3.509371161979651710
0.500000000000000222,-3.476178795441653868
0.501000000000000334,-3.443266561435734729
0.502000000000000224,-3.410634100442358374
0.503000000000000336,-3.378281003811930638
0.504000000000000226,-3.346206814703049481
0.505000000000000338,-3.314411029019575405
0.506000000000000227,-3.282893096346677364
0.507000000000000339,-3.251652420885448258
0.508000000000000229,-3.220688362386197490
0.509000000000000341,-3.190000237079990697
0.510000000000000231,-3.159587318608551243
0.511000000000000343,-3.129448838951999878
0.512000000000000233,-3.099583989354492974
0.513000000000000345,-3.069991921247310351
0.514000000000000234,-3.040671747169401584
0.515000000000000346,-3.011622541684844556
0.516000000000000236,-2.982843342297265998
0.517000000000000348,-2.954333150360727078
0.518000000000000238,-2.926090931987007870
0.519000000000000350,-2.898115618948831962
0.520000000000000240,-2.870406109578942822
0.521000000000000352,-2.842961269664639357
0.522000000000000242,-2.815779933337572594
0.523000000000000353,-2.788860903958484627
0.524000000000000243,-2.762202954996660687
0.525000000000000355,-2.735804830903800777
0.526000000000000245,-2.709665247982100400
0.527000000000000357,-2.683782895246170863
0.528000000000000247,-2.658156435278703711
0.529000000000000359,-2.632784505079465376
0.530000000000000249,-2.607665716907503040
0.531000000000000361,-2.582798659116237516
0.532000000000000250,-2.558181896981280179
0.533000000000000362,-2.533813973520670171
0.534000000000000252,-2.509693410307372918
0.535000000000000364,-2.485818708273789923
0.536000000000000254,-2.462188348508126179
0.537000000000000366,-2.438800793042284365
0.538000000000000256,-2.415654485631307580
0.539000000000000368,-2.392747852523936292
0.540000000000000258,-2.370079303224361222
0.541000000000000369,-2.347647231244740951
0.542000000000000259,-2.325450014848578828
0.543000000000000371,-2.303486017784591944
0.544000000000000261,-2.281753590011082800
0.545000000000000373,-2.260251068410580100
0.546000000000000263,-2.238976777494709580
0.547000000000000375,-2.217929030099030641
0.548000000000000265,-2.197106128067968456
0.549000000000000377,-2.176506362929439664
0.550000000000000266,-2.156128016559363036
0.551000000000000378,-2.135969361835750924
0.552000000000000268,-2.116028663282448097
0.553000000000000380,-2.096304177702346117
0.554000000000000270,-2.076794154800114534
0.555000000000000382,-2.057496837794259736
0.556000000000000272,-2.038410464018638457
0.557000000000000384,-2.019533265513174136
0.558000000000000274,-2.000863469603989309
0.559000000000000385,-1.982399299472663134
0.560000000000000275,-1.964138974714857211
0.561000000000000387,-1.946080711888081627
0.562000000000000277,-1.928222725048733377
0.563000000000000389,-1.910563226278348070
0.564000000000000279,-1.893100426199098463
0.565000000000000391,-1.875832534478537372
0.566000000000000281,-1.858757760323614949
0.567000000000000393,-1.841874312963980076
0.568000000000000282,-1.825180402124659818
0.569000000000000394,-1.808674238488035657
0.570000000000000284,-1.792354034145289265
0.571000000000000396,-1.776218003037268289
0.572000000000000286,-1.760264361384908494
0.573000000000000398,-1.744491328109160522
0.574000000000000288,-1.728897125240596466
0.575000000000000400,-1.713479978318703356
0.576000000000000290,-1.698238116780929730
0.577000000000000401,-1.683169774341585212
0.578000000000000291,-1.668273189360665709
0.579000000000000403,-1.653546605202661279
0.580000000000000293,-1.638988270585487239
0.581000000000000405,-1.624596439919543611
0.582000000000000295,-1.610369373637103196
0.583000000000000407,-1.596305338512015171
0.584000000000000297,-1.582402607969901620
0.585000000000000409,-1.568659462388900749
0.586000000000000298,-1.555074189391102868
0.587000000000000410,-1.541645084124726450
0.588000000000000300,-1.528370449537215903
0.589000000000000412,-1.515248596639291900
0.590000000000000302,-1.502277844760125713
0.591000000000000414,-1.489456521793747434
0.592000000000000304,-1.476782964436766932
0.593000000000000416,-1.464255518417533430
0.594000000000000306,-1.451872538716912464
0.595000000000000417,-1.439632389780710398
0.596000000000000307,-1.427533445723923045
0.597000000000000419,-1.415574090526920070
0.598000000000000309,-1.403752718223702622
0.599000000000000421,-1.392067733082292147
0.600000000000000311,-1.380517549777491970
0.601000000000000423,-1.369100593556014100
0.602000000000000313,-1.357815300394225932
0.603000000000000425,-1.346660117148501090
0.604000000000000314,-1.335633501698476389
0.605000000000000426,-1.324733923083145637
0.606000000000000316,-1.313959861630098924
0.607000000000000428,-1.303309809077877857
0.608000000000000318,-1.292782268691718972
0.609000000000000430,-1.282375755372674453
0.610000000000000320,-1.272088795760349278
0.611000000000000432,-1.261919928329299001
0.612000000000000322,-1.251867703479273786
0.613000000000000433,-1.241930683619387299
0.614000000000000323,-1.232107443246371226
0.615000000000000435,-1.222396569017018653
0.616000000000000325,-1.212796659814941780
0.617000000000000437,-1.203306326811772298
0.618000000000000327,-1.193924193522939881
0.619000000000000439,-1.184648895858098516
0.620000000000000329,-1.175479082166397848
0.621000000000000441,-1.166413413276656375
0.622000000000000330,-1.157450562532581495
0.623000000000000442,-1.148589215823154763
0.624000000000000332,-1.139828071608285143
0.625000000000000444,-1.131165840939865053
0.626000000000000334,-1.122601247478330233
0.627000000000000446,-1.114133027504835116
0.628000000000000336,-1.105759929929170493
0.629000000000000448,-1.097480716293510739
0.630000000000000338,-1.089294160772137365
0.631000000000000449,-1.081199050167195530
0.632000000000000339,-1.073194183900645138
0.633000000000000451,-1.065278374002469608
0.634000000000000341,-1.057450445095272418
0.635000000000000453,-1.049709234375363121
0.636000000000000343,-1.042053591590403894
0.637000000000000455,-1.034482379013769826
0.638000000000000345,-1.026994471415683785
0.639000000000000457,-1.019588756031215571
0.640000000000000346,-1.012264132525294569
0.641000000000000458,-1.005019512954758110
0.642000000000000348,-0.997853821727601398
0.643000000000000460,-0.990765995559454105
0.644000000000000350,-0.983754983427438057
0.645000000000000462,-0.976819746521435439
0.646000000000000352,-0.969959258192907625
0.647000000000000464,-0.963172503901298049
0.648000000000000353,-0.956458481158177110
0.649000000000000465,-0.949816199469108446
0.650000000000000355,-0.943244680273443104
0.651000000000000467,-0.936742956881993605
0.652000000000000357,-0.930310074412791677
0.653000000000000469,-0.923945089724886204
0.654000000000000359,-0.917647071350375598
0.655000000000000471,-0.911415099424636721
0.656000000000000361,-0.905248265614924330
0.657000000000000473,-0.899145673047327065
0.658000000000000362,-0.893106436232225853
0.659000000000000474,-0.887129680988252289
0.660000000000000364,-0.881214544364887886
0.661000000000000476,-0.875360174563697080
0.662000000000000366,-0.869565730858314678
0.663000000000000478,-0.863830383513231381
