# ZnO1m210BOND_PROPENE-AC
# h[nm],U(h)[kJ/mol]
0.200000000000000011,57.046462097936014857
0.201000000000000012,55.639675763051386070
0.202000000000000013,54.584238341714183207
0.203000000000000014,53.693310204156730947
0.204000000000000015,52.860573384564283117
0.205000000000000016,52.031207211541335766
0.206000000000000016,51.181971482802595119
0.207000000000000017,50.307831302334527379
0.208000000000000018,49.413222669790499708
0.209000000000000019,48.506561298844857788
0.210000000000000020,47.596976318000955075
0.211000000000000021,46.692534521057986296
0.212000000000000022,45.799432209195146015
0.213000000000000023,44.921787824709170422
0.214000000000000024,44.061782956637443931
0.215000000000000024,43.219982235164550843
0.216000000000000025,42.395722044755160596
0.217000000000000026,41.587499921823834370
0.218000000000000027,40.793325557773201240
0.219000000000000028,40.011013979503296412
0.220000000000000029,39.238414342898330744
0.221000000000000030,38.473575805857095133
0.222000000000000031,37.714856597292694573
0.223000000000000032,36.960984734765695237
0.224000000000000032,36.211079643396253402
0.225000000000000033,35.464643751434046237
0.226000000000000034,34.721532379172842298
0.227000000000000035,33.981909172569785937
0.228000000000000036,33.246193146806746199
0.229000000000000037,32.515002219303404729
0.230000000000000038,31.789097001168535428
0.231000000000000039,31.069327622876880213
0.232000000000000040,30.356585513634893658
0.233000000000000040,29.651761338898786846
0.234000000000000041,28.955709721580337401
0.235000000000000042,28.269220918551631883
0.236000000000000043,27.592999280975572418
0.237000000000000044,26.927648079365724243
0.238000000000000045,26.273660106760928556
0.239000000000000046,25.631413371457046679
0.240000000000000047,25.001171141111797169
0.241000000000000048,24.383085590999776571
0.242000000000000048,23.777204330595832715
0.243000000000000049,23.183479125928972309
0.244000000000000050,22.601776193174021756
0.245000000000000051,22.031887505960639828
0.246000000000000052,21.473542630309047752
0.247000000000000053,20.926420673399903194
0.248000000000000054,20.390162002891663917
0.249000000000000055,19.864379460289679713
0.250000000000000056,19.348668853630382358
0.251000000000000056,18.842618570651005427
0.252000000000000057,18.345818203237911348
0.253000000000000058,17.857866117159314712
0.254000000000000059,17.378375937992689870
0.255000000000000060,16.906981955025923270
0.256000000000000061,16.443343470132607109
0.257000000000000062,15.987148138661314789
0.258000000000000063,15.538114364744615159
0.259000000000000064,15.095992824652938680
0.260000000000000064,14.660567199415595496
0.261000000000000065,14.231654202416095245
0.262000000000000066,13.809102989520649629
0.263000000000000067,13.392794038969039860
0.264000000000000068,12.982637586152538489
0.265000000000000069,12.578571694895703814
0.266000000000000070,12.180560042276432853
0.267000000000000071,11.788589488648685943
0.268000000000000071,11.402667498626465559
0.269000000000000072,11.022819472557781495
0.270000000000000073,10.649086041644011402
0.271000000000000074,10.281520373491606080
0.272000000000000075,9.920185528640018902
0.273000000000000076,9.565151902588823418
0.274000000000000077,9.216494782120728146
0.275000000000000078,8.874292039341785454
0.276000000000000079,8.538621981873044220
0.277000000000000079,8.209561373052576272
0.278000000000000080,7.887183631857740629
0.279000000000000081,7.571557218534209710
0.280000000000000082,7.262744208617831987
0.281000000000000083,6.960799055143946035
0.282000000000000084,6.665767536340484689
0.283000000000000085,6.377685883975112269
0.284000000000000086,6.096580085748660949
0.285000000000000087,5.822465353673445421
0.286000000000000087,5.555345749218020046
0.287000000000000088,5.295213955113675652
0.288000000000000089,5.042051183075971998
0.289000000000000090,4.795827206270275589
0.290000000000000091,4.556500505119500666
0.291000000000000092,4.324018514989487194
0.292000000000000093,4.098317964371712918
0.293000000000000094,3.879325292391583080
0.294000000000000095,3.666957134784543548
0.295000000000000095,3.461120867882603314
0.296000000000000096,3.261715200625096678
0.297000000000000097,3.068630805133092387
0.298000000000000098,2.881750976954557952
0.299000000000000099,2.700952316683917331
0.300000000000000100,2.526105425275308569
0.301000000000000101,2.357075605993157019
0.302000000000000102,2.193723566569795391
0.303000000000000103,2.035906115758957746
0.304000000000000103,1.883476849082299509
0.305000000000000104,1.736286819156545480
0.306000000000000105,1.594185186558746192
0.307000000000000106,1.457019847732751616
0.308000000000000107,1.324638036958398102
0.309000000000000108,1.196886899895014400
0.310000000000000109,1.073614036670206051
0.311000000000000110,0.954668012914056674
0.312000000000000111,0.839898837535694498
0.313000000000000111,0.729158406405592152
0.314000000000000112,0.622300911441518445
0.315000000000000113,0.519183214900512668
0.316000000000000114,0.419665188953814883
0.317000000000000115,0.323610020867618142
0.318000000000000116,0.230884484330824785
0.319000000000000117,0.141359177662988611
0.320000000000000118,0.054908729802759827
0.321000000000000119,-0.028588024879461660
0.322000000000000119,-0.109247901779423270
0.323000000000000120,-0.187183250001365126
0.324000000000000121,-0.262501863697238824
0.325000000000000122,-0.335306919391063385
0.326000000000000123,-0.405696937829004844
0.327000000000000124,-0.473765768862836112
0.328000000000000125,-0.539602597855152299
0.329000000000000126,-0.603291972087275585
0.330000000000000127,-0.664913845654668156
0.331000000000000127,-0.724543641347981771
0.332000000000000128,-0.782252328039932832
0.333000000000000129,-0.838106512127778425
0.334000000000000130,-0.892168541617172295
0.335000000000000131,-0.944496621475058085
0.336000000000000132,-0.995144938925416667
0.337000000000000133,-1.044163797412260397
0.338000000000000134,-1.091599758007713916
0.339000000000000135,-1.137495787098928179
0.340000000000000135,-1.181891409245696467
0.341000000000000136,-1.224822864159635483
0.342000000000000137,-1.266323266815906567
0.343000000000000138,-1.306422769768694092
0.344000000000000139,-1.345148726802026573
0.345000000000000140,-1.382525857107218314
0.346000000000000141,-1.418576409237289671
0.347000000000000142,-1.453320324146684106
0.348000000000000143,-1.486775396681345951
0.349000000000000143,-1.518957434939301354
0.350000000000000144,-1.549880416975493391
0.351000000000000145,-1.579556644376154839
0.352000000000000146,-1.607996892277836709
0.353000000000000147,-1.635210555453783687
0.354000000000000148,-1.661205790135909854
0.355000000000000149,-1.685989651284031554
0.356000000000000150,-1.709568225055097646
0.357000000000000151,-1.731946756264180376
0.358000000000000151,-1.753129770665639242
0.359000000000000152,-1.773121191917371720
0.360000000000000153,-1.791924453123478589
0.361000000000000154,-1.809542602880637840
0.362000000000000155,-1.825978405781734537
0.363000000000000156,-1.841234437356116915
0.364000000000000157,-1.855313173449858910
0.365000000000000158,-1.868217074071568451
0.366000000000000159,-1.879948661749181182
0.367000000000000159,-1.890510594461784155
0.368000000000000160,-1.899905733226954663
0.369000000000000161,-1.908137204439105616
0.370000000000000162,-1.915208457067711922
0.371000000000000163,-1.921123314836118867
0.372000000000000164,-1.925886023512082712
0.373000000000000165,-1.929501293450248456
0.374000000000000166,-1.931974337534661412
0.375000000000000167,-1.933310904675816122
0.376000000000000167,-1.933517309022476649
0.377000000000000168,-1.932600455052720934
0.378000000000000169,-1.930567858712173956
0.379000000000000170,-1.927427664769971738
0.380000000000000171,-1.923188660564591590
0.381000000000000172,-1.917860286312635054
0.382000000000000173,-1.911452642153789627
0.383000000000000174,-1.903976492104789475
0.384000000000000175,-1.895443265094013396
0.385000000000000175,-1.885865053246763789
0.386000000000000176,-1.875254607589205591
0.387000000000000177,-1.863625331336202340
0.388000000000000178,-1.850991270925550491
0.389000000000000179,-1.837367104957506214
0.390000000000000180,-1.822768131195096286
0.391000000000000181,-1.807210251776632415
0.392000000000000182,-1.790709956787768675
0.393000000000000183,-1.773284306336036398
0.394000000000000183,-1.754950911266304203
0.395000000000000184,-1.735727912650952831
0.396000000000000185,-1.715633960183706508
0.397000000000000186,-1.694688189601311734
0.398000000000000187,-1.672910199252253038
0.399000000000000188,-1.650320025926774958
0.400000000000000189,-1.626938120057501491
0.401000000000000190,-1.602785320394960022
0.402000000000000191,-1.577882828257422210
0.403000000000000191,-1.552252181449452317
0.404000000000000192,-1.525915227938812624
0.405000000000000193,-1.498894099376452571
0.406000000000000194,-1.471211184539666039
0.407000000000000195,-1.442889102773842858
0.408000000000000196,-1.413950677503588160
0.409000000000000197,-1.384418909879665982
0.410000000000000198,-1.354316952623833448
0.411000000000000199,-1.323668084129292044
0.412000000000000199,-1.292495682870538287
0.413000000000000200,-1.260823202172290269
0.414000000000000201,-1.228674145383342520
0.415000000000000202,-1.196072041497421079
0.416000000000000203,-1.163040421259606827
0.417000000000000204,-1.129602793793269999
0.418000000000000205,-1.095782623779255172
0.419000000000000206,-1.061603309215814805
0.420000000000000207,-1.027088159784588672
0.421000000000000207,-0.992260375845262166
0.422000000000000208,-0.957143028078360714
0.423000000000000209,-0.921759037793326241
0.424000000000000210,-0.886131157916212664
0.425000000000000211,-0.850281954668984929
0.426000000000000212,-0.814233789950208453
0.427000000000000213,-0.778008804424551226
0.428000000000000214,-0.741628901326668033
0.429000000000000214,-0.705115730982914579
0.430000000000000215,-0.668490676052626798
0.431000000000000216,-0.631774837489000762
0.432000000000000217,-0.594989021217859904
0.433000000000000218,-0.558153725531264300
0.434000000000000219,-0.521289129191410905
0.435000000000000220,-0.484415080239018803
0.436000000000000221,-0.447551085499142520
0.437000000000000222,-0.410716300776268639
0.438000000000000222,-0.373929521729535086
0.439000000000000223,-0.337209175417935991
0.440000000000000224,-0.300573312504529455
0.441000000000000225,-0.264039600107825401
0.442000000000000226,-0.227625315287989682
0.443000000000000227,-0.191347339154586404
0.444000000000000228,-0.155222151582276036
0.445000000000000229,-0.119265826520209520
0.446000000000000230,-0.083494027880460162
0.447000000000000230,-0.047922005990495301
0.448000000000000231,-0.012564594594280509
0.449000000000000232,0.022563791613654939
0.450000000000000233,0.057449158936991783
0.451000000000000234,0.092077936125404269
0.452000000000000235,0.126436975337451324
0.453000000000000236,0.160513552634973661
0.454000000000000237,0.194295368025245691
0.455000000000000238,0.227770545067364161
0.456000000000000238,0.260927630059134774
0.457000000000000239,0.293755590820864165
0.458000000000000240,0.326243815092188361
0.459000000000000241,0.358382108558206181
0.460000000000000242,0.390160692520764463
0.461000000000000243,0.421570201230895947
0.462000000000000244,0.452601678897925797
0.463000000000000245,0.483246576390903182
0.464000000000000246,0.513496747647440022
0.465000000000000246,0.543344445805095666
0.466000000000000247,0.572782319070058721
0.467000000000000248,0.601803406337656055
0.468000000000000249,0.630401132578890300
0.469000000000000250,0.658569304007039835
0.470000000000000251,0.686302103037914391
0.471000000000000252,0.713594083057207729
0.472000000000000253,0.740440163007911822
0.473000000000000254,0.766835621810609602
0.474000000000000254,0.792776092629008944
0.475000000000000255,0.818257556992829316
0.476000000000000256,0.843276338789798019
0.477000000000000257,0.867829098138151900
0.478000000000000258,0.891912825150786626
0.479000000000000259,0.915524833601758181
0.480000000000000260,0.938662754505577568
0.481000000000000261,0.961324529619403401
0.482000000000000262,0.983508404877832199
0.483000000000000262,1.005212923769740696
0.484000000000000263,1.026436920666261576
0.485000000000000264,1.047179514108634191
0.486000000000000265,1.067440100064368291
0.487000000000000266,1.087218345159839838
0.488000000000000267,1.106514179897105210
0.489000000000000268,1.125327791862389182
0.490000000000000269,1.143659618933468902
0.491000000000000270,1.161510342492740433
0.492000000000000270,1.178880880652616758
0.493000000000000271,1.195772381499448311
0.494000000000000272,1.212186216361997193
0.495000000000000273,1.228123973110154754
0.496000000000000274,1.243587449489282459
0.497000000000000275,1.258578646495389197
0.498000000000000276,1.273099761795963403
0.499000000000000277,1.287153183201117601
0.500000000000000222,1.300741482189421871
0.501000000000000334,1.313867407492515849
0.502000000000000224,1.326533878742396588
0.503000000000000336,1.338743980185060689
0.504000000000000226,1.350500954463852654
0.505000000000000338,1.361808196475808419
0.506000000000000227,1.372669247303867746
0.507000000000000339,1.383087788227855608
0.508000000000000229,1.393067634816692824
0.509000000000000341,1.402612731104305066
0.510000000000000231,1.411727143851328803
0.511000000000000343,1.420415056894718253
0.512000000000000233,1.428680765586996859
0.513000000000000345,1.436528671326873452
0.514000000000000234,1.443963276182640643
0.515000000000000346,1.450989177609797176
0.516000000000000236,1.457611063263964279
0.517000000000000348,1.463833705910195127
0.518000000000000238,1.469661958429555382
0.519000000000000350,1.475100748923714455
0.520000000000000240,1.480155075918201169
0.521000000000000352,1.484830003664781017
0.522000000000000242,1.489130657543384917
0.523000000000000353,1.493062219563806803
0.524000000000000243,1.496629923967368381
0.525000000000000355,1.499839052928563010
0.526000000000000245,1.502694932356648971
0.527000000000000357,1.505202927797057111
0.528000000000000247,1.507368440432338419
0.529000000000000359,1.509196903182383753
0.530000000000000249,1.510693776903458518
0.531000000000000361,1.511864546685609323
0.532000000000000250,1.512714718247862411
0.533000000000000362,1.513249814430602358
0.534000000000000252,1.513475371784449797
0.535000000000000364,1.513396937254842145
0.536000000000000254,1.513020064961568822
0.537000000000000366,1.512350313072346131
0.538000000000000256,1.511393240769533408
0.539000000000000368,1.510154405309030112
0.540000000000000258,1.508639359170333094
0.541000000000000369,1.506853647296708010
0.542000000000000259,1.504802804424391294
0.543000000000000371,1.502492352499680273
0.544000000000000261,1.499927798182772332
0.545000000000000373,1.497114630437144100
0.546000000000000263,1.494058318203280278
0.547000000000000375,1.490764308155473561
0.548000000000000265,1.487238022540471327
0.549000000000000377,1.483484857096642573
0.550000000000000266,1.479510179052414554
0.551000000000000378,1.475319325202583576
0.552000000000000268,1.470917600061258046
0.553000000000000380,1.466310274090001808
0.554000000000000270,1.461502581999886141
0.555000000000000382,1.456499721126041980
0.556000000000000272,1.451306849873367666
0.557000000000000384,1.445929086232011773
0.558000000000000274,1.440371506361225906
0.559000000000000385,1.434639143240250547
0.560000000000000275,1.428736985384807090
0.561000000000000387,1.422669975627830929
0.562000000000000277,1.416443009963094024
0.563000000000000389,1.410060936450271196
0.564000000000000279,1.403528554180159871
0.565000000000000391,1.396850612298606853
0.566000000000000281,1.390031809087861614
0.567000000000000393,1.383076791103922565
0.568000000000000282,1.375990152368597341
0.569000000000000394,1.368776433614889099
0.570000000000000284,1.361440121584447827
0.571000000000000396,1.353985648375684470
0.572000000000000286,1.346417390841327943
0.573000000000000398,1.338739670034082341
0.574000000000000288,1.330956750699143099
0.575000000000000400,1.323072840812246076
0.576000000000000290,1.315092091162100907
0.577000000000000401,1.307018594975851045
0.578000000000000291,1.298856387586445393
0.579000000000000403,1.290609446140642991
0.580000000000000293,1.282281689346521647
0.581000000000000405,1.273876977259229992
0.582000000000000295,1.265399111103946428
0.583000000000000407,1.256851833134776442
0.584000000000000297,1.248238826528579315
0.585000000000000409,1.239563715312508307
0.586000000000000298,1.230830064324299755
0.587000000000000410,1.222041379204096057
0.588000000000000300,1.213201106416896824
0.589000000000000412,1.204312633304471802
0.590000000000000302,1.195379288165833609
0.591000000000000414,1.186404340365146970
0.592000000000000304,1.177391000466234017
0.593000000000000416,1.168342420392583625
0.594000000000000306,1.159261693612008148
0.595000000000000417,1.150151855344961893
0.596000000000000307,1.141015882795683334
0.597000000000000419,1.131856695405178082
0.598000000000000309,1.122677155125246129
0.599000000000000421,1.113480066712684735
0.600000000000000311,1.104268178042798532
0.601000000000000423,1.095044180441421489
0.602000000000000313,1.085810709034676469
0.603000000000000425,1.076570343115629269
0.604000000000000314,1.067325606527135706
0.605000000000000426,1.058078968060079061
0.606000000000000316,1.048832841866326415
0.607000000000000428,1.039589587885628941
0.608000000000000318,1.030351512285824445
0.609000000000000430,1.021120867915616959
0.610000000000000320,1.011899854769328533
0.611000000000000432,1.002690620462894033
0.612000000000000322,0.993495260720578921
0.613000000000000433,0.984315819871692477
0.614000000000000323,0.975154291356793990
0.615000000000000435,0.966012618242732879
0.616000000000000325,0.956892693746040246
0.617000000000000437,0.947796361764028261
0.618000000000000327,0.938725417413141749
0.619000000000000439,0.929681607573990876
0.620000000000000329,0.920666631442588312
0.621000000000000441,0.911682141087269415
0.622000000000000330,0.902729742010862979
0.623000000000000442,0.893810993717581881
0.624000000000000332,0.884927410284279681
0.625000000000000444,0.876080460935514616
0.626000000000000334,0.867271570622131671
0.627000000000000446,0.858502120602828378
0.628000000000000336,0.849773449028411010
0.629000000000000448,0.841086851528270563
0.630000000000000338,0.832443581798795185
0.631000000000000449,0.823844852193247101
0.632000000000000339,0.815291834312888986
0.633000000000000451,0.806785659598896365
0.634000000000000341,0.798327419924838688
0.635000000000000453,0.789918168189306158
0.636000000000000343,0.781558918908518807
0.637000000000000455,0.773250648808459728
0.638000000000000345,0.764994297416415892
0.639000000000000457,0.756790767651515317
0.640000000000000346,0.748640926414113173
0.641000000000000458,0.740545605173678068
0.642000000000000348,0.732505600555030556
0.643000000000000460,0.724521674922604775
0.644000000000000350,0.716594556962614426
0.645000000000000462,0.708724942262799584
0.646000000000000352,0.700913493889661288
0.647000000000000464,0.693160842962878054
0.648000000000000353,0.685467589226821716
0.649000000000000465,0.677834301618885915
0.650000000000000355,0.670261518834568415
0.651000000000000467,0.662749749889036122
0.652000000000000357,0.655299474675095750
0.653000000000000469,0.647911144517376192
0.654000000000000359,0.640585182722602564
0.655000000000000471,0.633321985125815279
0.656000000000000361,0.626121920632419893
0.657000000000000473,0.618985331755920409
0.658000000000000362,0.611912535151255987
0.659000000000000474,0.604903822143604608
0.660000000000000364,0.597959459252571324
0.661000000000000476,0.591079688711631857
0.662000000000000366,0.584264728982800685
0.663000000000000478,0.577514775266360525
0.664000000000000368,0.570830000005657645
0.665000000000000480,0.564210553386802038
0.666000000000000369,0.557656563833288654
0.667000000000000481,0.551168138495401139
0.668000000000000371,0.544745363734401411
0.669000000000000483,0.538388305601393724
