# ZnO1m210BOND_CS-3320-AC
# h[nm],U(h)[kJ/mol]
0.200000000000000011,63.158479285476985865
0.201000000000000012,62.545391328527571773
0.202000000000000013,61.543131945557469464
0.203000000000000014,60.375854450663588580
0.204000000000000015,59.167636772753859020
0.205000000000000016,57.979817385971458066
0.206000000000000016,56.836214402165275317
0.207000000000000017,55.739756694725336672
0.208000000000000018,54.683111114935343267
0.209000000000000019,53.655182030098941937
0.210000000000000020,52.644832041087759933
0.211000000000000021,51.642782277096976884
0.212000000000000022,50.642363646679960709
0.213000000000000023,49.639581194386060758
0.214000000000000024,48.632802673049383202
0.215000000000000024,47.622274671717882200
0.216000000000000025,46.609593822318046819
0.217000000000000026,45.597208200012708801
0.218000000000000027,44.587988613020868911
0.219000000000000028,43.584886251026787818
0.220000000000000029,42.590678566752352197
0.221000000000000030,41.607796679519921668
0.222000000000000031,40.638223096799990230
0.223000000000000032,39.683446765101265896
0.224000000000000032,38.744462396902811463
0.225000000000000033,37.821801981370910539
0.226000000000000034,36.915587895234089899
0.227000000000000035,36.025598765766474685
0.228000000000000036,35.151340993102238031
0.229000000000000037,34.292120487348370261
0.230000000000000038,33.447110646621680985
0.231000000000000039,32.615413862934509837
0.232000000000000040,31.796114886795045607
0.233000000000000040,30.988325217422822533
0.234000000000000041,30.191218331888897808
0.235000000000000042,29.404056046324690499
0.236000000000000043,28.626206640316269159
0.237000000000000044,27.857155596088137628
0.238000000000000045,27.096509929868545896
0.239000000000000046,26.343997144438382918
0.240000000000000047,25.599459827210253593
0.241000000000000048,24.862846872535293130
0.242000000000000048,24.134202232987068015
0.243000000000000049,23.413652012462428331
0.244000000000000050,22.701390612287795534
0.245000000000000051,21.997666536486143229
0.246000000000000052,21.302768358740323151
0.247000000000000053,20.617011254836022260
0.248000000000000054,19.940724412861403181
0.249000000000000055,19.274239550673314625
0.250000000000000056,18.617880696913591265
0.251000000000000056,17.971955328439374711
0.252000000000000057,17.336746903282023169
0.253000000000000058,16.712508783743864171
0.254000000000000059,16.099459508351621650
0.255000000000000060,15.497779343356061332
0.256000000000000061,14.907608023473418513
0.257000000000000062,14.329043576754449063
0.258000000000000063,13.762142118998895057
0.259000000000000064,13.206918498195207690
0.260000000000000064,12.663347668295795501
0.261000000000000065,12.131366673536467360
0.262000000000000066,11.610877128836765593
0.263000000000000067,11.101748088014314675
0.264000000000000068,10.603819199110635196
0.265000000000000069,10.116904054630529330
0.266000000000000070,9.640793653577469868
0.267000000000000071,9.175259901514461802
0.268000000000000071,8.720059084244871528
0.269000000000000072,8.274935259884696137
0.270000000000000073,7.839623522928786947
0.271000000000000074,7.413853102277025542
0.272000000000000075,6.997350262993144554
0.273000000000000076,6.589840988760348850
0.274000000000000077,6.191053428536885228
0.275000000000000078,5.800720096786051272
0.276000000000000079,5.418579821859092149
0.277000000000000079,5.044379441658352725
0.278000000000000080,4.677875249627915899
0.279000000000000081,4.318834197438193634
0.280000000000000082,3.967034863489491414
0.281000000000000083,3.622268198596263922
0.282000000000000084,3.284338061973466782
0.283000000000000085,2.953061561972666560
0.284000000000000086,2.628269216952215714
0.285000000000000087,2.309804952258700528
0.286000000000000087,1.997525949585102767
0.287000000000000088,1.691302364997601115
0.288000000000000089,1.391016931724258443
0.289000000000000090,1.096564463410390600
0.290000000000000091,0.807851273001269687
0.291000000000000092,0.524794521740483466
0.292000000000000093,0.247321512001695248
0.293000000000000094,-0.024631063174982693
0.294000000000000095,-0.291117901870246609
0.295000000000000095,-0.552185895359131651
0.296000000000000096,-0.807874940384349927
0.297000000000000097,-1.058218752497824600
0.298000000000000098,-1.303245672283605217
0.299000000000000099,-1.542979457201021365
0.300000000000000100,-1.777440052683586291
0.301000000000000101,-2.006644336991437960
0.302000000000000102,-2.230606835135294119
0.303000000000000103,-2.449340397966705218
0.304000000000000103,-2.662856843256395045
0.305000000000000104,-2.871167556260795450
0.306000000000000105,-3.074284047903301342
0.307000000000000106,-3.272218469271676700
0.308000000000000107,-3.464984081656971249
0.309000000000000108,-3.652595681832333518
0.310000000000000109,-3.835069982694731205
0.311000000000000110,-4.012425949768553046
0.312000000000000111,-4.184685094402239791
0.313000000000000111,-4.351871724776236405
0.314000000000000112,-4.514013156088090284
0.315000000000000113,-4.671139881489003720
0.316000000000000114,-4.823285705519131383
0.317000000000000115,-4.970487841928275863
0.318000000000000116,-5.112786977877882499
0.319000000000000117,-5.250227306600939059
0.320000000000000118,-5.382856530651778826
0.321000000000000119,-5.510725837910267266
0.322000000000000119,-5.633889852516164254
0.323000000000000120,-5.752406562902518949
0.324000000000000121,-5.866337229073985249
0.325000000000000122,-5.975746271238121743
0.326000000000000123,-6.080701141847871583
0.327000000000000124,-6.181272183052963776
0.328000000000000125,-6.277532471488539656
0.329000000000000126,-6.369557652252339608
0.330000000000000127,-6.457425763839085953
0.331000000000000127,-6.541217055713143047
0.332000000000000128,-6.621013800109555980
0.333000000000000129,-6.696900099560167519
0.334000000000000130,-6.768961691546516946
0.335000000000000131,-6.837285751586017923
0.336000000000000132,-6.901960695962212178
0.337000000000000133,-6.963075985215698260
0.338000000000000134,-7.020721929419288188
0.339000000000000135,-7.074989496169562742
0.340000000000000135,-7.125970122138683749
0.341000000000000136,-7.173755528943989823
0.342000000000000137,-7.218437544010211759
0.343000000000000138,-7.260107927019328500
0.344000000000000139,-7.298858202467267020
0.345000000000000140,-7.334779498773876583
0.346000000000000141,-7.367962394324152342
0.347000000000000142,-7.398496770753650864
0.348000000000000143,-7.426471673730191014
0.349000000000000143,-7.451975181426634620
0.350000000000000144,-7.475094280826437121
0.351000000000000145,-7.495914751953911548
0.352000000000000146,-7.514521060075663783
0.353000000000000147,-7.530996255877286494
0.354000000000000148,-7.545421883580973876
0.355000000000000149,-7.557877896934530604
0.356000000000000150,-7.568442582970324572
0.357000000000000151,-7.577192493404235840
0.358000000000000151,-7.584202383518916513
0.359000000000000152,-7.589545158352916765
0.360000000000000153,-7.593291825997520839
0.361000000000000154,-7.595511457785441678
0.362000000000000155,-7.596271155140954079
0.363000000000000156,-7.595636022848284874
0.364000000000000157,-7.593669148484702980
0.365000000000000158,-7.590431587756588883
0.366000000000000159,-7.585982355469939264
0.367000000000000159,-7.580378421862343785
0.368000000000000160,-7.573674714020222964
0.369000000000000161,-7.565924122103514726
0.370000000000000162,-7.557177510099721829
0.371000000000000163,-7.547483730830305326
0.372000000000000164,-7.536889644934404942
0.373000000000000165,-7.525440143558109085
0.374000000000000166,-7.513178174481541127
0.375000000000000167,-7.500144771420788281
0.376000000000000167,-7.486379086247465509
0.377000000000000168,-7.471918423874841508
0.378000000000000169,-7.456798279566166698
0.379000000000000170,-7.441052378428294034
0.380000000000000171,-7.424712716861155748
0.381000000000000172,-7.407809605741729975
0.382000000000000173,-7.390371715129349539
0.383000000000000174,-7.372426120287793871
0.384000000000000175,-7.353998348828028497
0.385000000000000175,-7.335112428784317906
0.386000000000000176,-7.315790937445338038
0.387000000000000177,-7.296055050770354100
0.388000000000000178,-7.275924593229833981
0.389000000000000179,-7.255418087918141801
0.390000000000000180,-7.234552806794866342
0.391000000000000181,-7.213344820919874500
0.392000000000000182,-7.191809050555443505
0.393000000000000183,-7.169959315017187862
0.394000000000000183,-7.147808382163543861
0.395000000000000184,-7.125368017421395805
0.396000000000000185,-7.102649032253135708
0.397000000000000186,-7.079661331977850303
0.398000000000000187,-7.056413962866535883
0.399000000000000188,-7.032915158438261649
0.400000000000000189,-7.009172384890774765
0.401000000000000190,-6.985192385605673238
0.402000000000000191,-6.960981224674337220
0.403000000000000191,-6.936544329396826747
0.404000000000000192,-6.911886531711614268
0.405000000000000193,-6.887012108519416920
0.406000000000000194,-6.861924820869615083
0.407000000000000195,-6.836627951982627849
0.408000000000000196,-6.811124344086218585
0.409000000000000197,-6.785416434048158862
0.410000000000000198,-6.759506287791914758
0.411000000000000199,-6.733395633485649512
0.412000000000000199,-6.707085893498947016
0.413000000000000200,-6.680578215124654662
0.414000000000000201,-6.653873500066870506
0.415000000000000202,-6.626972432698766013
0.416000000000000203,-6.599875507096982119
0.417000000000000204,-6.572583052861794783
0.418000000000000205,-6.545095259734654114
0.419000000000000206,-6.517412201026988150
0.420000000000000207,-6.489533855875987634
0.421000000000000207,-6.461460130345232145
0.422000000000000208,-6.433190877389328932
0.423000000000000209,-6.404725915703598282
0.424000000000000210,-6.376065047480963699
0.425000000000000211,-6.347208075099457503
0.426000000000000212,-6.318154816764985249
0.427000000000000213,-6.288905121134637177
0.428000000000000214,-6.259458880946999315
0.429000000000000214,-6.229816045686268566
0.430000000000000215,-6.199976633307830554
0.431000000000000216,-6.169940741053288491
0.432000000000000217,-6.139708555383331046
0.433000000000000218,-6.109280361057113140
0.434000000000000219,-6.078656549387057240
0.435000000000000220,-6.047837625698036845
0.436000000000000221,-6.016824216019958982
0.437000000000000222,-5.985617073042712732
0.438000000000000222,-5.954217081362378039
0.439000000000000223,-5.922625262047413131
0.440000000000000224,-5.890842776553272486
0.441000000000000225,-5.858870930013656775
0.442000000000000226,-5.826711173936364396
0.443000000000000227,-5.794365108331128056
0.444000000000000228,-5.761834483296685683
0.445000000000000229,-5.729121200093669763
0.446000000000000230,-5.696227311729487930
0.447000000000000230,-5.663155023080992834
0.448000000000000231,-5.629906690579991491
0.449000000000000232,-5.596484821486209071
0.450000000000000233,-5.562892072771830065
0.451000000000000234,-5.529131249640912849
0.452000000000000235,-5.495205303706672595
0.453000000000000236,-5.461117330848685114
0.454000000000000237,-5.426870568771763104
0.455000000000000238,-5.392468394287325495
0.456000000000000238,-5.357914320337695102
0.457000000000000239,-5.323211992782869828
0.458000000000000240,-5.288365186968971621
0.459000000000000241,-5.253377804096520443
0.460000000000000242,-5.218253867406533075
0.461000000000000243,-5.182997518201287512
0.462000000000000244,-5.147613011716465792
0.463000000000000245,-5.112104712860197964
0.464000000000000246,-5.076477091834524558
0.465000000000000246,-5.040734719653595874
0.466000000000000247,-5.004882263572705270
0.467000000000000248,-4.968924482441461343
0.468000000000000249,-4.932866221993903899
0.469000000000000250,-4.896712410087695311
0.470000000000000251,-4.860468051904061504
0.471000000000000252,-4.824138225119404488
0.472000000000000253,-4.787728075059292543
0.473000000000000254,-4.751242809844540282
0.474000000000000254,-4.714687695539026002
0.475000000000000255,-4.678068051308020614
0.476000000000000256,-4.641389244595529817
0.477000000000000257,-4.604656686328587156
0.478000000000000258,-4.567875826155902708
0.479000000000000259,-4.531052147727948842
0.480000000000000260,-4.494191164025009400
0.481000000000000261,-4.457298412739310045
0.482000000000000262,-4.420379451716970109
0.483000000000000262,-4.383439854465096985
0.484000000000000263,-4.346485205728884083
0.485000000000000264,-4.309521097143331758
0.486000000000000265,-4.272553122963723915
0.487000000000000266,-4.235586875878686541
0.488000000000000267,-4.198627942909344490
0.489000000000000268,-4.161681901397756178
0.490000000000000269,-4.124754315087421297
0.491000000000000270,-4.087850730298527857
0.492000000000000270,-4.050976672200081730
0.493000000000000271,-4.014137641181038774
0.494000000000000272,-3.977339109322107102
0.495000000000000273,-3.940586516969711628
0.496000000000000274,-3.903885269413413628
0.497000000000000275,-3.867240733667746788
0.498000000000000276,-3.830658235359320152
0.499000000000000277,-3.794143055719781277
0.500000000000000222,-3.757700428684985106
0.501000000000000334,-3.721335538100684293
0.502000000000000224,-3.685053515034710792
0.503000000000000336,-3.648859435195509260
0.504000000000000226,-3.612758316456851304
0.505000000000000338,-3.576755116488114172
0.506000000000000227,-3.540854730489788160
0.507000000000000339,-3.505061989033275260
0.508000000000000229,-3.469381656004374204
0.509000000000000341,-3.433818426649289712
0.510000000000000231,-3.398376925722405240
0.511000000000000343,-3.363061705734358586
0.512000000000000233,-3.327877245299461606
0.513000000000000345,-3.292827947580910575
0.514000000000000234,-3.257918138832662347
0.515000000000000346,-3.223152067036129775
0.516000000000000236,-3.188533900630566631
0.517000000000000348,-3.154067727335192028
0.518000000000000238,-3.119757553061666577
0.519000000000000350,-3.085607300914985807
0.520000000000000240,-3.051620810281238327
0.521000000000000352,-3.017801836000303162
0.522000000000000242,-2.984154047621736083
0.523000000000000353,-2.950681028741928280
0.524000000000000243,-2.917386276420733004
0.525000000000000355,-2.884273200675550708
0.526000000000000245,-2.851345124051100299
0.527000000000000357,-2.818605281262728024
0.528000000000000247,-2.786056818911557986
0.529000000000000359,-2.753702795269276749
0.530000000000000249,-2.721546180130806736
0.531000000000000361,-2.689589854732724383
0.532000000000000250,-2.657836611735633348
0.533000000000000362,-2.626289155268358932
0.534000000000000252,-2.594950101032169165
0.535000000000000364,-2.563821976462953955
0.536000000000000254,-2.532907220949565996
0.537000000000000366,-2.502208186106194443
0.538000000000000256,-2.471727136097154887
0.539000000000000368,-2.441466248011890716
0.540000000000000258,-2.411427612288626676
0.541000000000000369,-2.381613233184521228
0.542000000000000259,-2.352025029290781166
0.543000000000000371,-2.322664834090679697
0.544000000000000261,-2.293534396558881916
0.545000000000000373,-2.264635381800195191
0.546000000000000263,-2.235969371726143073
0.547000000000000375,-2.207537865767444707
0.548000000000000265,-2.179342281621047483
0.549000000000000377,-2.151383956029692346
0.550000000000000266,-2.123664145592735419
0.551000000000000378,-2.096184027606379452
0.552000000000000268,-2.068944700931926839
0.553000000000000380,-2.041947186890417321
0.554000000000000270,-2.015192430182270122
0.555000000000000382,-1.988681299830297622
0.556000000000000272,-1.962414590144896831
0.557000000000000384,-1.936393021709740037
0.558000000000000274,-1.910617242386891679
0.559000000000000385,-1.885087828339729210
0.560000000000000275,-1.859805285072634096
0.561000000000000387,-1.834770048485969696
0.562000000000000277,-1.809982485945247799
0.563000000000000389,-1.785442897363210601
0.564000000000000279,-1.761151516293696373
0.565000000000000391,-1.737108511036114633
0.566000000000000281,-1.713313985749465918
0.567000000000000393,-1.689767981574768374
0.568000000000000282,-1.666470477764968150
0.569000000000000394,-1.643421392821128091
0.570000000000000284,-1.620620585634152677
0.571000000000000396,-1.598067856630867256
0.572000000000000286,-1.575762948923749907
0.573000000000000398,-1.553705549463208380
0.574000000000000288,-1.531895290191744197
0.575000000000000400,-1.510331749199034901
0.576000000000000290,-1.489014451877214595
0.577000000000000401,-1.467942872075514327
0.578000000000000291,-1.447116433253596846
0.579000000000000403,-1.426534509632779946
0.580000000000000293,-1.406196427344562405
0.581000000000000405,-1.386101465575661162
0.582000000000000295,-1.366248857709082554
0.583000000000000407,-1.346637792460450900
0.584000000000000297,-1.327267415009147022
0.585000000000000409,-1.308136828123600548
0.586000000000000298,-1.289245093280282362
0.587000000000000410,-1.270591231775785701
0.588000000000000300,-1.252174225831634846
0.589000000000000412,-1.233993019691204562
0.590000000000000302,-1.216046520708448764
0.591000000000000414,-1.198333600427933687
0.592000000000000304,-1.180853095655797880
0.593000000000000416,-1.163603809521237098
0.594000000000000306,-1.146584512528221023
0.595000000000000417,-1.129793943597009909
0.596000000000000307,-1.113230811095228479
0.597000000000000419,-1.096893793858140009
0.598000000000000309,-1.080781542197899459
0.599000000000000421,-1.064892678901428802
0.600000000000000311,-1.049225800216780247
0.601000000000000423,-1.033779476827635158
0.602000000000000313,-1.018552254815858538
0.603000000000000425,-1.003542656611737360
0.604000000000000314,-0.988749181931940280
0.605000000000000426,-0.974170308704784604
0.606000000000000316,-0.959804493982882811
0.607000000000000428,-0.945650174842847746
0.608000000000000318,-0.931705769272072382
0.609000000000000430,-0.917969677042344223
0.610000000000000320,-0.904440280570322663
0.611000000000000432,-0.891115945764656914
0.612000000000000322,-0.877995022859795915
0.613000000000000433,-0.865075847236322359
0.614000000000000323,-0.852356740227828147
0.615000000000000435,-0.839836009914245452
0.616000000000000325,-0.827511951901629295
0.617000000000000437,-0.815382850088335664
0.618000000000000327,-0.803446977417640817
0.619000000000000439,-0.791702596616710830
0.620000000000000329,-0.780147960922016326
0.621000000000000441,-0.768781314791151305
0.622000000000000330,-0.757600894601092589
0.623000000000000442,-0.746604929332925993
0.624000000000000332,-0.735791641243090710
0.625000000000000444,-0.725159246521166034
0.626000000000000334,-0.714705955934274995
0.627000000000000446,-0.704429975458129687
0.628000000000000336,-0.694329506894826864
0.629000000000000448,-0.684402748477415890
0.630000000000000338,-0.674647895461371050
0.631000000000000449,-0.665063140702979894
0.632000000000000339,-0.655646675224809128
0.633000000000000451,-0.646396688768275496
0.634000000000000341,-0.637311370333468075
0.635000000000000453,-0.628388908706289273
0.636000000000000343,-0.619627492973027327
0.637000000000000455,-0.611025313022482863
0.638000000000000345,-0.602580560035761770
0.639000000000000457,-0.594291426963803326
0.640000000000000346,-0.586156108992856750
0.641000000000000458,-0.578172803997919038
0.642000000000000348,-0.570339712984361036
0.643000000000000460,-0.562655040517782590
0.644000000000000350,-0.555116995142306502
0.645000000000000462,-0.547723789787368021
0.646000000000000352,-0.540473642163213919
0.647000000000000464,-0.533364775145158121
0.648000000000000353,-0.526395417146846234
0.649000000000000465,-0.519563802482533310
0.650000000000000355,-0.512868171718660171
0.651000000000000467,-0.506306772014742168
0.652000000000000357,-0.499877857453820795
0.653000000000000469,-0.493579689362542429
0.654000000000000359,-0.487410536621078472
0.655000000000000471,-0.481368675962964343
0.656000000000000361,-0.475452392265089341
0.657000000000000473,-0.469659978827893565
0.658000000000000362,-0.463989737646009037
0.659000000000000474,-0.458439979669415909
0.660000000000000364,-0.453009025055344072
0.661000000000000476,-0.447695203410984011
0.662000000000000366,-0.442496854027227216
0.663000000000000478,-0.437412326103552462
