# ZnO1m210BOND_CS-5439-AC
# h[nm],U(h)[kJ/mol]
0.149999999999999994,142.168471743450965050
0.150999999999999995,141.124929770938507545
0.151999999999999996,139.323993260731043620
0.152999999999999997,137.357004736336875794
0.153999999999999998,135.447094031624828858
0.154999999999999999,133.642704350915266787
0.156000000000000000,131.922371983700713827
0.157000000000000001,130.247246715077722001
0.158000000000000002,128.584091757960493396
0.159000000000000002,126.912586268464451678
0.160000000000000003,125.225062821445732197
0.161000000000000004,123.523251073410804679
0.162000000000000005,121.814426010489071928
0.163000000000000006,120.108077484021848136
0.164000000000000007,118.413497051108407732
0.165000000000000008,116.738301918743673014
0.166000000000000009,115.087744093891657826
0.167000000000000010,113.464596891570153048
0.168000000000000010,111.869415763377404005
0.169000000000000011,110.301003001000708537
0.170000000000000012,108.756947349292957483
0.171000000000000013,107.234149853843291567
0.172000000000000014,105.729281647356543772
0.173000000000000015,104.239146246759986525
0.174000000000000016,102.760938392336285574
0.175000000000000017,101.292404446297382492
0.176000000000000018,99.831917128876384027
0.177000000000000018,98.378481174594242020
0.178000000000000019,96.931687481777856874
0.179000000000000020,95.491632456313084276
0.180000000000000021,94.058817264537196934
0.181000000000000022,92.634039169320331553
0.182000000000000023,91.218284424057628712
0.183000000000000024,89.812629605169092883
0.184000000000000025,88.418155935383268229
0.185000000000000026,87.035879171403010446
0.186000000000000026,85.666696029718906402
0.187000000000000027,84.311346895719154304
0.188000000000000028,82.970393673145039770
0.189000000000000029,81.644211039899687421
0.190000000000000030,80.332989033364697207
0.191000000000000031,79.036744744531461038
0.192000000000000032,77.755340909157936835
0.193000000000000033,76.488509304422237278
0.194000000000000034,75.235877055572558447
0.195000000000000034,73.996994199328312902
0.196000000000000035,72.771361115596874924
0.197000000000000036,71.558454708147451129
0.198000000000000037,70.357752474692148326
0.199000000000000038,69.168753847892745057
0.200000000000000039,67.990998405036222607
0.201000000000000040,66.824080732100995306
0.202000000000000041,65.667661886386241576
0.203000000000000042,64.521477531102050307
0.204000000000000042,63.385342916766717281
0.205000000000000043,62.259154960153999525
0.206000000000000044,61.142891724577836499
0.207000000000000045,60.036609638434811131
0.208000000000000046,58.940438805147991275
0.209000000000000047,57.854576759894790428
0.210000000000000048,56.779281019517654272
0.211000000000000049,55.714860754342680593
0.212000000000000050,54.661667886526814186
0.213000000000000050,53.620087891011031900
0.214000000000000051,52.590530543862996637
0.215000000000000052,51.573420830179735219
0.216000000000000053,50.569190190947551855
0.217000000000000054,49.578268256253885227
0.218000000000000055,48.601075181725271079
0.219000000000000056,47.638014676560160865
0.220000000000000057,46.689467785391897792
0.221000000000000058,45.755787462697455226
0.222000000000000058,44.837293957661863431
0.223000000000000059,43.934271009352009685
0.224000000000000060,43.046962836686056164
0.225000000000000061,42.175571894901636938
0.226000000000000062,41.320257359876379155
0.227000000000000063,40.481134293556252146
0.228000000000000064,39.658273437704238518
0.229000000000000065,38.851701578980886609
0.230000000000000066,38.061402425800743288
0.231000000000000066,37.287317936260926388
0.232000000000000067,36.529350036510152222
0.233000000000000068,35.787362670023753708
0.234000000000000069,35.061184120193118474
0.235000000000000070,34.350609551261264585
0.236000000000000071,33.655403715788686725
0.237000000000000072,32.975303780378347085
0.238000000000000073,32.310022225209237945
0.239000000000000073,31.659249776916205121
0.240000000000000074,31.022658338419070390
0.241000000000000075,30.399903883372495272
0.242000000000000076,29.790629286911599394
0.243000000000000077,29.194467068255033126
0.244000000000000078,28.611042024456377675
0.245000000000000079,28.039973738129919667
0.246000000000000080,27.480878945297558147
0.247000000000000081,26.933373752587421279
0.248000000000000081,26.397075695856244693
0.249000000000000082,25.871605634896877035
0.250000000000000111,25.356589481230709993
0.251000000000000112,24.851659758075559381
0.252000000000000113,24.356456993426732538
0.253000000000000114,23.870630948805938942
0.254000000000000115,23.393841687623464054
0.255000000000000115,22.925760488283462024
0.256000000000000116,22.466070608147077792
0.257000000000000117,22.014467905271867920
0.258000000000000118,21.570661325481399473
0.259000000000000119,21.134373262800135507
0.260000000000000120,20.705339801630991303
0.261000000000000121,20.283310849270492326
0.262000000000000122,19.868050167461795752
0.263000000000000123,19.459335311693880755
0.264000000000000123,19.056957486876335395
0.265000000000000124,18.660721327867086927
0.266000000000000125,18.270444613114527499
0.267000000000000126,17.885957919407157846
0.268000000000000127,17.507104225411346476
0.269000000000000128,17.133738471331081854
0.270000000000000129,16.765727081648929442
0.271000000000000130,16.402947457512858875
0.272000000000000131,16.045287444925708797
0.273000000000000131,15.692644784476836861
0.274000000000000132,15.344926547936490024
0.275000000000000133,15.002048566613840563
0.276000000000000134,14.663934855966065385
0.277000000000000135,14.330517040540019735
0.278000000000000136,14.001733782932262784
0.279000000000000137,13.677530220070931222
0.280000000000000138,13.357857409755709455
0.281000000000000139,13.042671790040074598
0.282000000000000139,12.731934653706385774
0.283000000000000140,12.425611639767977223
0.284000000000000141,12.123672243635370549
0.285000000000000142,11.826089347305027033
0.286000000000000143,11.532838770669801676
0.287000000000000144,11.243898844809820048
0.288000000000000145,10.959250007900504187
0.289000000000000146,10.678874424171517887
0.290000000000000147,10.402755626164008618
0.291000000000000147,10.130878180366007513
0.292000000000000148,9.863227376153083981
0.293000000000000149,9.599788937826343016
0.294000000000000150,9.340548759418227931
0.295000000000000151,9.085492661830594230
0.296000000000000152,8.834606171776240302
0.297000000000000153,8.587874321915000664
0.298000000000000154,8.345281471506881488
0.299000000000000155,8.106811146847574534
0.300000000000000155,7.872445900704403421
0.301000000000000156,7.642167189933442906
0.302000000000000157,7.415955270429238411
0.303000000000000158,7.193789108538108046
0.304000000000000159,6.975646308051956623
0.305000000000000160,6.761503051892712612
0.306000000000000161,6.551334057596287508
0.307000000000000162,6.345112545708934348
0.308000000000000163,6.142810220218113848
0.309000000000000163,5.944397260152760154
0.310000000000000164,5.749842321504647913
0.311000000000000165,5.559112548642477059
0.312000000000000166,5.372173594412900322
0.313000000000000167,5.188989648147608769
0.314000000000000168,5.009523470822513147
0.315000000000000169,4.833736436643413015
0.316000000000000170,4.661588580362151291
0.317000000000000171,4.493038649657952632
0.318000000000000171,4.328044161949913260
0.319000000000000172,4.166561465038023826
0.320000000000000173,4.008545801002374454
0.321000000000000174,3.853951372821834642
0.322000000000000175,3.702731413205210487
0.323000000000000176,3.554838255159368465
0.324000000000000177,3.410223403849602875
0.325000000000000178,3.268837609338012040
0.326000000000000179,3.130630939814976976
0.327000000000000179,2.995552854968018597
0.328000000000000180,2.863552279160056280
0.329000000000000181,2.734577674116154711
0.330000000000000182,2.608577110844167990
0.331000000000000183,2.485498340539358697
0.332000000000000184,2.365288864247524270
0.333000000000000185,2.247896001083890649
0.334000000000000186,2.133266954826973372
0.335000000000000187,2.021348878727489140
0.336000000000000187,1.912088938391997006
0.337000000000000188,1.805434372619905359
0.338000000000000189,1.701332552089697803
0.339000000000000190,1.599731035807025803
0.340000000000000191,1.500577625242915714
0.341000000000000192,1.403820416104599289
0.342000000000000193,1.309407847695257754
0.343000000000000194,1.217288749831352712
0.344000000000000195,1.127412387298273533
0.345000000000000195,1.039728501835178509
0.346000000000000196,0.954187351650558568
0.347000000000000197,0.870739748478572273
0.348000000000000198,0.789337092194876022
0.349000000000000199,0.709931403018070006
0.350000000000000200,0.632475351329762736
0.351000000000000201,0.556922285152409824
0.352000000000000202,0.483226255329689269
0.353000000000000203,0.411342038458874792
0.354000000000000203,0.341225157629139575
0.355000000000000204,0.272831901023530943
0.356000000000000205,0.206119338445458433
0.357000000000000206,0.141045335833310193
0.358000000000000207,0.077568567829411877
0.359000000000000208,0.015648528471062174
0.360000000000000209,-0.044754459926928461
0.361000000000000210,-0.103679239627532643
0.362000000000000210,-0.161163811993425776
0.363000000000000211,-0.217245333603573176
0.364000000000000212,-0.271960113892545319
0.365000000000000213,-0.325343614240500401
0.366000000000000214,-0.377430448442211852
0.367000000000000215,-0.428254384483936323
0.368000000000000216,-0.477848347557820130
0.369000000000000217,-0.526244424244129649
0.370000000000000218,-0.573473867793069081
0.371000000000000218,-0.619567104438723204
0.372000000000000219,-0.664553740679380889
0.373000000000000220,-0.708462571459726576
0.374000000000000221,-0.751321589192001094
0.375000000000000222,-0.793157993554741259
0.376000000000000223,-0.833998202009797795
0.377000000000000224,-0.873867860979549604
0.378000000000000225,-0.912791857628524328
0.379000000000000226,-0.950794332195151193
0.380000000000000226,-0.987898690821593539
0.381000000000000227,-1.024127618831096154
0.382000000000000228,-1.059503094404647960
0.383000000000000229,-1.094046402610338031
0.384000000000000230,-1.127778149740869207
0.385000000000000231,-1.160718277916667374
0.386000000000000232,-1.192886079913710651
0.387000000000000233,-1.224300214177389323
0.388000000000000234,-1.254978719985248903
0.389000000000000234,-1.284939032723634966
0.390000000000000235,-1.314197999244769433
0.391000000000000236,-1.342771893272802330
0.392000000000000237,-1.370676430828948522
0.393000000000000238,-1.397926785647672698
0.394000000000000239,-1.424537604557352566
0.395000000000000240,-1.450523022800711548
0.396000000000000241,-1.475896679271673007
0.397000000000000242,-1.500671731646896712
0.398000000000000242,-1.524860871391824579
0.399000000000000243,-1.548476338622289505
0.400000000000000244,-1.571529936804350269
0.401000000000000245,-1.594033047276266046
0.402000000000000246,-1.615996643577659153
0.403000000000000247,-1.637431305572496498
0.404000000000000248,-1.658347233353353101
0.405000000000000249,-1.678754260915844565
0.406000000000000250,-1.698661869592979157
0.407000000000000250,-1.718079201240459541
0.408000000000000251,-1.737015071164773827
0.409000000000000252,-1.755477980786980030
0.410000000000000253,-1.773476130035981368
0.411000000000000254,-1.791017429465928457
0.412000000000000255,-1.808109512093209803
0.413000000000000256,-1.824759744949378426
0.414000000000000257,-1.840975240346872210
0.415000000000000258,-1.856762866855409921
0.416000000000000258,-1.872129259987239447
0.417000000000000259,-1.887080832590388058
0.418000000000000260,-1.901623784949366680
0.419000000000000261,-1.915764114593548673
0.420000000000000262,-1.929507625813759786
0.421000000000000263,-1.942859938888342741
0.422000000000000264,-1.955826499020084652
0.423000000000000265,-1.968412584986148017
0.424000000000000266,-1.980623317503363179
0.425000000000000266,-1.992463667311515252
0.426000000000000267,-2.003938462977834067
0.427000000000000268,-2.015052398425983160
0.428000000000000269,-2.025810040193200212
0.429000000000000270,-2.036215834419583537
0.430000000000000271,-2.046274113573537612
0.431000000000000272,-2.055989102917876732
0.432000000000000273,-2.065364926721019234
0.433000000000000274,-2.074405614218040927
0.434000000000000274,-2.083115105326453165
0.435000000000000275,-2.091497256121658932
0.436000000000000276,-2.099555844077252154
0.437000000000000277,-2.107294573075314315
0.438000000000000278,-2.114717078192018818
0.439000000000000279,-2.121826930263926325
0.440000000000000280,-2.128627640240320140
0.441000000000000281,-2.135122663327057246
0.442000000000000282,-2.141315402927477241
0.443000000000000282,-2.147209214385721765
0.444000000000000283,-2.152807408538120360
0.445000000000000284,-2.158113255078027315
0.446000000000000285,-2.163129985739608685
0.447000000000000286,-2.167860797306140341
0.448000000000000287,-2.172308854448062654
0.449000000000000288,-2.176477292396379770
0.450000000000000289,-2.180369219456583352
0.451000000000000290,-2.183987719368492453
0.452000000000000290,-2.187335853517240025
0.453000000000000291,-2.190416663000504194
0.454000000000000292,-2.193233170557185918
0.455000000000000293,-2.195788382362485969
0.456000000000000294,-2.198085289694371003
0.457000000000000295,-2.200126870476322605
0.458000000000000296,-2.201916090701079298
0.459000000000000297,-2.203455905740177911
0.460000000000000298,-2.204749261543810679
0.461000000000000298,-2.205799095735593074
0.462000000000000299,-2.206608338606622866
0.463000000000000300,-2.207179914013152278
0.464000000000000301,-2.207516740182167148
0.465000000000000302,-2.207621730428946272
0.466000000000000303,-2.207497793790639484
0.467000000000000304,-2.207147835579870154
0.468000000000000305,-2.206574757862099112
0.469000000000000306,-2.205781459860539861
0.470000000000000306,-2.204770838292305690
0.471000000000000307,-2.203545787639184628
0.472000000000000308,-2.202109200356631824
0.473000000000000309,-2.200463967024220757
0.474000000000000310,-2.198612976440803557
0.475000000000000311,-2.196559115667532591
0.476000000000000312,-2.194305270021787102
0.477000000000000313,-2.191854323024932771
0.478000000000000314,-2.189209156306740844
0.479000000000000314,-2.186372649469290774
0.480000000000000315,-2.183347679912927219
0.481000000000000316,-2.180137122626921276
0.482000000000000317,-2.176743849947235798
0.483000000000000318,-2.173170731283855961
0.484000000000000319,-2.169420632819935690
0.485000000000000320,-2.165496417184996414
0.486000000000000321,-2.161400943104308858
0.487000000000000322,-2.157137065026516698
0.488000000000000322,-2.152707632731397869
0.489000000000000323,-2.148115490919788595
0.490000000000000324,-2.143363478787357224
0.491000000000000325,-2.138454429584006000
0.492000000000000326,-2.133391170160561678
0.493000000000000327,-2.128176520504369229
0.494000000000000328,-2.122813293265244816
0.495000000000000329,-2.117304293273307714
0.496000000000000330,-2.111652317049985683
0.497000000000000330,-2.105860152313657974
0.498000000000000331,-2.099930577480959126
0.499000000000000332,-2.093866361165198420
0.500000000000000333,-2.087670261672843086
0.501000000000000334,-2.081345026499164863
0.502000000000000335,-2.074893391824161881
0.503000000000000336,-2.068318082009602765
0.504000000000000337,-2.061621809098184599
0.505000000000000338,-2.054807272315605005
0.506000000000000338,-2.047877157576406315
0.507000000000000339,-2.040834136994325032
0.508000000000000340,-2.033680868397819363
0.509000000000000341,-2.026419994851578199
0.510000000000000342,-2.019054144184448951
0.511000000000000343,-2.011585928524545874
0.512000000000000344,-2.004017943841937655
0.513000000000000345,-1.996352769499505353
0.514000000000000346,-1.988592967812454315
0.515000000000000346,-1.980741083616797793
0.516000000000000347,-1.972799643847316986
0.517000000000000348,-1.964771157125351664
0.518000000000000349,-1.956658113356658735
0.519000000000000350,-1.948462983339772192
0.520000000000000351,-1.940188218384990337
0.521000000000000352,-1.931836249944398176
0.522000000000000353,-1.923409489252966953
0.523000000000000353,-1.914910326981036803
0.524000000000000354,-1.906341132898328627
0.525000000000000355,-1.897704255549584218
0.526000000000000356,-1.889002021941963649
0.527000000000000357,-1.880236737244365575
0.528000000000000358,-1.871410684498612698
0.529000000000000359,-1.862526124342723577
0.530000000000000360,-1.853585294746133982
0.531000000000000361,-1.844590410757040555
0.532000000000000361,-1.835543664261770846
0.533000000000000362,-1.826447223756213045
0.534000000000000363,-1.817303234129250100
0.535000000000000364,-1.808113816458196244
0.536000000000000365,-1.798881067816120449
0.537000000000000366,-1.789607061091070150
0.538000000000000367,-1.780293844816992266
0.539000000000000368,-1.770943443016431029
0.540000000000000369,-1.761557855054716626
0.541000000000000369,-1.752139055505693932
0.542000000000000370,-1.742688994028734228
0.543000000000000371,-1.733209595257004576
0.544000000000000372,-1.723702758696802118
0.545000000000000373,-1.714170358637827407
0.546000000000000374,-1.704614244074225571
0.547000000000000375,-1.695036238636248527
0.548000000000000376,-1.685438140532403706
0.549000000000000377,-1.675821722501854127
0.550000000000000377,-1.666188731776957699
0.551000000000000378,-1.656540890055710591
0.552000000000000379,-1.646879893483985002
0.553000000000000380,-1.637207412647288418
0.554000000000000381,-1.627525092571901810
0.555000000000000382,-1.617834552735240239
0.556000000000000383,-1.608137387085122771
0.557000000000000384,-1.598435164067917080
0.558000000000000385,-1.588729426665184130
0.559000000000000385,-1.579021692438774549
0.560000000000000386,-1.569313453584082696
0.561000000000000387,-1.559606176991281234
0.562000000000000388,-1.549901304314325712
0.563000000000000389,-1.540200252047565943
0.564000000000000390,-1.530504411609677762
0.565000000000000391,-1.520815149434799896
0.566000000000000392,-1.511133807070602630
0.567000000000000393,-1.501461701283144157
0.568000000000000393,-1.491800124168251251
0.569000000000000394,-1.482150343269263093
0.570000000000000395,-1.472513601700952801
0.571000000000000396,-1.462891118279340485
0.572000000000000397,-1.453284087657347623
0.573000000000000398,-1.443693680465921947
0.574000000000000399,-1.434121043460602873
0.575000000000000400,-1.424567299673199727
0.576000000000000401,-1.415033548568465971
0.577000000000000401,-1.405520866205605568
0.578000000000000402,-1.396030305404324157
0.579000000000000403,-1.386562895915315785
0.580000000000000404,-1.377119644595032666
0.581000000000000405,-1.367701535584440631
0.582000000000000406,-1.358309530491720540
0.583000000000000407,-1.348944568578625214
0.584000000000000408,-1.339607566950403728
0.585000000000000409,-1.330299420749076367
0.586000000000000409,-1.321021003349894807
0.587000000000000410,-1.311773166560876280
0.588000000000000411,-1.302556740825146608
0.589000000000000412,-1.293372535426076997
0.590000000000000413,-1.284221338694897074
0.591000000000000414,-1.275103918220772403
0.592000000000000415,-1.266021021063126195
0.593000000000000416,-1.256973373966053575
0.594000000000000417,-1.247961683574696945
0.595000000000000417,-1.238986636653516271
0.596000000000000418,-1.230048900306126791
0.597000000000000419,-1.221149122196818038
0.598000000000000420,-1.212287930773388478
0.599000000000000421,-1.203465935491349059
0.600000000000000422,-1.194683727039251186
0.601000000000000423,-1.185941877565063196
0.602000000000000424,-1.177240940903490740
0.603000000000000425,-1.168581452804093868
0.604000000000000425,-1.159963931160082007
0.605000000000000426,-1.151388876237705805
0.606000000000000427,-1.142856770906156560
0.607000000000000428,-1.134368080867726780
0.608000000000000429,-1.125923254888399061
0.609000000000000430,-1.117522725028426311
0.610000000000000431,-1.109166906873126468
0.611000000000000432,-1.100856199763566856
0.612000000000000433,-1.092590987027149296
0.613000000000000433,-1.084371636208014911
0.614000000000000434,-1.076198499297142064
