# ZnO1m210BOND_CS-12229-AC
# h[nm],U(h)[kJ/mol]
0.149999999999999994,154.054533280984458088
0.150999999999999995,151.858903510725582464
0.151999999999999996,149.982188886518400750
0.152999999999999997,148.172233405793235761
0.153999999999999998,146.340642189763286751
0.154999999999999999,144.476507256705502868
0.156000000000000000,142.598787300498912600
0.157000000000000001,140.732044359238614106
0.158000000000000002,138.895745081976713209
0.159000000000000002,137.100997330769416749
0.160000000000000003,135.350996880754280483
0.161000000000000004,133.643010071377943859
0.162000000000000005,131.970697649038129384
0.163000000000000006,130.326186136891067235
0.164000000000000007,128.701647795615514269
0.165000000000000008,127.090347708458210718
0.166000000000000009,125.487216219466972689
0.167000000000000010,123.889046014582987709
0.168000000000000010,122.294420850104344822
0.169000000000000011,120.703473261343020795
0.170000000000000012,119.117551281589868495
0.171000000000000013,117.538854963580163826
0.172000000000000014,115.970085415822765640
0.173000000000000015,114.414133614416826390
0.174000000000000016,112.873823922867273950
0.175000000000000017,111.351717991459196355
0.176000000000000018,109.849978174234067296
0.177000000000000018,108.370285338293271593
0.178000000000000019,106.913803469900088317
0.179000000000000020,105.481182361161273775
0.180000000000000021,104.072589505704428348
0.181000000000000022,102.687762825378655407
0.182000000000000023,101.326076742945502929
0.183000000000000024,99.986615218615398248
0.184000000000000025,98.668246543325878406
0.185000000000000026,97.369695833360339066
0.186000000000000026,96.089612237307079567
0.187000000000000027,94.826628811164397348
0.188000000000000028,93.579413823337304734
0.189000000000000029,92.346712914612254508
0.190000000000000030,91.127382064386452498
0.191000000000000031,89.920411714723314844
0.192000000000000032,88.724942692733677063
0.193000000000000033,87.540274765271476554
0.194000000000000034,86.365868774045310374
0.195000000000000034,85.201343349268498173
0.196000000000000035,84.046467199909130841
0.197000000000000036,82.901147940857612184
0.198000000000000037,81.765418352606687336
0.199000000000000038,80.639420886327727089
0.200000000000000039,79.523391133900787509
0.201000000000000040,78.417640884409436808
0.202000000000000041,77.322541290413326465
0.203000000000000042,76.238506572397255923
0.204000000000000042,75.165978600615332539
0.205000000000000043,74.105412611762730535
0.206000000000000044,73.057264244497673644
0.207000000000000045,72.021978013286997111
0.208000000000000046,70.999977284415720646
0.209000000000000047,69.991655771056144886
0.210000000000000048,68.997370525573202826
0.211000000000000049,68.017436376149930766
0.212000000000000050,67.052121730646319975
0.213000000000000050,66.101645652616682014
0.214000000000000051,65.166176101841486457
0.215000000000000052,64.245829223835443145
0.216000000000000053,63.340669568865607175
0.217000000000000054,62.450711120375522967
0.218000000000000055,61.575919014763563553
0.219000000000000056,60.716211838641342524
0.220000000000000057,59.871464395515701540
0.221000000000000058,59.041510840862770237
0.222000000000000058,58.226148092418426927
0.223000000000000059,57.425139430883504588
0.224000000000000060,56.638218214862718014
0.225000000000000061,55.865091642508026837
0.226000000000000062,55.105444500839404043
0.227000000000000063,54.358942851930351026
0.228000000000000064,53.625237612965825917
0.229000000000000065,52.903967994524279561
0.230000000000000066,52.194764768254707121
0.231000000000000066,51.497253341374474189
0.232000000000000067,50.811056621093129593
0.233000000000000068,50.135797657165497299
0.234000000000000069,49.471102055304662315
0.235000000000000070,48.816600158160753153
0.236000000000000071,48.171928994017406467
0.237000000000000072,47.536733996306260508
0.238000000000000073,46.910670499522453269
0.239000000000000073,46.293405019178621274
0.240000000000000074,45.684616325093358569
0.241000000000000075,45.083996318615582766
0.242000000000000076,44.491250725368885810
0.243000000000000077,43.906099615798723335
0.244000000000000078,43.328277766252895731
0.245000000000000079,42.757534873553460386
0.246000000000000080,42.193635636058203886
0.247000000000000081,41.636359714085799055
0.248000000000000081,41.085501582322130787
0.249000000000000082,40.540870286454172344
0.250000000000000111,40.002289115816729748
0.251000000000000112,39.469595203304358222
0.252000000000000113,38.942639063212482142
0.253000000000000114,38.421284077044603578
0.254000000000000115,37.905405936667918354
0.255000000000000115,37.394892053530924159
0.256000000000000116,36.889640941982307254
0.257000000000000117,36.389561584059478605
0.258000000000000118,35.894572782455398396
0.259000000000000119,35.404602507727801708
0.260000000000000120,34.919587245192751368
0.261000000000000121,34.439471346346209657
0.262000000000000122,33.964206389087898685
0.263000000000000123,33.493750550481522055
0.264000000000000123,33.028067995277631042
0.265000000000000124,32.567128282949326490
0.266000000000000125,32.110905795548546848
0.267000000000000126,31.659379188280809103
0.268000000000000127,31.212530864318797086
0.269000000000000128,30.770346475030038391
0.270000000000000129,30.332814446479773096
0.271000000000000130,29.899925532784983773
0.272000000000000131,29.471672396640677505
0.273000000000000131,29.048049217110236242
0.274000000000000132,28.629051324569559256
0.275000000000000133,28.214674862515977338
0.276000000000000134,27.804916475797661235
0.277000000000000135,27.399773024685117662
0.278000000000000136,26.999241324091304506
0.279000000000000137,26.603317907151300403
0.280000000000000138,26.211998812292460315
0.281000000000000139,25.825279392861876460
0.282000000000000139,25.443154148327941755
0.283000000000000140,25.065616576034784657
0.284000000000000141,24.692659042462555163
0.285000000000000142,24.324272672930323580
0.286000000000000143,23.960447258671354831
0.287000000000000144,23.601171180211970579
0.288000000000000145,23.246431345992881745
0.289000000000000146,22.896213145187203963
0.290000000000000147,22.550500413687686319
0.291000000000000147,22.209275412261384020
0.292000000000000148,21.872518815896995648
0.293000000000000149,21.540209713401981872
0.294000000000000150,21.212325616340084622
0.295000000000000151,20.888842476436192186
0.296000000000000152,20.569734710612308959
0.297000000000000153,20.254975232857894696
0.298000000000000154,19.944535492176349578
0.299000000000000155,19.638385515889712707
0.300000000000000155,19.336493957623158479
0.301000000000000156,19.038828149330971229
0.302000000000000157,18.745354156764097553
0.303000000000000158,18.456036837819016938
0.304000000000000159,18.170839903244548452
0.305000000000000160,17.889725979220777674
0.306000000000000161,17.612656671359587790
0.307000000000000162,17.339592629711241045
0.308000000000000163,17.070493614394720794
0.309000000000000163,16.805318561501604080
0.310000000000000164,16.544025648953951446
0.311000000000000165,16.286572362026166871
0.312000000000000166,16.032915558268435063
0.313000000000000167,15.783011531596102373
0.314000000000000168,15.536816075334309417
0.315000000000000169,15.294284544030972484
0.316000000000000170,15.055371913873255352
0.317000000000000171,14.820032841564010795
0.318000000000000171,14.588221721533901842
0.319000000000000172,14.359892741383358583
0.320000000000000173,14.134999935465643262
0.321000000000000174,13.913497236537960333
0.322000000000000175,13.695338525422343423
0.323000000000000176,13.480477678631498151
0.324000000000000177,13.268868613927178757
0.325000000000000178,13.060465333790284959
0.326000000000000179,12.855221966791972932
0.327000000000000179,12.653092806864936648
0.328000000000000180,12.454032350482279412
0.329000000000000181,12.257995331759371282
0.330000000000000182,12.064936755501076249
0.331000000000000183,11.874811928222730018
0.332000000000000184,11.687576487179075713
0.333000000000000185,11.503186427440077466
0.334000000000000186,11.321598127056756056
0.335000000000000187,11.142768370364013464
0.336000000000000187,10.966654369470393959
0.337000000000000188,10.793213783987663845
0.338000000000000189,10.622404739054951861
0.339000000000000190,10.454185841714187077
0.340000000000000191,10.288516195695017075
0.341000000000000192,10.125355414668289811
0.342000000000000193,9.964663634027877137
0.343000000000000194,9.806401521261113530
0.344000000000000195,9.650530284968402484
0.345000000000000195,9.497011682592003012
0.346000000000000196,9.345808026914212974
0.347000000000000197,9.196882191384226246
0.348000000000000198,9.050197614332487817
0.349000000000000199,8.905718302130418706
0.350000000000000200,8.763408831352313300
0.351000000000000201,8.623234349995264836
0.352000000000000202,8.485160577811582172
0.353000000000000203,8.349153805806967199
0.354000000000000203,8.215180894956144897
0.355000000000000204,8.083209274186465620
0.356000000000000205,7.953206937678229949
0.357000000000000206,7.825142441528925019
0.358000000000000207,7.698984899827277850
0.359000000000000208,7.574703980181054064
0.360000000000000209,7.452269898741010756
0.361000000000000210,7.331653414762048904
0.362000000000000210,7.212825824740479952
0.363000000000000211,7.095758956165158615
0.364000000000000212,6.980425160918308336
0.365000000000000213,6.866797308360434116
0.366000000000000214,6.754848778132024556
0.367000000000000215,6.644553452703314989
0.368000000000000216,6.535885709701598323
0.369000000000000217,6.428820414044510656
0.370000000000000218,6.323332909905674981
0.371000000000000218,6.219399012538268323
0.372000000000000219,6.116994999980120085
0.373000000000000220,6.016097604662972387
0.374000000000000221,5.916684004947079245
0.375000000000000222,5.818731816601109941
0.376000000000000223,5.722219084245844911
0.377000000000000224,5.627124272779386871
0.378000000000000225,5.533426258800056452
0.379000000000000226,5.441104322042282782
0.380000000000000226,5.350138136839577285
0.381000000000000227,5.260507763627835232
0.382000000000000228,5.172193640500977629
0.383000000000000229,5.085176574830279073
0.384000000000000230,4.999437734957644430
0.385000000000000231,4.914958641972240194
0.386000000000000232,4.831721161579258350
0.387000000000000233,4.749707496068464430
0.388000000000000234,4.668900176389868761
0.389000000000000234,4.589282054342762152
0.390000000000000235,4.510836294883918463
0.391000000000000236,4.433546368560088879
0.392000000000000237,4.357396044069242080
0.393000000000000238,4.282369380954515137
0.394000000000000239,4.208450722434300850
0.395000000000000240,4.135624688371295044
0.396000000000000241,4.063876168382995147
0.397000000000000242,3.993190315095623610
0.398000000000000242,3.923552537542934537
0.399000000000000243,3.854948494711259777
0.400000000000000244,3.787364089231380682
0.401000000000000245,3.720785461217796630
0.402000000000000246,3.655198982255611018
0.403000000000000247,3.590591249534667018
0.404000000000000248,3.526949080130701297
0.405000000000000249,3.464259505432723873
0.406000000000000250,3.402509765715783452
0.407000000000000250,3.341687304857919205
0.408000000000000251,3.281779765200012910
0.409000000000000252,3.222774982547049749
0.410000000000000253,3.164660981309057597
0.411000000000000254,3.107425969779975539
0.412000000000000255,3.051058335552484291
0.413000000000000256,2.995546641066657578
0.414000000000000257,2.940879619290377889
0.415000000000000258,2.887046169529089212
0.416000000000000258,2.834035353362703624
0.417000000000000259,2.781836390707054907
0.418000000000000260,2.730438655997537545
0.419000000000000261,2.679831674492294091
0.420000000000000262,2.630005118692437360
0.421000000000000263,2.580948804876574521
0.422000000000000264,2.532652689747113772
0.423000000000000265,2.485106867185564283
0.424000000000000266,2.438301565114149749
0.425000000000000266,2.392227142461143430
0.426000000000000267,2.346874086227072720
0.427000000000000268,2.302233008649213097
0.428000000000000269,2.258294644461650069
0.429000000000000270,2.215049848248199282
0.430000000000000271,2.172489591885622850
0.431000000000000272,2.130604962074376996
0.432000000000000273,2.089387157954427643
0.433000000000000274,2.048827488803445895
0.434000000000000274,2.008917371814879615
0.435000000000000275,1.969648329953413990
0.436000000000000276,1.931011989885294211
0.437000000000000277,1.893000079981099093
0.438000000000000278,1.855604428388605953
0.439000000000000279,1.818816961173302715
0.440000000000000280,1.782629700524348326
0.441000000000000281,1.747034763023657122
0.442000000000000282,1.712024357975860056
0.443000000000000282,1.677590785797082873
0.444000000000000283,1.643726436460283269
0.445000000000000284,1.610423787995195255
0.446000000000000285,1.577675405040808609
0.447000000000000286,1.545473937448357038
0.448000000000000287,1.513812118933016704
0.449000000000000288,1.482682765772315614
0.450000000000000289,1.452078775549518586
0.451000000000000290,1.421993125940189451
0.452000000000000290,1.392418873540150148
0.453000000000000291,1.363349152733286385
0.454000000000000292,1.334777174597440386
0.455000000000000293,1.306696225846907478
0.456000000000000294,1.279099667809977969
0.457000000000000295,1.251980935440012654
0.458000000000000296,1.225333536358685693
0.459000000000000297,1.199151049929939594
0.460000000000000298,1.173427126363356221
0.461000000000000298,1.148155485845618440
0.462000000000000299,1.123329917698818070
0.463000000000000300,1.098944279564429305
0.464000000000000301,1.074992496611709702
0.465000000000000302,1.051468560769483362
0.466000000000000303,1.028366529980174304
0.467000000000000304,1.005680527475032893
0.468000000000000305,0.983404741069608179
0.469000000000000306,0.961533422478449085
0.470000000000000306,0.940060886648076410
0.471000000000000307,0.918981511107438642
0.472000000000000308,0.898289735334883765
0.473000000000000309,0.877980060140855167
0.474000000000000310,0.858047047065558566
0.475000000000000311,0.838485317790784945
0.476000000000000312,0.819289553565222706
0.477000000000000313,0.800454494642473313
0.478000000000000314,0.781974939731237884
0.479000000000000314,0.763845745456883551
0.480000000000000315,0.746061825833922443
0.481000000000000316,0.728618151748713139
0.482000000000000317,0.711509750451910450
0.483000000000000318,0.694731705060066540
0.484000000000000319,0.678279154065934198
0.485000000000000320,0.662147290856967885
0.486000000000000321,0.646331363241551715
0.487000000000000322,0.630826672982531589
0.488000000000000322,0.615628575337688888
0.489000000000000323,0.600732478606640363
0.490000000000000324,0.586133843683921851
0.491000000000000325,0.571828183617827612
0.492000000000000326,0.557811063174703525
0.493000000000000327,0.544078098408341981
0.494000000000000328,0.530624956234231560
0.495000000000000329,0.517447354008321314
0.496000000000000330,0.504541059110115042
0.497000000000000330,0.491901888529688747
0.498000000000000331,0.479525708458642952
0.499000000000000332,0.467408433884503982
0.500000000000000333,0.455546028188511809
0.501000000000000334,0.443934502746637538
0.502000000000000335,0.432569916533484367
0.503000000000000336,0.421448375729079117
0.504000000000000337,0.410566033328258917
0.505000000000000338,0.399919088752598628
0.506000000000000338,0.389503787464672069
0.507000000000000339,0.379316420584558778
0.508000000000000340,0.369353324508491287
0.509000000000000341,0.359610880529446009
0.510000000000000342,0.350085514459713920
0.511000000000000343,0.340773696255207037
0.512000000000000344,0.331671939641558444
0.513000000000000345,0.322776801741836650
0.514000000000000346,0.314084882705815915
0.515000000000000346,0.305592825340807950
0.516000000000000347,0.297297314743919405
0.517000000000000348,0.289195077935705425
0.518000000000000349,0.281282883495209191
0.519000000000000350,0.273557541196275900
0.520000000000000351,0.266015901645208219
0.521000000000000352,0.258654855919589199
0.522000000000000353,0.251471335208417912
0.523000000000000353,0.244462310453374160
0.524000000000000354,0.237624791991304291
0.525000000000000355,0.230955829197858703
0.526000000000000356,0.224452510132311822
0.527000000000000357,0.218111961183492575
0.528000000000000358,0.211931346716906444
0.529000000000000359,0.205907868722944004
0.530000000000000360,0.200038766466308443
0.531000000000000361,0.194321316136525035
0.532000000000000361,0.188752830499636620
0.533000000000000362,0.183330658551056125
0.534000000000000363,0.178052185169604776
0.535000000000000364,0.172914830772693012
0.536000000000000365,0.167916050972753805
0.537000000000000366,0.163053336234831370
0.538000000000000367,0.158324211535468662
0.539000000000000368,0.153726236022749096
0.540000000000000369,0.149257002677697342
0.541000000000000369,0.144914137976870250
0.542000000000000370,0.140695301556345381
0.543000000000000371,0.136598185876959988
0.544000000000000372,0.132620515890935819
0.545000000000000373,0.128760048709859909
0.546000000000000374,0.125014573274057961
0.547000000000000375,0.121381910023396461
0.548000000000000376,0.117859910569499987
0.549000000000000377,0.114446457369462129
0.550000000000000377,0.111139463400998478
0.551000000000000378,0.107936871839176801
0.552000000000000379,0.104836655734606057
0.553000000000000380,0.101836817693244736
0.554000000000000381,0.098935389557782139
0.555000000000000382,0.096130432090578727
0.556000000000000383,0.093420034658323187
0.557000000000000384,0.090802314918246765
0.558000000000000385,0.088275418506106873
0.559000000000000385,0.085837518725813966
0.560000000000000386,0.083486816240787243
0.561000000000000387,0.081221538767080007
0.562000000000000388,0.079039940768266689
0.563000000000000389,0.076940303152092035
0.564000000000000390,0.074920932968962697
0.565000000000000391,0.072980163112249224
0.566000000000000392,0.071116352020463097
0.567000000000000393,0.069327883381254105
0.568000000000000393,0.067613165837350969
0.569000000000000394,0.065970632694383871
0.570000000000000395,0.064398741630613057
0.571000000000000396,0.062895974408647068
0.572000000000000397,0.061460836589053901
0.573000000000000398,0.060091857246012625
0.574000000000000399,0.058787588684893068
0.575000000000000400,0.057546606161881973
0.576000000000000401,0.056367507605624409
0.577000000000000401,0.055248913340843052
0.578000000000000402,0.054189465814067569
0.579000000000000403,0.053187829321397082
0.580000000000000404,0.052242689738287607
0.581000000000000405,0.051352754251487623
0.582000000000000406,0.050516751092990086
0.583000000000000407,0.049733429276140238
0.584000000000000408,0.049001558333802188
0.585000000000000409,0.048319928058660588
0.586000000000000409,0.047687348245656090
0.587000000000000410,0.047102648436495191
0.588000000000000411,0.046564677666375079
0.589000000000000412,0.046072304212751554
0.590000000000000413,0.045624415346337661
0.591000000000000414,0.045219917084197717
0.592000000000000415,0.044857733944998236
0.593000000000000416,0.044536808706437107
0.594000000000000417,0.044256102164823639
0.595000000000000417,0.044014592896770718
0.596000000000000418,0.043811277023140291
0.597000000000000419,0.043645167975045515
0.598000000000000420,0.043515296262108046
0.599000000000000421,0.043420709242806249
0.600000000000000422,0.043360470897013698
0.601000000000000423,0.043333661600719650
0.602000000000000424,0.043339377902859612
0.603000000000000425,0.043376732304318669
0.604000000000000425,0.043444853039117187
0.605000000000000426,0.043542883857710615
0.606000000000000427,0.043669983812416310
0.607000000000000428,0.043825327045077148
0.608000000000000429,0.044008102576706627
0.609000000000000430,0.044217514099435279
0.610000000000000431,0.044452779770444754
0.611000000000000432,0.044713132008097282
0.612000000000000433,0.044997817290169759
0.613000000000000433,0.045306095954165612
0.614000000000000434,0.045637241999744185
0.615000000000000435,0.045990542893252925
0.616000000000000436,0.046365299374347857
0.617000000000000437,0.046760825264642113
0.618000000000000438,0.047176447278467884
