# ZnO1m210BOND_CS-64234-AC
# h[nm],U(h)[kJ/mol]
0.149999999999999994,157.077802803351460170
0.150999999999999995,154.473111043694814271
0.151999999999999996,152.180560355533657457
0.152999999999999997,149.931601223389719735
0.153999999999999998,147.647882796791662940
0.154999999999999999,145.332353919144793508
0.156000000000000000,143.013294532232578149
0.157000000000000001,140.718608005309079090
0.158000000000000002,138.466504323969985535
0.159000000000000002,136.264340304757922695
0.160000000000000003,134.110926930817441871
0.161000000000000004,131.999790455999658434
0.162000000000000005,129.922169839881149755
0.163000000000000006,127.869272031021523617
0.164000000000000007,125.833701386669119415
0.165000000000000008,123.810168034250111191
0.166000000000000009,121.795650116311520605
0.167000000000000010,119.789191370845671258
0.168000000000000010,117.791491512124508745
0.169000000000000011,115.804411628718412430
0.170000000000000012,113.830480797323019715
0.171000000000000013,111.872458461324299606
0.172000000000000014,109.932981822918208081
0.173000000000000015,108.014308769480521732
0.174000000000000016,106.118154030065483084
0.175000000000000017,104.245608297283610000
0.176000000000000018,102.397125841181207306
0.177000000000000018,100.572564656710511599
0.178000000000000019,98.771263551200050301
0.179000000000000020,96.992142094383922313
0.180000000000000021,95.233811490638856867
0.181000000000000022,93.494686808191517002
0.182000000000000023,91.773093352130445055
0.183000000000000024,90.067362132000567954
0.184000000000000025,88.375911257972219914
0.185000000000000026,86.697311661904237212
0.186000000000000026,85.030336777033454609
0.187000000000000027,83.373996741855279424
0.188000000000000028,81.727558353057645490
0.189000000000000029,80.090552418885209818
0.190000000000000030,78.462770399578317893
0.191000000000000031,76.844252305639741962
0.192000000000000032,75.235267794272076003
0.193000000000000033,73.636292291511239227
0.194000000000000034,72.047979799542147816
0.195000000000000034,70.471133847666408201
0.196000000000000035,68.906677829041868222
0.197000000000000036,67.355625747118821778
0.198000000000000037,65.819054185539869195
0.199000000000000038,64.298076120004907352
0.200000000000000039,62.793817014593074077
0.201000000000000040,61.307393490664047420
0.202000000000000041,59.839894724584652863
0.203000000000000042,58.392366620857572457
0.204000000000000042,56.965798718658177791
0.205000000000000043,55.561113720669162319
0.206000000000000044,54.179159481449879365
0.207000000000000045,52.820703256250531865
0.208000000000000046,51.486427987991234545
0.209000000000000047,50.176930397953455554
0.210000000000000048,48.892720642568335165
0.211000000000000049,47.634223302701634850
0.212000000000000050,46.401779481373836234
0.213000000000000050,45.195649799475383190
0.214000000000000051,44.016018095488547601
0.215000000000000052,42.862995653459947221
0.216000000000000053,41.736625802607001390
0.217000000000000054,40.636888751285376031
0.218000000000000055,39.563706537033468180
0.219000000000000056,38.516947992624366748
0.220000000000000057,37.496433645178086635
0.221000000000000058,36.501940481212486134
0.222000000000000058,35.533206524895362577
0.223000000000000059,34.589935189647931679
0.224000000000000060,33.671799374617123135
0.225000000000000061,32.778445287416204224
0.226000000000000062,31.909495982985713880
0.227000000000000063,31.064554615533957360
0.228000000000000064,30.243207406378058266
0.229000000000000065,29.445026335228106973
0.230000000000000066,28.669571566156484721
0.231000000000000066,27.916393622282317466
0.232000000000000067,27.185035325193155131
0.233000000000000068,26.475033516428545965
0.234000000000000069,25.785920579066775815
0.235000000000000070,25.117225777681863264
0.236000000000000071,24.468476434759704574
0.237000000000000072,23.839198961159020485
0.238000000000000073,23.228919757445844141
0.239000000000000073,22.637166001982791386
0.240000000000000074,22.063466340566765922
0.241000000000000075,21.507351491234562246
0.242000000000000076,20.968354776628729041
0.243000000000000077,20.446012595072694751
0.244000000000000078,19.939864840271582125
0.245000000000000079,19.449455278354488286
0.246000000000000080,18.974331889824206598
0.247000000000000081,18.514047182892319654
0.248000000000000081,18.068158483663680158
0.249000000000000082,17.636228207698781745
0.250000000000000111,17.217824116629877551
0.251000000000000112,16.812519562739151269
0.252000000000000113,16.419893723722445600
0.253000000000000114,16.039531829261783002
0.254000000000000115,15.671025380506828029
0.255000000000000115,15.313972363119134457
0.256000000000000116,14.967977454157296080
0.257000000000000117,14.632652222770767381
0.258000000000000118,14.307615324421362857
0.259000000000000119,13.992492688156650260
0.260000000000000120,13.686917696314470305
0.261000000000000121,13.390531355937586255
0.262000000000000122,13.102982461114905277
0.263000000000000123,12.823927745438172821
0.264000000000000123,12.553032023763032399
0.265000000000000124,12.289968322489333019
0.266000000000000125,12.034417997620279195
0.267000000000000126,11.786070839922532016
0.268000000000000127,11.544625166583541542
0.269000000000000128,11.309787898847378784
0.270000000000000129,11.081274625201562145
0.271000000000000130,10.858809649783120577
0.272000000000000131,10.642126025770220821
0.273000000000000131,10.430965573624026987
0.274000000000000132,10.225078884142321911
0.275000000000000133,10.024225306380582623
0.276000000000000134,9.828172920586549566
0.277000000000000135,9.636698496380018852
0.278000000000000136,9.449587436489183645
0.279000000000000137,9.266633706429043826
0.280000000000000138,9.087639750574687980
0.281000000000000139,8.912416395142722436
0.282000000000000139,8.740782738648089634
0.283000000000000140,8.572566030450053276
0.284000000000000141,8.407601538041307165
0.285000000000000142,8.245732403767167540
0.286000000000000143,8.086809491688558893
0.287000000000000144,7.930691225323127647
0.288000000000000145,7.777243417012781102
0.289000000000000146,7.626339089675504113
0.290000000000000147,7.477858291702115245
0.291000000000000147,7.331687905757986456
0.292000000000000148,7.187721452243321707
0.293000000000000149,7.045858888156111277
0.294000000000000150,6.906006402088008755
0.295000000000000151,6.768076206066311329
0.296000000000000152,6.631986324935470023
0.297000000000000153,6.497660383948860030
0.298000000000000154,6.365027395216862338
0.299000000000000155,6.234021543630587026
0.300000000000000155,6.104581972852367144
0.301000000000000156,5.976652571934790714
0.302000000000000157,5.850181763099245202
0.303000000000000158,5.725122291174225886
0.304000000000000159,5.601431015161551841
0.305000000000000160,5.479068702367156263
0.306000000000000161,5.357999825500983526
0.307000000000000162,5.238192363118742811
0.308000000000000163,5.119617603747094847
0.309000000000000163,5.002249954002633281
0.310000000000000164,4.886066750984888962
0.311000000000000165,4.771048079193909608
0.312000000000000166,4.657176592194240072
0.313000000000000167,4.544437339219307148
0.314000000000000168,4.432817596883415590
0.315000000000000169,4.322306706142764021
0.316000000000000170,4.212895914622213134
0.317000000000000171,4.104578224401072006
0.318000000000000171,3.997348245328949723
0.319000000000000172,3.891202053921259729
0.320000000000000173,3.786137057864421784
0.321000000000000174,3.682151866141833985
0.322000000000000175,3.579246164774245731
0.323000000000000176,3.477420598151804487
0.324000000000000177,3.376676655919894188
0.325000000000000178,3.277016565366982270
0.326000000000000179,3.178443189249527290
0.327000000000000179,3.080959928977565543
0.328000000000000180,2.984570633073647894
0.329000000000000181,2.889279510808095530
0.330000000000000182,2.795091050905058161
0.331000000000000183,2.702009945205751329
0.332000000000000184,2.610041017168792443
0.333000000000000185,2.519189155081310805
0.334000000000000186,2.429459249849473146
0.335000000000000187,2.340856137232733669
0.336000000000000187,2.253384544382336596
0.337000000000000188,2.167049040542055049
0.338000000000000189,2.081853991766393186
0.339000000000000190,1.997803519510216841
0.340000000000000191,1.914901462942697918
0.341000000000000192,1.833151344837642416
0.342000000000000193,1.752556340892629905
0.343000000000000194,1.673119252329428930
0.344000000000000195,1.594842481629541453
0.345000000000000195,1.517728011259289023
0.346000000000000196,1.441777385241109100
0.347000000000000197,1.366991693429256971
0.348000000000000198,1.293371558350443262
0.349000000000000199,1.220917124472465476
0.350000000000000200,1.149628049766503457
0.351000000000000201,1.079503499431724078
0.352000000000000202,1.010542141653993031
0.353000000000000203,0.942742145273611443
0.354000000000000203,0.876101179240461603
0.355000000000000204,0.810616413738548092
0.356000000000000205,0.746284522865338085
0.357000000000000206,0.683101688754957026
0.358000000000000207,0.621063607038372822
0.359000000000000208,0.560165493536982750
0.360000000000000209,0.500402092090080020
0.361000000000000210,0.441767683420565938
0.362000000000000210,0.384256094946774485
0.363000000000000211,0.327860711452367781
0.364000000000000212,0.272574486529797544
0.365000000000000213,0.218389954716724149
0.366000000000000214,0.165299244248354571
0.367000000000000215,0.113294090352408588
0.368000000000000216,0.062365849016785060
0.369000000000000217,0.012505511163886230
0.370000000000000218,-0.036296282831437286
0.371000000000000218,-0.084049228339591581
0.372000000000000219,-0.130763341445871206
0.373000000000000220,-0.176448943744955872
0.374000000000000221,-0.221116647010064282
0.375000000000000222,-0.264777337783523248
0.376000000000000223,-0.307442161932784508
0.377000000000000224,-0.349122509212710153
0.378000000000000225,-0.389829997872504941
0.379000000000000226,-0.429576459342787598
0.380000000000000226,-0.468373923036007223
0.381000000000000227,-0.506234601290537656
0.382000000000000228,-0.543170874486835098
0.383000000000000229,-0.579195276361484046
0.384000000000000230,-0.614320479542782905
0.385000000000000231,-0.648559281329693094
0.386000000000000232,-0.681924589733542197
0.387000000000000233,-0.714429409800401927
0.388000000000000234,-0.746086830229852560
0.389000000000000234,-0.776910010304471599
0.390000000000000235,-0.806912167142390446
0.391000000000000236,-0.836106563283969706
0.392000000000000237,-0.864506494621983257
0.393000000000000238,-0.892125278683432166
0.394000000000000239,-0.918976243269606252
0.395000000000000240,-0.945072715459971513
0.396000000000000241,-0.970428010984108136
0.397000000000000242,-0.995055423964876895
0.398000000000000242,-1.018968217035020718
0.399000000000000243,-1.042179611828250030
0.400000000000000244,-1.064702779845152936
0.401000000000000245,-1.086550833693363582
0.402000000000000246,-1.107736818700440384
0.403000000000000247,-1.128273704897510221
0.404000000000000248,-1.148174379370769493
0.405000000000000249,-1.167451638977457629
0.406000000000000250,-1.186118183422249839
0.407000000000000250,-1.204186608689584048
0.408000000000000251,-1.221669400826862262
0.409000000000000252,-1.238578930073086504
0.410000000000000253,-1.254927445327048030
0.411000000000000254,-1.270727068948885874
0.412000000000000255,-1.285989791888397349
0.413000000000000256,-1.300727469133416969
0.414000000000000257,-1.314951815470974061
0.415000000000000258,-1.328674401554176931
0.416000000000000258,-1.341906650267105539
0.417000000000000259,-1.354659833380234657
0.418000000000000260,-1.366945068488500947
0.419000000000000261,-1.378773316224186196
0.420000000000000262,-1.390155377736571163
0.421000000000000263,-1.401101892430446361
0.422000000000000264,-1.411623335955214831
0.423000000000000265,-1.421730018436644816
0.424000000000000266,-1.431432082943136397
0.425000000000000266,-1.440739504178318864
0.426000000000000267,-1.449662087392035392
0.427000000000000268,-1.458209467501627499
0.428000000000000269,-1.466391108415560973
0.429000000000000270,-1.474216302551559554
0.430000000000000271,-1.481694170541339561
0.431000000000000272,-1.488833661114346008
0.432000000000000273,-1.495643551152755713
0.433000000000000274,-1.502132445910353997
0.434000000000000274,-1.508308779387815601
0.435000000000000275,-1.514180814857160273
0.436000000000000276,-1.519756645528281824
0.437000000000000277,-1.525044195350494736
0.438000000000000278,-1.530051219942305307
0.439000000000000279,-1.534785307642694718
0.440000000000000280,-1.539253880677339925
0.441000000000000281,-1.543464196433364632
0.442000000000000282,-1.547423348836480139
0.443000000000000282,-1.551138269824255733
0.444000000000000283,-1.554615730909776783
0.445000000000000284,-1.557862344829813894
0.446000000000000285,-1.560884567271918044
0.447000000000000286,-1.563688698675098854
0.448000000000000287,-1.566280886098658121
0.449000000000000288,-1.568667125154229236
0.450000000000000289,-1.570853261995952987
0.451000000000000290,-1.572844995364057086
0.452000000000000290,-1.574647878677242208
0.453000000000000291,-1.576267322169337515
0.454000000000000292,-1.577708595065977937
0.455000000000000293,-1.578976827797123672
0.456000000000000294,-1.580077014241420219
0.457000000000000295,-1.581014013998588208
0.458000000000000296,-1.581792554686081598
0.459000000000000297,-1.582417234256541239
0.460000000000000298,-1.582892523332575241
0.461000000000000298,-1.583222767555643395
0.462000000000000299,-1.583412189945920368
0.463000000000000300,-1.583464893270107421
0.464000000000000301,-1.583384862414414007
0.465000000000000302,-1.583175966759936326
0.466000000000000303,-1.582841962557840265
0.467000000000000304,-1.582386495301917995
0.468000000000000305,-1.581813102096129242
0.469000000000000306,-1.581125214014913016
0.470000000000000306,-1.580326158454213203
0.471000000000000307,-1.579419161471088628
0.472000000000000308,-1.578407350110176077
0.473000000000000309,-1.577293754715110685
0.474000000000000310,-1.576081311223255010
0.475000000000000311,-1.574772863442178483
0.476000000000000312,-1.573371165306383990
0.477000000000000313,-1.571878883112909131
0.478000000000000314,-1.570298597734451018
0.479000000000000314,-1.568632806808914371
0.480000000000000315,-1.566883926904127922
0.481000000000000316,-1.565054295656804317
0.482000000000000317,-1.563146173884683687
0.483000000000000318,-1.561161747671054423
0.484000000000000319,-1.559103130420769423
0.485000000000000320,-1.556972364887078131
0.486000000000000321,-1.554771425168554710
0.487000000000000322,-1.552502218675549939
0.488000000000000322,-1.550166588065552853
0.489000000000000323,-1.547766313147091788
0.490000000000000324,-1.545303112751639230
0.491000000000000325,-1.542778646573220280
0.492000000000000326,-1.540194516975335937
0.493000000000000327,-1.537552270765031537
0.494000000000000328,-1.534853400933785306
0.495000000000000329,-1.532099348365139502
0.496000000000000330,-1.529291503508841465
0.497000000000000330,-1.526431208021554298
0.498000000000000331,-1.523519756373893363
0.499000000000000332,-1.520558397423977137
0.500000000000000333,-1.517548335957411787
0.501000000000000334,-1.514490734193744803
0.502000000000000335,-1.511386713259584180
0.503000000000000336,-1.508237354628428895
0.504000000000000337,-1.505043701527381206
0.505000000000000338,-1.501806760310938849
0.506000000000000338,-1.498527501802052075
0.507000000000000339,-1.495206862600704900
0.508000000000000340,-1.491845746360212610
0.509000000000000341,-1.488445025031626345
0.510000000000000342,-1.485005540076387298
0.511000000000000343,-1.481528103647690831
0.512000000000000344,-1.478013499740774117
0.513000000000000345,-1.474462485312534543
0.514000000000000346,-1.470875791370869212
0.515000000000000346,-1.467254124034012674
0.516000000000000347,-1.463598165560336950
0.517000000000000348,-1.459908575349030846
0.518000000000000349,-1.456185990911963879
0.519000000000000350,-1.452431028817287473
0.520000000000000351,-1.448644285605074744
0.521000000000000352,-1.444826338675555322
0.522000000000000353,-1.440977747150267385
0.523000000000000353,-1.437099052706664271
0.524000000000000354,-1.433190780386604635
0.525000000000000355,-1.429253439379155610
0.526000000000000356,-1.425287523778191012
0.527000000000000357,-1.421293513315280421
0.528000000000000358,-1.417271874068261495
0.529000000000000359,-1.413223059146051730
0.530000000000000360,-1.409147509350078931
0.531000000000000361,-1.405045653812892148
0.532000000000000361,-1.400917910614344120
0.533000000000000362,-1.396764687375870340
0.534000000000000363,-1.392586381833301745
0.535000000000000364,-1.388383382388702847
0.536000000000000365,-1.384156068641668735
0.537000000000000366,-1.379904811900600325
0.538000000000000367,-1.375629975674321326
0.539000000000000368,-1.371331916144649998
0.540000000000000369,-1.367010982620195048
0.541000000000000369,-1.362667517972000919
0.542000000000000370,-1.358301859051353144
0.543000000000000371,-1.353914337090278197
0.544000000000000372,-1.349505278085140203
0.545000000000000373,-1.345075003163772154
0.546000000000000374,-1.340623828936581052
0.547000000000000375,-1.336152067832019785
0.548000000000000376,-1.331660028416924879
0.549000000000000377,-1.327148015702024786
0.550000000000000377,-1.322616331433133841
0.551000000000000378,-1.318065274368341866
0.552000000000000379,-1.313495140541690365
0.553000000000000380,-1.308906223513646605
0.554000000000000381,-1.304298814608789048
0.555000000000000382,-1.299673203141146427
0.556000000000000383,-1.295029676627412751
0.557000000000000384,-1.290368520988609102
0.558000000000000385,-1.285690020740355433
0.559000000000000385,-1.280994459172245303
0.560000000000000386,-1.276282118516619768
0.561000000000000387,-1.271553280107077466
0.562000000000000388,-1.266808224527055105
0.563000000000000389,-1.262047231748861131
0.564000000000000390,-1.257270581263392417
0.565000000000000391,-1.252478552200940509
0.566000000000000392,-1.247671423443325933
0.567000000000000393,-1.242849473727746012
0.568000000000000393,-1.238012981742517837
0.569000000000000394,-1.233162226215125612
0.570000000000000395,-1.228297485992797089
0.571000000000000396,-1.223419040115856671
0.572000000000000397,-1.218527167884228435
0.573000000000000398,-1.213622148917229415
0.574000000000000399,-1.208704263207031282
0.575000000000000400,-1.203773791165934082
0.576000000000000401,-1.198831013667779999
0.577000000000000401,-1.193876212083740063
0.578000000000000402,-1.188909668312654322
0.579000000000000403,-1.183931664806187722
0.580000000000000404,-1.178942484589077022
0.581000000000000405,-1.173942411274578435
0.582000000000000406,-1.168931729075431969
0.583000000000000407,-1.163910722810465703
0.584000000000000408,-1.158879677907114214
0.585000000000000409,-1.153838880399992162
0.586000000000000409,-1.148788616925717543
0.587000000000000410,-1.143729174714235963
0.588000000000000411,-1.138660841576698335
0.589000000000000412,-1.133583905890224175
0.590000000000000413,-1.128498656579564718
0.591000000000000414,-1.123405383095942289
0.592000000000000415,-1.118304375393189387
0.593000000000000416,-1.113195923901312723
0.594000000000000417,-1.108080319497660726
0.595000000000000417,-1.102957853475889483
0.596000000000000418,-1.097828817512717547
0.597000000000000419,-1.092693503632814034
0.598000000000000420,-1.087552204171740478
0.599000000000000421,-1.082405211737259787
0.600000000000000422,-1.077252819168995623
0.601000000000000423,-1.072095319496626731
0.602000000000000424,-1.066933005896745446
0.603000000000000425,-1.061766171648454549
0.604000000000000425,-1.056595110087806599
0.605000000000000426,-1.051420114561218533
0.606000000000000427,-1.046241478377992529
0.607000000000000428,-1.041059494761880533
0.608000000000000429,-1.035874456802060362
0.609000000000000430,-1.030686657403292461
0.610000000000000431,-1.025496389235634798
0.611000000000000432,-1.020303944683587538
0.612000000000000433,-1.015109615794845599
0.613000000000000433,-1.009913694228746550
0.614000000000000434,-1.004716471204430306
