# ZnO1m210BOND_CS-65596-AC
# h[nm],U(h)[kJ/mol]
0.149999999999999994,156.174992185353346485
0.150999999999999995,154.195175366864560829
0.151999999999999996,152.029443092279279881
0.152999999999999997,149.819898356982577070
0.153999999999999998,147.628520050552054954
0.154999999999999999,145.475846234857669970
0.156000000000000000,143.363114185827868141
0.157000000000000001,141.284277993522437100
0.158000000000000002,139.232019687945125952
0.159000000000000002,137.200341924660108361
0.160000000000000003,135.185330249391853386
0.161000000000000004,133.185028534773266529
0.162000000000000005,131.198963802142969826
0.163000000000000006,129.227605342839439118
0.164000000000000007,127.271892997056312424
0.165000000000000008,125.332883850858678443
0.166000000000000009,123.411521088111982181
0.167000000000000010,121.508507345297175561
0.168000000000000010,119.624257427708215573
0.169000000000000011,117.758905228124461928
0.170000000000000012,115.912343226862390111
0.171000000000000013,114.084277756146590832
0.172000000000000014,112.274288027112703503
0.173000000000000015,110.481881128720715424
0.174000000000000016,108.706538579118912935
0.175000000000000017,106.947752520263478004
0.176000000000000018,105.205051384119045110
0.177000000000000018,103.478015957880785436
0.178000000000000019,101.766287380071560165
0.179000000000000020,100.069568842436723344
0.180000000000000021,98.387622768191008049
0.181000000000000022,96.720265076966398965
0.182000000000000023,95.067357900779725810
0.183000000000000024,93.428801834372933399
0.184000000000000025,91.804528522331636964
0.185000000000000026,90.194494126759494179
0.186000000000000026,88.598673995628359989
0.187000000000000027,87.017058668853010772
0.188000000000000028,85.449651217384669621
0.189000000000000029,83.896465807706860573
0.190000000000000030,82.357527315692848902
0.191000000000000031,80.832871774537323972
0.192000000000000032,79.322547425838990875
0.193000000000000033,77.826616145495165711
0.194000000000000034,76.345155031960430847
0.195000000000000034,74.878257969317274956
0.196000000000000035,73.426037007902692721
0.197000000000000036,71.988623438002747434
0.198000000000000037,70.566168465094222029
0.199000000000000038,69.158843426583445080
0.200000000000000039,67.766839518781381457
0.201000000000000040,66.390367028196322963
0.202000000000000041,65.029654082708731266
0.203000000000000042,63.684944955672207811
0.204000000000000042,62.356497969527524106
0.205000000000000043,61.044583055342187095
0.206000000000000044,59.749479031113025940
0.207000000000000045,58.471470665084666507
0.208000000000000046,57.210845591154473766
0.209000000000000047,55.967891142085797185
0.210000000000000048,54.742891163146552458
0.211000000000000049,53.536122864327253978
0.212000000000000050,52.347853763823572137
0.213000000000000050,51.178338769324973612
0.214000000000000051,50.027817437104118881
0.215000000000000052,48.896511442198672626
0.216000000000000053,47.784622286316320583
0.217000000000000054,46.692329263635031111
0.218000000000000055,45.619787698543653676
0.219000000000000056,44.567127463670495047
0.220000000000000057,43.534451781338660226
0.221000000000000058,42.521836306924782889
0.222000000000000058,41.529328488487927018
0.223000000000000059,40.556947193499922832
0.224000000000000060,39.604682590526550712
0.225000000000000061,38.672496271268400392
0.226000000000000062,37.760321596439439418
0.227000000000000063,36.868064247507611242
0.228000000000000064,35.995602965305451448
0.229000000000000065,35.142790455897994661
0.230000000000000066,34.309454443829203285
0.231000000000000066,33.495398852911613119
0.232000000000000067,32.700405095037055503
0.233000000000000068,31.924233448026882343
0.234000000000000069,31.166624504271329243
0.235000000000000070,30.427300672792444658
0.236000000000000071,29.705967718371674380
0.237000000000000072,29.002316322479135380
0.238000000000000073,28.316023651902902714
0.239000000000000073,27.646754922177166236
0.240000000000000074,26.994164944125230932
0.241000000000000075,26.357899643052768113
0.242000000000000076,25.737597541328540274
0.243000000000000077,25.132891196262445277
0.244000000000000078,24.543408586323973708
0.245000000000000079,23.968774439827377876
0.246000000000000080,23.408611501238119956
0.247000000000000081,22.862541731220861863
0.248000000000000081,22.330187437451264998
0.249000000000000082,21.811172334048837484
0.250000000000000111,21.305122528253392034
0.251000000000000112,20.811667433666578120
0.252000000000000113,20.330440610009105740
0.253000000000000114,19.861080529909862946
0.254000000000000115,19.403231273742008511
0.255000000000000115,18.956543153960538461
0.256000000000000116,18.520673270775670716
0.257000000000000117,18.095286001320598501
0.258000000000000118,17.680053424745644008
0.259000000000000119,17.274655685894270363
0.260000000000000120,16.878781300395889531
0.261000000000000121,16.492127404148352099
0.262000000000000122,16.114399950262971117
0.263000000000000123,15.745313856611119263
0.264000000000000123,15.384593107145951407
0.265000000000000124,15.031970810180530052
0.266000000000000125,14.687189216786256551
0.267000000000000126,14.349999702436935678
0.268000000000000127,14.020162714966030393
0.269000000000000128,13.697447691831360572
0.270000000000000129,13.381632949594123971
0.271000000000000130,13.072505548420030763
0.272000000000000131,12.769861134302525230
0.273000000000000131,12.473503761592331429
0.274000000000000132,12.183245698296294890
0.275000000000000133,11.898907216482825788
0.276000000000000134,11.620316370003106243
0.277000000000000135,11.347308761607807881
0.278000000000000136,11.079727301408448525
0.279000000000000137,10.817421958503510737
0.280000000000000138,10.560249507461440643
0.281000000000000139,10.308073271226806611
0.282000000000000139,10.060762861893303821
0.283000000000000140,9.818193920667717123
0.284000000000000141,9.580247858233658320
0.285000000000000142,9.346811596612422335
0.286000000000000143,9.117777313511661319
0.287000000000000144,8.893042190050723050
0.288000000000000145,8.672508162653963737
0.289000000000000146,8.456081679811990881
0.290000000000000147,8.243673464322972322
0.291000000000000147,8.035198281545000043
0.292000000000000148,7.830574714112867873
0.293000000000000149,7.629724943501505763
0.294000000000000150,7.432574538750775339
0.295000000000000151,7.239052252604435189
0.296000000000000152,7.049089825258609388
0.297000000000000153,6.862621795862068552
0.298000000000000154,6.679585321862059111
0.299000000000000155,6.499920006245043957
0.300000000000000155,6.323567732681267373
0.301000000000000156,6.150472508545741235
0.302000000000000157,5.980580315754895793
0.303000000000000158,5.813838969329226281
0.304000000000000159,5.650197983565571569
0.305000000000000160,5.489608445679942328
0.306000000000000161,5.332022896761290376
0.307000000000000162,5.177395219859151965
0.308000000000000163,5.025680535013144379
0.309000000000000163,4.876835101019518781
0.310000000000000164,4.730816223719422453
0.311000000000000165,4.587582170585148944
0.312000000000000166,4.447092091373806788
0.313000000000000167,4.309305944612988881
0.314000000000000168,4.174184429679619335
0.315000000000000169,4.041688924231030100
0.316000000000000170,3.911781426746659740
0.317000000000000171,3.784424503939200601
0.318000000000000171,3.659581242795566514
0.319000000000000172,3.537215207010167006
0.320000000000000173,3.417290397576555616
0.321000000000000174,3.299771217307284843
0.322000000000000175,3.184622439056295828
0.323000000000000176,3.071809177423567405
0.324000000000000177,2.961296863727075568
0.325000000000000178,2.853051224033440469
0.326000000000000179,2.747038260044593283
0.327000000000000179,2.643224232644852734
0.328000000000000180,2.541575647919340319
0.329000000000000181,2.442059245461669637
0.330000000000000182,2.344641988796250853
0.331000000000000183,2.249291057747284661
0.332000000000000184,2.155973842594173018
0.333000000000000185,2.064657939860063074
0.334000000000000186,1.975311149587432480
0.335000000000000187,1.887901473961913767
0.336000000000000187,1.802397117152274575
0.337000000000000188,1.718766486241912528
0.338000000000000189,1.636978193133469262
0.339000000000000190,1.557001057315140713
0.340000000000000191,1.478804109383879517
0.341000000000000192,1.402356595226605940
0.342000000000000193,1.327627980767122740
0.343000000000000194,1.254587957192000447
0.344000000000000195,1.183206446574974757
0.345000000000000195,1.113453607824236746
0.346000000000000196,1.045299842883120833
0.347000000000000197,0.978715803119250438
0.348000000000000198,0.913672395842472396
0.349000000000000199,0.850140790896520726
0.350000000000000200,0.788092427273842100
0.351000000000000201,0.727499019707400718
0.352000000000000202,0.668332565197381268
0.353000000000000203,0.610565349434518345
0.354000000000000203,0.554169953085558831
0.355000000000000204,0.499119257909943492
0.356000000000000205,0.445386452679967348
0.357000000000000206,0.392945038879791486
0.358000000000000207,0.341768836161912282
0.359000000000000208,0.291831987542126026
0.360000000000000209,0.243108964316732845
0.361000000000000210,0.195574570688382521
0.362000000000000210,0.149203948088874216
0.363000000000000211,0.103972579189686248
0.364000000000000212,0.059856291592733868
0.365000000000000213,0.016831261195890911
0.366000000000000214,-0.025125984770617650
0.367000000000000215,-0.066038565039186148
0.368000000000000216,-0.105929241932086887
0.369000000000000217,-0.144820419320357940
0.370000000000000218,-0.182734140912753557
0.371000000000000218,-0.219692088871767888
0.372000000000000219,-0.255715582753009874
0.373000000000000220,-0.290825578763127202
0.374000000000000221,-0.325042669330681266
0.375000000000000222,-0.358387082983582239
0.376000000000000223,-0.390878684526313303
0.377000000000000224,-0.422536975509151425
0.378000000000000225,-0.453381094981471833
0.379000000000000226,-0.483429820520522413
0.380000000000000226,-0.512701569526941792
0.381000000000000227,-0.541214400777588311
0.382000000000000228,-0.568986016226440072
0.383000000000000229,-0.596033763043751219
0.384000000000000230,-0.622374635883616634
0.385000000000000231,-0.648025279370105123
0.386000000000000232,-0.673001990791739058
0.387000000000000233,-0.697320722994413389
0.388000000000000234,-0.720997087462485142
0.389000000000000234,-0.744046357578141859
0.390000000000000235,-0.766483472048875791
0.391000000000000236,-0.788323038493255468
0.392000000000000237,-0.809579337175066582
0.393000000000000238,-0.830266324876223316
0.394000000000000239,-0.850397638898776065
0.395000000000000240,-0.869986601186735209
0.396000000000000241,-0.889046222558443455
0.397000000000000242,-0.907589207040467416
0.398000000000000242,-0.925627956294270193
0.399000000000000243,-0.943174574126973697
0.400000000000000244,-0.960240871077909453
0.401000000000000245,-0.976838369072865698
0.402000000000000246,-0.992978306137983879
0.403000000000000247,-1.008671641165849397
0.404000000000000248,-1.023929058726241070
0.405000000000000249,-1.038760973914480967
0.406000000000000250,-1.053177537230419514
0.407000000000000250,-1.067188639481515766
0.408000000000000251,-1.080803916703552359
0.409000000000000252,-1.094032755092936071
0.410000000000000253,-1.106884295944678964
0.411000000000000254,-1.119367440590476770
0.412000000000000255,-1.131490855331496848
0.413000000000000256,-1.143262976360848171
0.414000000000000257,-1.154692014670731792
0.415000000000000258,-1.165785960939835553
0.416000000000000258,-1.176552590396419351
0.417000000000000259,-1.186999467653070406
0.418000000000000260,-1.197133951509138816
0.419000000000000261,-1.206963199717213664
0.420000000000000262,-1.216494173710096716
0.421000000000000263,-1.225733643285143781
0.422000000000000264,-1.234688191242736321
0.423000000000000265,-1.243364217976199004
0.424000000000000266,-1.251767946010479804
0.425000000000000266,-1.259905424487037795
0.426000000000000267,-1.267782533592800576
0.427000000000000268,-1.275404988931009509
0.428000000000000269,-1.282778345832047417
0.429000000000000270,-1.289908003602550313
0.430000000000000271,-1.296799209711119394
0.431000000000000272,-1.303457063909306601
0.432000000000000273,-1.309886522286484389
0.433000000000000274,-1.316092401257558997
0.434000000000000274,-1.322079381482450078
0.435000000000000275,-1.327852011716498470
0.436000000000000276,-1.333414712591084461
0.437000000000000277,-1.338771780323781746
0.438000000000000278,-1.343927390357593010
0.439000000000000279,-1.348885600928857453
0.440000000000000280,-1.353650356563541157
0.441000000000000281,-1.358225491501696247
0.442000000000000282,-1.362614733050101501
0.443000000000000282,-1.366821704862914988
0.444000000000000283,-1.370849930150607632
0.445000000000000284,-1.374702834817206343
0.446000000000000285,-1.378383750526130269
0.447000000000000286,-1.381895917695023623
0.448000000000000287,-1.385242488419791362
0.449000000000000288,-1.388426529328490533
0.450000000000000289,-1.391451024365408129
0.451000000000000290,-1.394318877505995369
0.452000000000000290,-1.397032915403279230
0.453000000000000291,-1.399595889966324780
0.454000000000000292,-1.402010480871580089
0.455000000000000293,-1.404279298007759191
0.456000000000000294,-1.406404883855110644
0.457000000000000295,-1.408389715799899689
0.458000000000000296,-1.410236208384918255
0.459000000000000297,-1.411946715496975591
0.460000000000000298,-1.413523532492241053
0.461000000000000298,-1.414968898260403840
0.462000000000000299,-1.416284997228622666
0.463000000000000300,-1.417473961306197738
0.464000000000000301,-1.418537871771049286
0.465000000000000302,-1.419478761098951658
0.466000000000000303,-1.420298614736567711
0.467000000000000304,-1.420999372819357953
0.468000000000000305,-1.421582931835355446
0.469000000000000306,-1.422051146235905117
0.470000000000000306,-1.422405829994456861
0.471000000000000307,-1.422648758114363643
0.472000000000000308,-1.422781668086901430
0.473000000000000309,-1.422806261300483488
0.474000000000000310,-1.422724204402146198
0.475000000000000311,-1.422537130612415934
0.476000000000000312,-1.422246640994588640
0.477000000000000313,-1.421854305679495223
0.478000000000000314,-1.421361665046772638
0.479000000000000314,-1.420770230863774852
0.480000000000000315,-1.420081487383041408
0.481000000000000316,-1.419296892399490861
0.482000000000000317,-1.418417878268244614
0.483000000000000318,-1.417445852884183122
0.484000000000000319,-1.416382200624184629
0.485000000000000320,-1.415228283253065600
0.486000000000000321,-1.413985440794213178
0.487000000000000322,-1.412654992365858675
0.488000000000000322,-1.411238236983922922
0.489000000000000323,-1.409736454332469524
0.490000000000000324,-1.408150905502600247
0.491000000000000325,-1.406482833700761992
0.492000000000000326,-1.404733464927330200
0.493000000000000327,-1.402904008626417953
0.494000000000000328,-1.400995658307700120
0.495000000000000329,-1.399009592141207126
0.496000000000000330,-1.396946973525809543
0.497000000000000330,-1.394808951632390048
0.498000000000000331,-1.392596661922293588
0.499000000000000332,-1.390311226642074960
0.500000000000000333,-1.387953755295191938
0.501000000000000334,-1.385525345091398242
0.502000000000000335,-1.383027081374689438
0.503000000000000336,-1.380460038030426606
0.504000000000000337,-1.377825277872424703
0.505000000000000338,-1.375123853010664865
0.506000000000000338,-1.372356805200346086
0.507000000000000339,-1.369525166172933517
0.508000000000000340,-1.366629957949820895
0.509000000000000341,-1.363672193139358058
0.510000000000000342,-1.360652875217703395
0.511000000000000343,-1.357572998794269292
0.512000000000000344,-1.354433549862223751
0.513000000000000345,-1.351235506034699663
0.514000000000000346,-1.347979836767299044
0.515000000000000346,-1.344667503567325451
0.516000000000000347,-1.341299460190383819
0.517000000000000348,-1.337876652824865342
0.518000000000000349,-1.334400020264723041
0.519000000000000350,-1.330870494071156873
0.520000000000000351,-1.327288998723566538
0.521000000000000352,-1.323656451760361508
0.522000000000000353,-1.319973763909936482
0.523000000000000353,-1.316241839212367370
0.524000000000000354,-1.312461575132201741
0.525000000000000355,-1.308633862662740288
0.526000000000000356,-1.304759586422231221
0.527000000000000357,-1.300839624742380796
0.528000000000000358,-1.296874849749493519
0.529000000000000359,-1.292866127438691892
0.530000000000000360,-1.288814317741458604
0.531000000000000361,-1.284720274586951927
0.532000000000000361,-1.280584845957337681
0.533000000000000362,-1.276408873937502575
0.534000000000000363,-1.272193194759425383
0.535000000000000364,-1.267938638841539678
0.536000000000000365,-1.263646030823318611
0.537000000000000366,-1.259316189595433233
0.538000000000000367,-1.254949928325637343
0.539000000000000368,-1.250548054480801863
0.540000000000000369,-1.246111369845148253
0.541000000000000369,-1.241640670535109070
0.542000000000000370,-1.237136747010886495
0.543000000000000371,-1.232600384085034806
0.544000000000000372,-1.228032360928238864
0.545000000000000373,-1.223433451072496236
0.546000000000000374,-1.218804422411895683
0.547000000000000375,-1.214146037201173201
0.548000000000000376,-1.209459052052271222
0.549000000000000377,-1.204744217929001548
0.550000000000000377,-1.200002280140052058
0.551000000000000378,-1.195233978330421110
0.552000000000000379,-1.190440046471516133
0.553000000000000380,-1.185621212849989448
0.554000000000000381,-1.180778200055467630
0.555000000000000382,-1.175911724967379168
0.556000000000000383,-1.171022498740854401
0.557000000000000384,-1.166111226792015731
0.558000000000000385,-1.161178608782574839
0.559000000000000385,-1.156225338604007558
0.560000000000000386,-1.151252104361323081
0.561000000000000387,-1.146259588356545400
0.562000000000000388,-1.141248467072001782
0.563000000000000389,-1.136219411153542413
0.564000000000000390,-1.131173085393702982
0.565000000000000391,-1.126110148714968284
0.566000000000000392,-1.121031254153147749
0.567000000000000393,-1.115937048841011636
0.568000000000000393,-1.110828173992149059
0.569000000000000394,-1.105705264885215477
0.570000000000000395,-1.100568950848583638
0.571000000000000396,-1.095419855245417740
0.572000000000000397,-1.090258595459324464
0.573000000000000398,-1.085085782880507166
0.574000000000000399,-1.079902022892584190
0.575000000000000400,-1.074707914860013158
0.576000000000000401,-1.069504052116226012
0.577000000000000401,-1.064291021952525895
0.578000000000000402,-1.059069405607697245
0.579000000000000403,-1.053839778258423676
0.580000000000000404,-1.048602709010569622
0.581000000000000405,-1.043358760891250236
0.582000000000000406,-1.038108490841832765
0.583000000000000407,-1.032852449711781917
0.584000000000000408,-1.027591182253463131
0.585000000000000409,-1.022325227117848900
0.586000000000000409,-1.017055116851172336
0.587000000000000410,-1.011781377892571721
0.588000000000000411,-1.006504530572647882
0.589000000000000412,-1.001225089113070066
0.590000000000000413,-0.995943561627113283
0.591000000000000414,-0.990660450121208846
0.592000000000000415,-0.985376250497515871
0.593000000000000416,-0.980091452557453224
0.594000000000000417,-0.974806540006243893
0.595000000000000417,-0.969521990458518723
0.596000000000000418,-0.964238275444812998
0.597000000000000419,-0.958955860419182571
0.598000000000000420,-0.953675204767715612
0.599000000000000421,-0.948396761818109058
0.600000000000000422,-0.943120978850189751
0.601000000000000423,-0.937848297107422346
0.602000000000000424,-0.932579151809402873
0.603000000000000425,-0.927313972165316747
0.604000000000000425,-0.922053181388323928
0.605000000000000426,-0.916797196710912088
0.606000000000000427,-0.911546429401217551
0.607000000000000428,-0.906301284780158367
0.608000000000000429,-0.901062162239644082
0.609000000000000430,-0.895829455261506702
0.610000000000000431,-0.890603551437468277
0.611000000000000432,-0.885384832489890194
0.612000000000000433,-0.880173674293391661
0.613000000000000433,-0.874970446897357257
0.614000000000000434,-0.869775514549229967
