# ZnO1m210BOND_BSAI1
# h[nm],U(h)[kJ/mol]
0.149999999999999994,138.444136626800798240
0.150999999999999995,136.868813866667608181
0.151999999999999996,135.493137510956387359
0.152999999999999997,134.130339141736101283
0.153999999999999998,132.723868652367343657
0.154999999999999999,131.275879384961115193
0.156000000000000000,129.808693731137566374
0.157000000000000001,128.345905774851985370
0.158000000000000002,126.904666585240008203
0.159000000000000002,125.493925746176955727
0.160000000000000003,124.115502360511499091
0.161000000000000004,122.766199314781061958
0.162000000000000005,121.440010290924277570
0.163000000000000006,120.129973636714609597
0.164000000000000007,118.829518469941334047
0.165000000000000008,117.533305190917843674
0.166000000000000009,116.237637119248077511
0.167000000000000010,114.940546251052438720
0.168000000000000010,113.641655846941006303
0.169000000000000011,112.341909187854668062
0.170000000000000012,111.043235445184024002
0.171000000000000013,109.748204775182870208
0.172000000000000014,108.459707827969992877
0.173000000000000015,107.180680868732906674
0.174000000000000016,105.913886863372653124
0.175000000000000017,104.661754973794131729
0.176000000000000018,103.426275526772059266
0.177000000000000018,102.208944184503963015
0.178000000000000019,101.010747283942606600
0.179000000000000020,99.832179704725461988
0.180000000000000021,98.673286817447916519
0.181000000000000022,97.533722770235684152
0.182000000000000023,96.412818372370026054
0.183000000000000024,95.309652966467297119
0.184000000000000025,94.223125830386848634
0.185000000000000026,93.152023739818076820
0.186000000000000026,92.095082305177967896
0.187000000000000027,91.051039547041824562
0.188000000000000028,90.018680883855097363
0.189000000000000029,88.996875276234831631
0.190000000000000030,87.984602713039890887
0.191000000000000031,86.980973549106167297
0.192000000000000032,85.985240428717389705
0.193000000000000033,84.996803668678012400
0.194000000000000034,84.015211045940418444
0.195000000000000034,83.040152951625486821
0.196000000000000035,82.071453848934098119
0.197000000000000036,81.109060918141736352
0.198000000000000037,80.153030697112910730
0.199000000000000038,79.203514438417016663
0.200000000000000039,78.260742810467789354
0.201000000000000040,77.325010475064260618
0.202000000000000041,76.396660980992436407
0.203000000000000042,75.476072325640245708
0.204000000000000042,74.563643455712451669
0.205000000000000043,73.659781905242283528
0.206000000000000044,72.764892704757670572
0.207000000000000045,71.879368639821265674
0.208000000000000046,71.003581890044955571
0.209000000000000047,70.137877040666822381
0.210000000000000048,69.282565427298834493
0.211000000000000049,68.437920749828677458
0.212000000000000050,67.604175872956673743
0.213000000000000050,66.781520717726920111
0.214000000000000051,65.970101139925489520
0.215000000000000052,65.170018686669010322
0.216000000000000053,64.381331121228626557
0.217000000000000054,63.604053607520697255
0.218000000000000055,62.838160449200245239
0.219000000000000056,62.083587283426950876
0.220000000000000057,61.340233635709260795
0.221000000000000058,60.607965749404968392
0.222000000000000058,59.886619611148930176
0.223000000000000059,59.176004101432681637
0.224000000000000060,58.475904207559175063
0.225000000000000061,57.786084244065705207
0.226000000000000062,57.106291033314334982
0.227000000000000063,56.436257006185883256
0.228000000000000064,55.775703189609053823
0.229000000000000065,55.124342053952773313
0.230000000000000066,54.481880199083057903
0.231000000000000066,53.848020863114108181
0.232000000000000067,53.222466242570114048
0.233000000000000068,52.604919616826485651
0.234000000000000069,51.995087273335897748
0.235000000000000070,51.392680233289489422
0.236000000000000071,50.797415780047053602
0.237000000000000072,50.209018794921689732
0.238000000000000073,49.627222906761247145
0.239000000000000073,49.051771463264280726
0.240000000000000074,48.482418333136763522
0.241000000000000075,47.918928549072354883
0.242000000000000076,47.361078802158914414
0.243000000000000077,46.808657798703379171
0.244000000000000078,46.261466490662670026
0.245000000000000079,45.719318190893233123
0.246000000000000080,45.182038584313325202
0.247000000000000081,44.649465645834673921
0.248000000000000081,44.121449475583801814
0.249000000000000082,43.597852061518722167
0.250000000000000111,43.078546979070509337
0.251000000000000112,42.563419036916641858
0.252000000000000113,42.052363877438146744
0.253000000000000114,41.545287539836863289
0.254000000000000115,41.042105993302911315
0.255000000000000115,40.542744647033785554
0.256000000000000116,40.047137843323525885
0.257000000000000117,39.555228339368881052
0.258000000000000118,39.066966782884200882
0.259000000000000119,38.582311186082307586
0.260000000000000120,38.101226402066608046
0.261000000000000121,37.623683607195147260
0.262000000000000122,37.149659792519251766
0.263000000000000123,36.679137266969846110
0.264000000000000123,36.212103174565093866
0.265000000000000124,35.748549027541898226
0.266000000000000125,35.288470256972331640
0.267000000000000126,34.831865782113517582
0.268000000000000127,34.378737599453366158
0.269000000000000128,33.929090392157647216
0.270000000000000129,33.482931160390435821
0.271000000000000130,33.040268872772301734
0.272000000000000131,32.601114139056292629
0.273000000000000131,32.165478903938314659
0.274000000000000132,31.733376161776941871
0.275000000000000133,31.304819691873763787
0.276000000000000134,30.879823813860024728
0.277000000000000135,30.458403162646408902
0.278000000000000136,30.040572482317976721
0.279000000000000137,29.626346438295598773
0.280000000000000138,29.215739447037741172
0.281000000000000139,28.808765522518406499
0.282000000000000139,28.405438138690811911
0.283000000000000140,28.005770107128377333
0.284000000000000141,27.609773469024343484
0.285000000000000142,27.217459400729040908
0.286000000000000143,26.828838132006875838
0.287000000000000144,26.443918876204001833
0.288000000000000145,26.062709771530940372
0.289000000000000146,25.685217832682337047
0.290000000000000147,25.311448912035807268
0.291000000000000147,24.941407669696413762
0.292000000000000148,24.575097551678044994
0.293000000000000149,24.212520775541158002
0.294000000000000150,23.853678322834841907
0.295000000000000151,23.498569937721043743
0.296000000000000152,23.147194131189088750
0.297000000000000153,22.799548190299894657
0.298000000000000154,22.455628191929356774
0.299000000000000155,22.115429020511850666
0.300000000000000155,21.778944389314570884
0.301000000000000156,21.446166864803814178
0.302000000000000157,21.117087893692875866
0.303000000000000158,20.791697832290278569
0.304000000000000159,20.469985977794173948
0.305000000000000160,20.151940601205421189
0.306000000000000161,19.837548981557635130
0.307000000000000162,19.526797441186666049
0.308000000000000163,19.219671381785623510
0.309000000000000163,18.916155321013857105
0.310000000000000164,18.616232929449235911
0.311000000000000165,18.319887067693393590
0.312000000000000166,18.027099823458311079
0.313000000000000167,17.737852548480411485
0.314000000000000168,17.452125895125234933
0.315000000000000169,17.169899852561140818
0.316000000000000170,16.891153782395214478
0.317000000000000171,16.615866453678115988
0.318000000000000171,16.344016077197323966
0.319000000000000172,16.075580338989606588
0.320000000000000173,15.810536433014727109
0.321000000000000174,15.548861092941999473
0.322000000000000175,15.290530623010511135
0.323000000000000176,15.035520927932282120
0.324000000000000177,14.783807541814912412
0.325000000000000178,14.535365656087559927
0.326000000000000179,14.290170146419896469
0.327000000000000179,14.048195598629652281
0.328000000000000180,13.809416333579203950
0.329000000000000181,13.573806431066188338
0.330000000000000182,13.341339752717189526
0.331000000000000183,13.111989963896855116
0.332000000000000184,12.885730554648139545
0.333000000000000185,12.662534859681871424
0.334000000000000186,12.442376077436119175
0.335000000000000187,12.225227288227957345
0.336000000000000187,12.011061471521466970
0.337000000000000188,11.799851522337826637
0.338000000000000189,11.591570266833645775
0.339000000000000190,11.386190477075011529
0.340000000000000191,11.183684885035230394
0.341000000000000192,10.984026195844707630
0.342000000000000193,10.787187100321302680
0.343000000000000194,10.593140286810065476
0.344000000000000195,10.401858452360922769
0.345000000000000195,10.213314313272556788
0.346000000000000196,10.027480615030725630
0.347000000000000197,9.844330141668589107
0.348000000000000198,9.663835724576275155
0.349000000000000199,9.485970250786209590
0.350000000000000200,9.310706670760300341
0.351000000000000201,9.138018005704029889
0.352000000000000202,8.967877354432262749
0.353000000000000203,8.800257899810349116
0.354000000000000203,8.635132914793533843
0.355000000000000204,8.472475768086871639
0.356000000000000205,8.312259929447010975
0.357000000000000206,8.154458974646114910
0.358000000000000207,7.999046590117818489
0.359000000000000208,7.845996577303885999
0.360000000000000209,7.695282856719403597
0.361000000000000210,7.546879471753840107
0.362000000000000210,7.400760592224078671
0.363000000000000211,7.256900517694960584
0.364000000000000212,7.115273680582018478
0.365000000000000213,6.975854649050292622
0.366000000000000214,6.838618129722370043
0.367000000000000215,6.703538970208097858
0.368000000000000216,6.570592161467578407
0.369000000000000217,6.439752840018573288
0.370000000000000218,6.310996289998530351
0.371000000000000218,6.184297945091074666
0.372000000000000219,6.059633390325963376
0.373000000000000220,5.936978363760955446
0.374000000000000221,5.816308758053637007
0.375000000000000222,5.697600621930631881
0.376000000000000223,5.580830161560821345
0.377000000000000224,5.465973741839274425
0.378000000000000225,5.353007887587577507
0.379000000000000226,5.241909284676234293
0.380000000000000226,5.132654781073983763
0.381000000000000227,5.025221387828933572
0.382000000000000228,4.919586279985611377
0.383000000000000229,4.815726797442016149
0.384000000000000230,4.713620445750231980
0.385000000000000231,4.613244896863855971
0.386000000000000232,4.514577989835429683
0.387000000000000233,4.417597731466362809
0.388000000000000234,4.322282296912117516
0.389000000000000234,4.228610030244710494
0.390000000000000235,4.136559444974666988
0.391000000000000236,4.046109224534272464
0.392000000000000237,3.957238222723705512
0.393000000000000238,3.869925464121611647
0.394000000000000239,3.784150144461396970
0.395000000000000240,3.699891630974427414
0.396000000000000241,3.617129462701156761
0.397000000000000242,3.535843350771158189
0.398000000000000242,3.456013178652774798
0.399000000000000243,3.377619002373261736
0.400000000000000244,3.300641050709825830
0.401000000000000245,3.225059725352259932
0.402000000000000246,3.150855601037661380
0.403000000000000247,3.078009425657460607
0.404000000000000248,3.006502120337297690
0.405000000000000249,2.936314779489916926
0.406000000000000250,2.867428670841442706
0.407000000000000250,2.799825235431124160
0.408000000000000251,2.733486087584845681
0.409000000000000252,2.668393014862524559
0.410000000000000253,2.604527977979488540
0.411000000000000254,2.541873110702035810
0.412000000000000255,2.480410719717246693
0.413000000000000256,2.420123284477095460
0.414000000000000257,2.360993457017088737
0.415000000000000258,2.303004061749323039
0.416000000000000258,2.246138095230281628
0.417000000000000259,2.190378725903248558
0.418000000000000260,2.135709293815593490
0.419000000000000261,2.082113310310914400
0.420000000000000262,2.029574457696250889
0.421000000000000263,1.978076588884382758
0.422000000000000264,1.927603727011446555
0.423000000000000265,1.878140065029937578
0.424000000000000266,1.829669965277255006
0.425000000000000266,1.782177959020036839
0.426000000000000267,1.735648745974342599
0.427000000000000268,1.690067193801996215
0.428000000000000269,1.645418337583229418
0.429000000000000270,1.601687379265868127
0.430000000000000271,1.558859687091339818
0.431000000000000272,1.516920794997673294
0.432000000000000273,1.475856401999882106
0.433000000000000274,1.435652371547904593
0.434000000000000274,1.396294730862474909
0.435000000000000275,1.357769670249217464
0.436000000000000276,1.320063542391289868
0.437000000000000277,1.283162861620928741
0.438000000000000278,1.247054303170265444
0.439000000000000279,1.211724702401741016
0.440000000000000280,1.177161054018556197
0.441000000000000281,1.143350511255532664
0.442000000000000282,1.110280385050744334
0.443000000000000282,1.077938143198431620
0.444000000000000283,1.046311409483508870
0.445000000000000284,1.015387962798212751
0.446000000000000285,0.985155736241263291
0.447000000000000286,0.955602816199977334
0.448000000000000287,0.926717441415886078
0.449000000000000288,0.898488002034198985
0.450000000000000289,0.870903038637695359
0.451000000000000290,0.843951241265463614
0.452000000000000290,0.817621448416939622
0.453000000000000291,0.791902646041843350
0.454000000000000292,0.766783966516364379
0.455000000000000293,0.742254687606193286
0.456000000000000294,0.718304231416855954
0.457000000000000295,0.694922163331805676
0.458000000000000296,0.672098190938870799
0.459000000000000297,0.649822162945447035
0.460000000000000298,0.628084068083010982
0.461000000000000298,0.606874034001404716
0.462000000000000299,0.586182326153404709
0.463000000000000300,0.565999346670092995
0.464000000000000301,0.546315633227461794
0.465000000000000302,0.527121857904811142
0.466000000000000303,0.508408826035390837
0.467000000000000304,0.490167475049735124
0.468000000000000305,0.472388873312266533
0.469000000000000306,0.455064218951563126
0.470000000000000306,0.438184838684739397
0.471000000000000307,0.421742186636529237
0.472000000000000308,0.405727843153406653
0.473000000000000309,0.390133513613235228
0.474000000000000310,0.374951027230948808
0.475000000000000311,0.360172335860628190
0.476000000000000312,0.345789512794482889
0.477000000000000313,0.331794751559080503
0.478000000000000314,0.318180364709379604
0.479000000000000314,0.304938782620819082
0.480000000000000315,0.292062552280031418
0.481000000000000316,0.279544336074457112
0.482000000000000317,0.267376910581352822
0.483000000000000318,0.255553165356495415
0.484000000000000319,0.244066101723024731
0.485000000000000320,0.232908831560784180
0.486000000000000321,0.222074576096482235
0.487000000000000322,0.211556664695063901
0.488000000000000322,0.201348533652695949
0.489000000000000323,0.191443724991550018
0.490000000000000324,0.181835885256882129
0.491000000000000325,0.172518764316631545
0.492000000000000326,0.163486214163895360
0.493000000000000327,0.154732187722547321
0.494000000000000328,0.146250737656353436
0.495000000000000329,0.138036015181801586
0.496000000000000330,0.130082268885038321
0.497000000000000330,0.122383843543001136
0.498000000000000331,0.114935178949266303
0.499000000000000332,0.107730808744605985
0.500000000000000333,0.100765359252666026
0.501000000000000334,0.094033548321006327
0.502000000000000335,0.087530184167610964
0.503000000000000336,0.081250164233244229
0.504000000000000337,0.075188474039745753
0.505000000000000338,0.069340186054558120
0.506000000000000338,0.063700458561632534
0.507000000000000339,0.058264534538930032
0.508000000000000340,0.053027740542732668
0.509000000000000341,0.047985485598834796
0.510000000000000342,0.043133260100949956
0.511000000000000343,0.038466634716318657
0.512000000000000344,0.033981259298828781
0.513000000000000345,0.029672861809702255
0.514000000000000346,0.025537247245885242
0.515000000000000346,0.021570296576356052
0.516000000000000347,0.017767965686409082
0.517000000000000348,0.014126284330036465
0.518000000000000349,0.010641355090583527
0.519000000000000350,0.007309352349684639
0.520000000000000351,0.004126521264737360
0.521000000000000352,0.001089176754786925
0.522000000000000353,-0.001806297504830545
0.523000000000000353,-0.004563450079226561
0.524000000000000354,-0.007185762761859471
0.525000000000000355,-0.009676651553593429
0.526000000000000356,-0.012039467632791911
0.527000000000000357,-0.014277498316474912
0.528000000000000358,-0.016393968012358130
0.529000000000000359,-0.018392039161869444
0.530000000000000360,-0.020274813173932271
0.531000000000000361,-0.022045331349637643
0.532000000000000361,-0.023706575797640149
0.533000000000000362,-0.025261470340333481
0.534000000000000363,-0.026712881410693123
0.535000000000000364,-0.028063618939882316
0.536000000000000365,-0.029316437235453786
0.537000000000000366,-0.030474035850286539
0.538000000000000367,-0.031539060442082413
0.539000000000000368,-0.032514103623610603
0.540000000000000369,-0.033401705803487711
0.541000000000000369,-0.034204356017693380
0.542000000000000370,-0.034924492751638489
0.543000000000000371,-0.035564504752957027
0.544000000000000372,-0.036126731834920302
0.545000000000000373,-0.036613465670557011
0.546000000000000374,-0.037026950577442340
0.547000000000000375,-0.037369384293218011
0.548000000000000376,-0.037642918741855345
0.549000000000000377,-0.037849660790662834
0.550000000000000377,-0.037991672998137174
0.551000000000000378,-0.038070974352560016
0.552000000000000379,-0.038089541001554060
0.553000000000000380,-0.038049306972455607
0.554000000000000381,-0.037952164883655368
0.555000000000000382,-0.037799966646942330
0.556000000000000383,-0.037594524160804256
0.557000000000000384,-0.037337609994881990
0.558000000000000385,-0.037030958065445707
0.559000000000000385,-0.036676264302100303
0.560000000000000386,-0.036275187305690806
0.561000000000000387,-0.035829348997458300
0.562000000000000388,-0.035340335259519275
0.563000000000000389,-0.034809696566753777
0.564000000000000390,-0.034238948610091705
0.565000000000000391,-0.033629572911314146
0.566000000000000392,-0.032983017429388459
0.567000000000000393,-0.032300697158466882
0.568000000000000393,-0.031583994717506912
0.569000000000000394,-0.030834260931657011
0.570000000000000395,-0.030052815405476729
0.571000000000000396,-0.029240947087974589
0.572000000000000397,-0.028399914829652075
0.573000000000000398,-0.027530947931490746
0.574000000000000399,-0.026635246686074886
0.575000000000000400,-0.025713982910821699
0.576000000000000401,-0.024768300473424300
0.577000000000000401,-0.023799315809629362
0.578000000000000402,-0.022808118433325742
0.579000000000000403,-0.021795771439057199
0.580000000000000404,-0.020763311997105703
0.581000000000000405,-0.019711751841056370
0.582000000000000406,-0.018642077748097653
0.583000000000000407,-0.017555252011977072
0.584000000000000408,-0.016452212908792528
0.585000000000000409,-0.015333875155651933
0.586000000000000409,-0.014201130362237580
0.587000000000000410,-0.013054847475465958
0.588000000000000411,-0.011895873217142616
0.589000000000000412,-0.010725032514892052
0.590000000000000413,-0.009543128926242572
0.591000000000000414,-0.008350945056077353
0.592000000000000415,-0.007149242967480263
0.593000000000000416,-0.005938764586023626
0.594000000000000417,-0.004720232097604971
0.595000000000000417,-0.003494348339959119
0.596000000000000418,-0.002261797187753239
0.597000000000000419,-0.001023243931574658
0.598000000000000420,0.000220664349348298
0.599000000000000421,0.001469298420430282
0.600000000000000422,0.002722046531055944
0.601000000000000423,0.003978314059858901
0.602000000000000424,0.005237523165818886
0.603000000000000425,0.006499112445171473
0.604000000000000425,0.007762536594056924
0.605000000000000426,0.009027266076771023
0.606000000000000427,0.010292786799586062
0.607000000000000428,0.011558599790147228
0.608000000000000429,0.012824220882163026
0.609000000000000430,0.014089180405596790
0.610000000000000431,0.015353022882027811
0.611000000000000432,0.016615306725294661
0.612000000000000433,0.017875603947269367
0.613000000000000433,0.019133499868691371
0.614000000000000434,0.020388592835019682
0.615000000000000435,0.021640493937227400
0.616000000000000436,0.022888826737490053
0.617000000000000437,0.024133226999605781
