# ZnO1m210BOND_BSAI22
# h[nm],U(h)[kJ/mol]
0.149999999999999994,156.979649023482949133
0.150999999999999995,155.528973933938601704
0.151999999999999996,153.859283531975847836
0.152999999999999997,152.091565180936868273
0.153999999999999998,150.289499733427703632
0.154999999999999999,148.486179669153756322
0.156000000000000000,146.698554895159020361
0.157000000000000001,144.935018749190646759
0.158000000000000002,143.199299883532432887
0.159000000000000002,141.492452016643682100
0.160000000000000003,139.813914001724242553
0.161000000000000004,138.162138745322124578
0.162000000000000005,136.535026569981994271
0.163000000000000006,134.930260984820762360
0.164000000000000007,133.345578975764340157
0.165000000000000008,131.778981153682195782
0.166000000000000009,130.228880010671929313
0.167000000000000010,128.694186084979207862
0.168000000000000010,127.174336091038099994
0.169000000000000011,125.669271140729506442
0.170000000000000012,124.179375904928633645
0.171000000000000013,122.705390705798123463
0.172000000000000014,121.248308298130297089
0.173000000000000015,119.809265866957929347
0.174000000000000016,118.389440931394616996
0.175000000000000017,116.989957740939416908
0.176000000000000018,115.611808640513032742
0.177000000000000018,114.255792942994887085
0.178000000000000019,112.922474190094277446
0.179000000000000020,111.612155354008720565
0.180000000000000021,110.324870541463724294
0.181000000000000022,109.060391087874421601
0.182000000000000023,107.818243534717495891
0.183000000000000024,106.597736821269450047
0.184000000000000025,105.397996043795686205
0.185000000000000026,104.218000294061511113
0.186000000000000026,103.056622342215021604
0.187000000000000027,101.912668240129647756
0.188000000000000028,100.784915260160033768
0.189000000000000029,99.672146927308304498
0.190000000000000030,98.573184232332735633
0.191000000000000031,97.486912416888628741
0.192000000000000032,96.412302991379874584
0.193000000000000033,95.348430877445906617
0.194000000000000034,94.294486758424127970
0.195000000000000034,93.249784873383774197
0.196000000000000035,92.213766605657866648
0.197000000000000036,91.186000298486149518
0.198000000000000037,90.166177782329143042
0.199000000000000038,89.154108124821988213
0.200000000000000039,88.149709119448289130
0.201000000000000040,87.152997016921517570
0.202000000000000041,86.164074977785247711
0.203000000000000042,85.183120689341876641
0.204000000000000042,84.210373547746911527
0.205000000000000043,83.246121759597372147
0.206000000000000044,82.290689668805455881
0.207000000000000045,81.344425565800435152
0.208000000000000046,80.407690188581497637
0.209000000000000047,79.480846079959093231
0.210000000000000048,78.564247923285435604
0.211000000000000049,77.658233940637018122
0.212000000000000050,76.763118403115484512
0.213000000000000050,75.879185272832955889
0.214000000000000051,75.006682970257173793
0.215000000000000052,74.145820238808155977
0.216000000000000053,73.296763060730455663
0.217000000000000054,72.459632564060797222
0.218000000000000055,71.634503849669869169
0.219000000000000056,70.821405659559445667
0.220000000000000057,70.020320802498886792
0.221000000000000058,69.231187250357479002
0.222000000000000058,68.453899817793484317
0.223000000000000059,67.688312338985639371
0.224000000000000060,66.934240257537553020
0.225000000000000061,66.191463549276747358
0.226000000000000062,65.459729902154052184
0.227000000000000063,64.738758082604974220
0.228000000000000064,64.028241423357371787
0.229000000000000065,63.327851373588124773
0.230000000000000066,62.637241058394394599
0.231000000000000066,61.956048800622070871
0.232000000000000067,61.283901564083500091
0.233000000000000068,60.620418283006436866
0.234000000000000069,59.965213048120652672
0.235000000000000070,59.317898125052785474
0.236000000000000071,58.678086785625112043
0.237000000000000072,58.045395937211843318
0.238000000000000073,57.419448539481777516
0.239000000000000073,56.799875801640872908
0.240000000000000074,56.186319156682564824
0.241000000000000075,55.578432012162821252
0.242000000000000076,54.975881279655403944
0.243000000000000077,54.378348687321121702
0.244000000000000078,53.785531881968040580
0.245000000000000079,53.197145328600562664
0.246000000000000080,52.612921016784682138
0.247000000000000081,52.032608984210625636
0.248000000000000081,51.455977668639796718
0.249000000000000082,50.882814100004495117
0.250000000000000111,50.312923944806406951
0.251000000000000112,49.746131415158821198
0.252000000000000113,49.182279054857467315
0.253000000000000114,48.621227414768434016
0.254000000000000115,48.062854629605247681
0.255000000000000115,47.507055907851807319
0.256000000000000116,46.953742946188000928
0.257000000000000117,46.402843279307113278
0.258000000000000118,45.854299575492234453
0.259000000000000119,45.308068887754963328
0.260000000000000120,44.764121869745892468
0.261000000000000121,44.222441965032352584
0.262000000000000122,43.683024577713652548
0.263000000000000123,43.145876231715881488
0.264000000000000123,42.611013725482884240
0.265000000000000124,42.078463288165288247
0.266000000000000125,41.548259742806855854
0.267000000000000126,41.020445681445934838
0.268000000000000127,40.495070656486802818
0.269000000000000128,39.972190392160413808
0.270000000000000129,39.451866019382336503
0.271000000000000130,38.934163336833591984
0.272000000000000131,38.419152100636679847
0.273000000000000131,37.906905344574866490
0.274000000000000132,37.397498732408564592
0.275000000000000133,36.891009943478771049
0.276000000000000134,36.387518092451500706
0.277000000000000135,35.887103183752081748
0.278000000000000136,35.389845600959141336
0.279000000000000137,34.895825631176549564
0.280000000000000138,34.405123024177918012
0.281000000000000139,33.917816585915737448
0.282000000000000139,33.433983805812076184
0.283000000000000140,32.953700517092329392
0.284000000000000141,32.477040589289927652
0.285000000000000142,32.004075651936140900
0.286000000000000143,31.534874848353034338
0.287000000000000144,31.069504618388911865
0.288000000000000145,30.608028508872216378
0.289000000000000146,30.150507010511233830
0.290000000000000147,29.696997419930596607
0.291000000000000147,29.247553725512467793
0.292000000000000148,28.802226515696332854
0.293000000000000149,28.361062908388667836
0.294000000000000150,27.924106500138446307
0.295000000000000151,27.491397333747677578
0.296000000000000152,27.062971883005523921
0.297000000000000153,26.638863053260628533
0.298000000000000154,26.219100196576185624
0.299000000000000155,25.803709140247939047
0.300000000000000155,25.392712227503555056
0.301000000000000156,24.986128369243846947
0.302000000000000157,24.583973105729782560
0.303000000000000158,24.186258677165927367
0.304000000000000159,23.792994102178035121
0.305000000000000160,23.404185263230694147
0.306000000000000161,23.019834998080401789
0.307000000000000162,22.639943196408090387
0.308000000000000163,22.264506900824557079
0.309000000000000163,21.893520411490818844
0.310000000000000164,21.526975393643624557
0.311000000000000165,21.164860987363322664
0.312000000000000166,20.807163918967880534
0.313000000000000167,20.453868613461629877
0.314000000000000168,20.104957307511178044
0.315000000000000169,19.760410162463120542
0.316000000000000170,19.420205376959138732
0.317000000000000171,19.084319298743103843
0.318000000000000171,18.752726535292570276
0.319000000000000172,18.425400062942660639
0.320000000000000173,18.102311334204845394
0.321000000000000174,17.783430383015407017
0.322000000000000175,17.468725927679138010
0.323000000000000176,17.158165471303060912
0.324000000000000177,16.851715399542083418
0.325000000000000178,16.549341075504521825
0.326000000000000179,16.251006931689207846
0.327000000000000179,15.956676558848723602
0.328000000000000180,15.666312791693993489
0.329000000000000181,15.379877791375161422
0.330000000000000182,15.097333124691592943
0.331000000000000183,14.818639840000404462
0.332000000000000184,14.543758539808328223
0.333000000000000185,14.272649450045793884
0.334000000000000186,14.005272486034559876
0.335000000000000187,13.741587315172244743
0.336000000000000187,13.481553416367173526
0.337000000000000188,13.225130136266866288
0.338000000000000189,12.972276742331473542
0.339000000000000190,12.722952472811147828
0.340000000000000191,12.477116583693053542
0.341000000000000192,12.234728392689353527
0.342000000000000193,11.995747320342378117
0.343000000000000194,11.760132928327639235
0.344000000000000195,11.527844955039027397
0.345000000000000195,11.298843348542877862
0.346000000000000196,11.073088296990777124
0.347000000000000197,10.850540256582018372
0.348000000000000198,10.631159977168451292
0.349000000000000199,10.414908525594997357
0.350000000000000200,10.201747306869666687
0.351000000000000201,9.991638083256823677
0.352000000000000202,9.784542991387317201
0.353000000000000203,9.580424557478259828
0.354000000000000203,9.379245710754279486
0.355000000000000204,9.180969795161209035
0.356000000000000205,8.985560579461434827
0.357000000000000206,8.792982265798425345
0.358000000000000207,8.603199496816687386
0.359000000000000208,8.416177361420896119
0.360000000000000209,8.231881399256002041
0.361000000000000210,8.050277603988236663
0.362000000000000210,7.871332425464070859
0.363000000000000211,7.695012770822344805
0.364000000000000212,7.521286004631986266
0.365000000000000213,7.350119948125417579
0.366000000000000214,7.181482877595125380
0.367000000000000215,7.015343522018480549
0.368000000000000216,6.851671059973012845
0.369000000000000217,6.690435115902273466
0.370000000000000218,6.531605755789283485
0.371000000000000218,6.375153482292634344
0.372000000000000219,6.221049229397246805
0.373000000000000220,6.069264356629632928
0.374000000000000221,5.919770642885048062
0.375000000000000222,5.772540279911475558
0.376000000000000223,5.627545865492790789
0.377000000000000224,5.484760396371655133
0.378000000000000225,5.344157260949952359
0.379000000000000226,5.205710231802764376
0.380000000000000226,5.069393458039348488
0.381000000000000227,4.935181457543014183
0.382000000000000228,4.803049109119293725
0.383000000000000229,4.672971644580260708
0.384000000000000230,4.544924640790709347
0.385000000000000231,4.418884011700217940
0.386000000000000232,4.294826000383479503
0.387000000000000233,4.172727171109277933
0.388000000000000234,4.052564401457381393
0.389000000000000234,3.934314874500619563
0.390000000000000235,3.817956071068212331
0.391000000000000236,3.703465762104979575
0.392000000000000237,3.590822001139627240
0.393000000000000238,3.480003116874102798
0.394000000000000239,3.370987705904845200
0.395000000000000240,3.263754625585459479
0.396000000000000241,3.158282987039395806
0.397000000000000242,3.054552148330114569
0.398000000000000242,2.952541707795211412
0.399000000000000243,2.852231497550202111
0.400000000000000244,2.753601577166510772
0.401000000000000245,2.656632227527700785
0.402000000000000246,2.561303944867141524
0.403000000000000247,2.467597434989295291
0.404000000000000248,2.375493607676628205
0.405000000000000249,2.284973571283089644
0.406000000000000250,2.196018627514846333
0.407000000000000250,2.108610266398111222
0.408000000000000251,2.022730161433677232
0.409000000000000252,1.938360164937172669
0.410000000000000253,1.855482303563563917
0.411000000000000254,1.774078774014214321
0.412000000000000255,1.694131938924344549
0.413000000000000256,1.615624322928304490
0.414000000000000257,1.538538608900076099
0.415000000000000258,1.462857634365770876
0.416000000000000258,1.388564388085024248
0.417000000000000259,1.315642006797647978
0.418000000000000260,1.244073772131971234
0.419000000000000261,1.173843107670895725
0.420000000000000262,1.104933576171833964
0.421000000000000263,1.037328876936209232
0.422000000000000264,0.971012843324508546
0.423000000000000265,0.905969440412376814
0.424000000000000266,0.842182762783484806
0.425000000000000266,0.779637032454732593
0.426000000000000267,0.718316596929235773
0.427000000000000268,0.658205927372657817
0.428000000000000269,0.599289616908376344
0.429000000000000270,0.541552379026899788
0.430000000000000271,0.484979046105138090
0.431000000000000272,0.429554568030910855
0.432000000000000273,0.375264010928372915
0.433000000000000274,0.322092555979862416
0.434000000000000274,0.270025498339801717
0.435000000000000275,0.219048246136408498
0.436000000000000276,0.169146319556890495
0.437000000000000277,0.120305350011981130
0.438000000000000278,0.072511079375717324
0.439000000000000279,0.025749359296375673
0.440000000000000280,-0.019993849425332066
0.441000000000000281,-0.064732477394663215
0.442000000000000282,-0.108480347121710730
0.443000000000000282,-0.151251173464280519
0.444000000000000283,-0.193058564018510098
0.445000000000000284,-0.233916019460590346
0.446000000000000285,-0.273836933843076391
0.447000000000000286,-0.312834594849082825
0.448000000000000287,-0.350922184007461557
0.449000000000000288,-0.388112776872198417
0.450000000000000289,-0.424419343168883245
0.451000000000000290,-0.459854746911214807
0.452000000000000290,-0.494431746490385404
0.453000000000000291,-0.528162994739865610
0.454000000000000292,-0.561061038978336701
0.455000000000000293,-0.593138321033190530
0.456000000000000294,-0.624407177246937728
0.457000000000000295,-0.654879838468943931
0.458000000000000296,-0.684568430034505626
0.459000000000000297,-0.713484971733517770
0.460000000000000298,-0.741641377770638210
0.461000000000000298,-0.769049456718902791
0.462000000000000299,-0.795720911468582925
0.463000000000000300,-0.821667339172998390
0.464000000000000301,-0.846900231192990072
0.465000000000000302,-0.871430973041498191
0.466000000000000303,-0.895270844329814408
0.467000000000000304,-0.918431018716864833
0.468000000000000305,-0.940922563862764960
0.469000000000000306,-0.962756441387961681
0.470000000000000306,-0.983943506839115356
0.471000000000000307,-1.004494509662691826
0.472000000000000308,-1.024420093187395020
0.473000000000000309,-1.043730794616340551
0.474000000000000310,-1.062437045029789973
0.475000000000000311,-1.080549169399322107
0.476000000000000312,-1.098077386614120909
0.477000000000000313,-1.115031809520153683
0.478000000000000314,-1.131422444972711938
0.479000000000000314,-1.147259193903059193
0.480000000000000315,-1.162551851399536540
0.481000000000000316,-1.177310106803708845
0.482000000000000317,-1.191543543821860229
0.483000000000000318,-1.205261640652276478
0.484000000000000319,-1.218473770128595035
0.485000000000000320,-1.231189199879449303
0.486000000000000321,-1.243417092504722765
0.487000000000000322,-1.255166505768547713
0.488000000000000322,-1.266446392809116972
0.489000000000000323,-1.277265602365603048
0.490000000000000324,-1.287632879022078125
0.491000000000000325,-1.297556863468557697
0.492000000000000326,-1.307046092779156732
0.493000000000000327,-1.316109000707359700
0.494000000000000328,-1.324753917998294117
0.495000000000000329,-1.332989072718012702
0.496000000000000330,-1.340822590599536346
0.497000000000000330,-1.348262495405769368
0.498000000000000331,-1.355316709308796774
0.499000000000000332,-1.361993053285726507
0.500000000000000333,-1.368299247530689655
0.501000000000000334,-1.374242911882746609
0.502000000000000335,-1.379831566269664966
0.503000000000000336,-1.385072631167102220
0.504000000000000337,-1.389973428073095540
0.505000000000000338,-1.394541179997467406
0.506000000000000338,-1.398783011965920142
0.507000000000000339,-1.402705951538516072
0.508000000000000340,-1.406316929342142252
0.509000000000000341,-1.409622779616813260
0.510000000000000342,-1.412630240775250234
0.511000000000000343,-1.415345955975622516
0.512000000000000344,-1.417776473706908957
0.513000000000000345,-1.419928248386640224
0.514000000000000346,-1.421807640970665476
0.515000000000000346,-1.423420919574479360
0.516000000000000347,-1.424774260105837520
0.517000000000000348,-1.425873746908254969
0.518000000000000349,-1.426725373414979625
0.519000000000000350,-1.427335042813135058
0.520000000000000351,-1.427708568717527271
0.521000000000000352,-1.427851675853928359
0.522000000000000353,-1.427770000751217072
0.523000000000000353,-1.427469092442206433
0.524000000000000354,-1.426954413172647707
0.525000000000000355,-1.426231339118092745
0.526000000000000356,-1.425305161108170182
0.527000000000000357,-1.424181085358007470
0.528000000000000358,-1.422864234206284273
0.529000000000000359,-1.421359646859708725
0.530000000000000360,-1.419672280143346565
0.531000000000000361,-1.417807009256650819
0.532000000000000361,-1.415768628534665563
0.533000000000000362,-1.413561852214127113
0.534000000000000363,-1.411191315204074037
0.535000000000000364,-1.408661573860664040
0.536000000000000365,-1.405977106765762707
0.537000000000000366,-1.403142315509083415
0.538000000000000367,-1.400161525473394120
0.539000000000000368,-1.397038986622645362
0.540000000000000369,-1.393778874292493253
0.541000000000000369,-1.390385289983103512
0.542000000000000370,-1.386862262153695902
0.543000000000000371,-1.383213747018749107
0.544000000000000372,-1.379443629345391553
0.545000000000000373,-1.375555723251792983
0.546000000000000374,-1.371553773006173760
0.547000000000000375,-1.367441453826231612
0.548000000000000376,-1.363222372678660754
0.549000000000000377,-1.358900069078485151
0.550000000000000377,-1.354478015888010090
0.551000000000000378,-1.349959620114995484
0.552000000000000379,-1.345348223709980306
0.553000000000000380,-1.340647104362345132
0.554000000000000381,-1.335859476294952941
0.555000000000000382,-1.330988491057184531
0.556000000000000383,-1.326037238315971312
0.557000000000000384,-1.321008746644855014
0.558000000000000385,-1.315905984310579147
0.559000000000000385,-1.310731860057234632
0.560000000000000386,-1.305489223887662975
0.561000000000000387,-1.300180867841880694
0.562000000000000388,-1.294809526772409791
0.563000000000000389,-1.289377879116309078
0.564000000000000390,-1.283888547663712743
0.565000000000000391,-1.278344100322705623
0.566000000000000392,-1.272747050880371544
0.567000000000000393,-1.267099859759922342
0.568000000000000393,-1.261404934773606934
0.569000000000000394,-1.255664631871383774
0.570000000000000395,-1.249881255885196829
0.571000000000000396,-1.244057061268625031
0.572000000000000397,-1.238194252831909647
0.573000000000000398,-1.232294986472114440
0.574000000000000399,-1.226361369898385068
0.575000000000000400,-1.220395463352140997
0.576000000000000401,-1.214399280322079333
0.577000000000000401,-1.208374788253995025
0.578000000000000402,-1.202323909255149648
0.579000000000000403,-1.196248520793205206
0.580000000000000404,-1.190150456389662326
0.581000000000000405,-1.184031506307571258
0.582000000000000406,-1.177893418233627809
0.583000000000000407,-1.171737897954389540
0.584000000000000408,-1.165566610026691929
0.585000000000000409,-1.159381178442127958
0.586000000000000409,-1.153183187285483635
0.587000000000000410,-1.146974181387228287
0.588000000000000411,-1.140755666969768267
0.589000000000000412,-1.134529112287685271
0.590000000000000413,-1.128295948261662573
0.591000000000000414,-1.122057569106223340
0.592000000000000415,-1.115815332951199057
0.593000000000000416,-1.109570562456832610
0.594000000000000417,-1.103324545422553316
0.595000000000000417,-1.097078535389438558
0.596000000000000418,-1.090833752236136878
0.597000000000000419,-1.084591382768523626
0.598000000000000420,-1.078352581302783220
0.599000000000000421,-1.072118470242128252
0.600000000000000422,-1.065890140647008266
0.601000000000000423,-1.059668652798819943
0.602000000000000424,-1.053455036757186658
0.603000000000000425,-1.047250292910721026
0.604000000000000425,-1.041055392521272882
0.605000000000000426,-1.034871278261726868
0.606000000000000427,-1.028698864747332964
0.607000000000000428,-1.022539039060460064
0.608000000000000429,-1.016392661269031938
0.609000000000000430,-1.010260564938350702
0.610000000000000431,-1.004143557636600237
0.611000000000000432,-0.998042421433845695
0.612000000000000433,-0.991957913394643009
0.613000000000000433,-0.985890766064260071
0.614000000000000434,-0.979841687948538875
