# Pt001_ETHANE-AC
# h[nm],U(h)[kJ/mol]
0.200000000000000011,126.268601121129535159
0.201000000000000012,117.809822517780318663
0.202000000000000013,113.458522877082913283
0.203000000000000014,110.934438024283537061
0.204000000000000015,108.967616289669393836
0.205000000000000016,106.923903697771336851
0.206000000000000016,104.551486088776258043
0.207000000000000017,101.813303707286110011
0.208000000000000018,98.779567622771537572
0.209000000000000019,95.561659520692714409
0.210000000000000020,92.273950567696260805
0.211000000000000021,89.013965389900889136
0.212000000000000022,85.854177311511392645
0.213000000000000023,82.840806481098567815
0.214000000000000024,79.996498589146881386
0.215000000000000024,77.324837146140538380
0.216000000000000025,74.815399407885976757
0.217000000000000026,72.448590052627167779
0.218000000000000027,70.199841520971574482
0.219000000000000028,68.043003249751876638
0.220000000000000029,65.952889287970094756
0.221000000000000030,63.907041075035486699
0.222000000000000031,61.886808550048634459
0.223000000000000032,59.877872024835312459
0.224000000000000032,57.870329229525680148
0.225000000000000033,55.858463542443189453
0.226000000000000034,53.840295412087222360
0.227000000000000035,51.817002569197086359
0.228000000000000036,49.792277885298425133
0.229000000000000037,47.771677934288113931
0.230000000000000038,45.762001170422941243
0.231000000000000039,43.770722483408817993
0.232000000000000040,41.805500811064284505
0.233000000000000040,39.873768404916148711
0.234000000000000041,37.982404083015310903
0.235000000000000042,36.137488147910673320
0.236000000000000043,34.344133359199723543
0.237000000000000044,32.606384194951544941
0.238000000000000045,30.927175394926791796
0.239000000000000046,29.308340252996515574
0.240000000000000047,27.750659143518667804
0.241000000000000048,26.253939179364230938
0.242000000000000048,24.817116585240608373
0.243000000000000049,23.438374229268429616
0.244000000000000050,22.115267709272206531
0.245000000000000051,20.844854376650392425
0.246000000000000052,19.623820654015645459
0.247000000000000053,18.448603929822191105
0.248000000000000054,17.315506171229412047
0.249000000000000055,16.220797171251781776
0.250000000000000056,15.160806030246769538
0.251000000000000056,14.132000062579891164
0.252000000000000057,13.131050818300483485
0.253000000000000058,12.154887321076525808
0.254000000000000059,11.200736953571620802
0.255000000000000060,10.266154677218594315
0.256000000000000061,9.349041462903931787
0.257000000000000062,8.447652940609632566
0.258000000000000063,7.560599357646028196
0.259000000000000064,6.686837974508447857
0.260000000000000064,5.825659031868285709
0.261000000000000065,4.976666398443382988
0.262000000000000066,4.139753963504235301
0.263000000000000067,3.315078774919555826
0.264000000000000068,2.503031848601973142
0.265000000000000069,1.704207492016607706
0.266000000000000070,0.919371896481605000
0.267000000000000071,0.149431663165753736
0.268000000000000071,-0.604597161689265583
0.269000000000000072,-1.341619053867375344
0.270000000000000073,-2.060487575455563825
0.271000000000000074,-2.760032209624710298
0.272000000000000075,-3.439083212082658658
0.273000000000000076,-4.096494292078410204
0.274000000000000077,-4.731162996131265785
0.275000000000000078,-5.342048721433842573
0.276000000000000079,-5.928188333187365266
0.277000000000000079,-6.488709401141470323
0.278000000000000080,-7.022841105589533228
0.279000000000000081,-7.529922892352641561
0.280000000000000082,-8.009410980247212208
0.281000000000000083,-8.460882843592340663
0.282000000000000084,-8.884039806903036407
0.283000000000000085,-9.278707899475350018
0.284000000000000086,-9.644837124534891615
0.285000000000000087,-9.982499301416433823
0.286000000000000087,-10.291884640278485818
0.287000000000000088,-10.573297207521328289
0.288000000000000089,-10.827149436732735666
0.289000000000000090,-11.053955834972256866
0.290000000000000091,-11.254326027830265033
0.291000000000000092,-11.428957279247930146
0.292000000000000093,-11.578626613810101276
0.293000000000000094,-11.704182660355680667
0.294000000000000095,-11.806537326488456330
0.295000000000000095,-11.886657404094032486
0.296000000000000096,-11.945556196426542428
0.297000000000000097,-11.984285247854908008
0.298000000000000098,-12.003926248061286941
0.299000000000000099,-12.005583173457603507
0.300000000000000100,-11.990374719903075018
0.301000000000000101,-11.959427072526375824
0.302000000000000102,-11.913867050626519628
0.303000000000000103,-11.854815658279502344
0.304000000000000103,-11.783382064435746983
0.305000000000000104,-11.700658029970599117
0.306000000000000105,-11.607712793350549063
0.307000000000000106,-11.505588421299602686
0.308000000000000107,-11.395295626086724639
0.309000000000000108,-11.277810046792264842
0.310000000000000109,-11.154068988132802787
0.311000000000000110,-11.024968607110706031
0.312000000000000111,-10.891361534882546991
0.313000000000000111,-10.754054918787550932
0.314000000000000112,-10.613808867416008042
0.315000000000000113,-10.471335279902373117
0.316000000000000114,-10.327297039272485435
0.317000000000000115,-10.182307548630873839
0.318000000000000116,-10.036930588217023441
0.319000000000000117,-9.891680470862535657
0.320000000000000118,-9.747022473118505559
0.321000000000000119,-9.603373519270643754
0.322000000000000119,-9.461103095594706858
0.323000000000000120,-9.320534372504784670
0.324000000000000121,-9.181945512690887767
0.325000000000000122,-9.045571143910432710
0.326000000000000123,-8.911603975771939190
0.327000000000000124,-8.780196540611486355
0.328000000000000125,-8.651463039398255006
0.329000000000000126,-8.525481274498215356
0.330000000000000127,-8.402294652063316605
0.331000000000000127,-8.281914237785056088
0.332000000000000128,-8.164320850743171931
0.333000000000000129,-8.049467181085494971
0.334000000000000130,-7.937279918282255764
0.335000000000000131,-7.827661877701652671
0.336000000000000132,-7.720494114244577766
0.337000000000000133,-7.615638012750871155
0.338000000000000134,-7.512937345840441594
0.339000000000000135,-7.412220290777588261
0.340000000000000135,-7.313301397839959250
0.341000000000000136,-7.215983503534012300
0.342000000000000137,-7.120059582822593214
0.343000000000000138,-7.025314535315956732
0.344000000000000139,-6.931526901123970852
0.345000000000000140,-6.838470502773411397
0.346000000000000141,-6.745916010258865114
0.347000000000000142,-6.653632426919754650
0.348000000000000143,-6.561388494418819661
0.349000000000000143,-6.468954015638935573
0.350000000000000144,-6.376101094817456350
0.351000000000000145,-6.282605294699429521
0.352000000000000146,-6.188246710915452198
0.353000000000000147,-6.092810964176791799
0.354000000000000148,-5.996090111231738184
0.355000000000000149,-5.897883475843344492
0.356000000000000150,-5.797998401332447926
0.357000000000000151,-5.696250926481457810
0.358000000000000151,-5.592466386816129287
0.359000000000000152,-5.486479943475631949
0.360000000000000153,-5.378137042047556271
0.361000000000000154,-5.267293803885274350
0.362000000000000155,-5.153817352542048091
0.363000000000000156,-5.037586078051250027
0.364000000000000157,-4.918489841855803846
0.365000000000000158,-4.796430125245343845
0.366000000000000159,-4.671320124196137513
0.367000000000000159,-4.543084793529695631
0.368000000000000160,-4.411660843312043667
0.369000000000000161,-4.276996690407064428
0.370000000000000162,-4.139052368077259736
0.371000000000000163,-3.997799396493777468
0.372000000000000164,-3.853220616975193025
0.373000000000000165,-3.705309992724580503
0.374000000000000166,-3.554072378774962182
0.375000000000000167,-3.399523263787981531
0.376000000000000167,-3.241688486278623937
0.377000000000000168,-3.080603927761741634
0.378000000000000169,-2.916315185234708007
0.379000000000000170,-2.748877225325570883
0.380000000000000171,-2.578354022347406183
0.381000000000000172,-2.404818182409880656
0.382000000000000173,-2.228350555646007258
0.383000000000000174,-2.049039838519457923
0.384000000000000175,-1.866982168083093141
0.385000000000000175,-1.682280709965568999
0.386000000000000176,-1.495045241768422795
0.387000000000000177,-1.305391733462733628
0.388000000000000178,-1.113441926281898642
0.389000000000000179,-0.919322911515398689
0.390000000000000180,-0.723166710519057454
0.391000000000000181,-0.525109857168500227
0.392000000000000182,-0.325292983897239318
0.393000000000000183,-0.123860412375745410
0.394000000000000183,0.079040250192948094
0.395000000000000184,0.283258508265346542
0.396000000000000185,0.488641367818376082
0.397000000000000186,0.695033718133713174
0.398000000000000187,0.902278704832242040
0.399000000000000188,1.110218093553692276
0.400000000000000189,1.318692623742059755
0.401000000000000190,1.527542352061295627
0.402000000000000191,1.736606985024667482
0.403000000000000191,1.945726200479860335
0.404000000000000192,2.154739957645445791
0.405000000000000193,2.363488795446572865
0.406000000000000194,2.571814118946632810
0.407000000000000195,2.779558473717639977
0.408000000000000196,2.986565808036151459
0.409000000000000197,3.192681722832056757
0.410000000000000198,3.397753709356079010
0.411000000000000199,3.601631374567936028
0.412000000000000199,3.804166654280419557
0.413000000000000200,4.005214014125629163
0.414000000000000201,4.204630638438734636
0.415000000000000202,4.402276607181207169
0.416000000000000203,4.598015061049528285
0.417000000000000204,4.791712354938707286
0.418000000000000205,4.983238199949450831
0.419000000000000206,5.172465794147032447
0.420000000000000207,5.359271942296777169
0.421000000000000207,5.543537164815396601
0.422000000000000208,5.725145796191901226
0.423000000000000209,5.903986073142616142
0.424000000000000210,6.079950212775915297
0.425000000000000211,6.252934481050886895
0.426000000000000212,6.422839251821781836
0.427000000000000213,6.589569056766552357
0.428000000000000214,6.753032626502675662
0.429000000000000214,6.913142923197828971
0.430000000000000215,7.069817164985710001
0.431000000000000216,7.222976842499093664
0.432000000000000217,7.372547727833891784
0.433000000000000218,7.518459876257419516
0.434000000000000219,7.660647620973958460
0.435000000000000220,7.799049561259214336
0.436000000000000221,7.933608544273146990
0.437000000000000222,8.064271640858105883
0.438000000000000222,8.190990115625817580
0.439000000000000223,8.313719391633004108
0.440000000000000224,8.432419009941241939
0.441000000000000225,8.547052584351877869
0.442000000000000226,8.657587751601454329
0.443000000000000227,8.763996117298130883
0.444000000000000228,8.866253197873323444
0.445000000000000229,8.964338358816899444
0.446000000000000230,9.058234749457877655
0.447000000000000230,9.147929234546136712
0.448000000000000231,9.233412322883765455
0.449000000000000232,9.314678093247810153
0.450000000000000233,9.391724117839402197
0.451000000000000234,9.464551383486625724
0.452000000000000235,9.533164210821931661
0.453000000000000236,9.597570171647129555
0.454000000000000237,9.657780004691904452
0.455000000000000238,9.713807529964666898
0.456000000000000238,9.765669561886824113
0.457000000000000239,9.813385821394893682
0.458000000000000240,9.856978847186974590
0.459000000000000241,9.896473906283512534
0.460000000000000242,9.931898904064716760
0.461000000000000243,9.963284293940265712
0.462000000000000244,9.990662986799751621
0.463000000000000245,10.014070260385670608
0.464000000000000246,10.033543668723805098
0.465000000000000246,10.049122951739368759
0.466000000000000247,10.060849945180686760
0.467000000000000248,10.068768490965890550
0.468000000000000249,10.072924348061738087
0.469000000000000250,10.073365103997641512
0.470000000000000251,10.070140087112044114
0.471000000000000252,10.063300279622435340
0.472000000000000253,10.052898231604553203
0.473000000000000254,10.038987975960989019
0.474000000000000254,10.021624944453972006
0.475000000000000255,10.000865884871704026
0.476000000000000256,9.976768779393101028
0.477000000000000257,9.949392764210278628
0.478000000000000258,9.918798050463829341
0.479000000000000259,9.885045846541331116
0.480000000000000260,9.848198281784908303
0.481000000000000261,9.808318331649608979
0.482000000000000262,9.765469744350175674
0.483000000000000262,9.719716969030002929
0.484000000000000263,9.671125085481955708
0.485000000000000264,9.619759735447585669
0.486000000000000265,9.565687055517189563
0.487000000000000266,9.508973611650414881
0.488000000000000267,9.449686335333552734
0.489000000000000268,9.387892461386590170
0.490000000000000269,9.323659467430513104
0.491000000000000270,9.257055015022130462
0.492000000000000270,9.188146892461436011
0.493000000000000271,9.117002959273682094
0.494000000000000272,9.043691092366339390
0.495000000000000273,8.968279133858271024
0.496000000000000274,8.890834840577031883
0.497000000000000275,8.811425835217624680
0.498000000000000276,8.730119559154157827
0.499000000000000277,8.646983226894645824
0.500000000000000222,8.562083782166510559
0.501000000000000334,8.475487855619785904
0.502000000000000224,8.387261724132773821
0.503000000000000336,8.297471271703836138
0.504000000000000226,8.206181951911871053
0.505000000000000338,8.113458751926232893
0.506000000000000227,8.019366158046622672
0.507000000000000339,7.923968122751458232
0.508000000000000229,7.827328033233295734
0.509000000000000341,7.729508681397858183
0.510000000000000231,7.630572235303851869
0.511000000000000343,7.530580212018405106
0.512000000000000233,7.429593451863999221
0.513000000000000345,7.327672094030515559
0.514000000000000234,7.224875553527115635
0.515000000000000346,7.121262499446672223
0.516000000000000236,7.016890834516596342
0.517000000000000348,6.911817675907977687
0.518000000000000238,6.806099337276355854
0.519000000000000350,6.699791312005407562
0.520000000000000240,6.592948257626494168
0.521000000000000352,6.485623981385110426
0.522000000000000242,6.377871426926801313
0.523000000000000353,6.269742662073433337
0.524000000000000243,6.161288867662425339
0.525000000000000355,6.052560327419828745
0.526000000000000245,5.943606418839806338
0.527000000000000357,5.834475605041630430
0.528000000000000247,5.725215427576952010
0.529000000000000359,5.615872500158827663
0.530000000000000249,5.506492503285348228
0.531000000000000361,5.397120179729956391
0.532000000000000250,5.287799330871711945
0.533000000000000362,5.178572813837854838
0.534000000000000252,5.069482539432828005
0.535000000000000364,4.960569470826234451
0.536000000000000254,4.851873622974847144
0.537000000000000366,4.743434062751661351
0.538000000000000256,4.635288909757635523
0.539000000000000368,4.527475337790098031
0.540000000000000258,4.420029576943953487
0.541000000000000369,4.312986916320431519
0.542000000000000259,4.206381707320467456
0.543000000000000371,4.100247367498169204
0.544000000000000261,3.994616384951970023
0.545000000000000373,3.889520323230292398
0.546000000000000263,3.784989826729873386
0.547000000000000375,3.681054626564152610
0.548000000000000265,3.577743546881364090
0.549000000000000377,3.475084511610124771
0.550000000000000266,3.373104551613117508
0.551000000000000378,3.271829812227783130
0.552000000000000268,3.171285561175147372
0.553000000000000380,3.071496196816947410
0.554000000000000270,2.972485256742846804
0.555000000000000382,2.874275426668845501
0.556000000000000272,2.776888549629613401
0.557000000000000384,2.680345635446796937
0.558000000000000274,2.584666870456713728
0.559000000000000385,2.489871627480586991
0.560000000000000275,2.395978476021546566
0.561000000000000387,2.303005192672335166
0.562000000000000277,2.210968771719011183
0.563000000000000389,2.119885435925232819
0.564000000000000279,2.029770647483398527
0.565000000000000391,1.940639119118083400
0.566000000000000281,1.852504825328826099
0.567000000000000393,1.765381013758572148
0.568000000000000282,1.679280216675627546
0.569000000000000394,1.594214262556210127
0.570000000000000284,1.510194287756425169
0.571000000000000396,1.427230748261266502
0.572000000000000286,1.345333431500359556
0.573000000000000398,1.264511468219008838
0.574000000000000288,1.184773344394690620
0.575000000000000400,1.106126913188473448
0.576000000000000290,1.028579406922277117
0.577000000000000401,0.952137449072029574
0.578000000000000291,0.876807066268368018
0.579000000000000403,0.802593700295788359
0.580000000000000293,0.729502220082372532
0.581000000000000405,0.657536933671631352
0.582000000000000295,0.586701600169518223
0.583000000000000407,0.516999441658482661
0.584000000000000297,0.448433155072374412
0.585000000000000409,0.381004924024704927
0.586000000000000298,0.314716430584582985
0.587000000000000410,0.249568866993489624
0.588000000000000300,0.185562947317718746
0.589000000000000412,0.122698919030249542
0.590000000000000302,0.060976574517356344
0.591000000000000414,0.000395262504351512
0.592000000000000304,-0.059046100603870312
0.593000000000000416,-0.117349019472402144
0.594000000000000306,-0.174515408680022993
0.595000000000000417,-0.230547581661412260
0.596000000000000307,-0.285448239751340371
0.597000000000000419,-0.339220461334860779
0.598000000000000309,-0.391867691106651983
0.599000000000000421,-0.443393729442761508
0.600000000000000311,-0.493802721887806384
0.601000000000000423,-0.543099148760472383
0.602000000000000313,-0.591287814879634332
0.603000000000000425,-0.638373839414048350
0.604000000000000314,-0.684362645857214291
0.605000000000000426,-0.729259952130108191
0.606000000000000316,-0.773071760813154429
0.607000000000000428,-0.815804349509551940
0.608000000000000318,-0.857464261341318923
0.609000000000000430,-0.898058295579629018
0.610000000000000320,-0.937593498410503878
0.611000000000000432,-0.976077153837324629
0.612000000000000322,-1.013516774720790492
0.613000000000000433,-1.049920093957494638
0.614000000000000323,-1.085295055797689701
0.615000000000000435,-1.119649807302942168
0.616000000000000325,-1.152992689944019045
0.617000000000000437,-1.185332231339679243
0.618000000000000327,-1.216677137136294107
0.619000000000000439,-1.247036283028743364
0.620000000000000329,-1.276418706922496593
0.621000000000000441,-1.304833601236891294
0.622000000000000330,-1.332290305349488335
0.623000000000000442,-1.358798298181329134
0.624000000000000332,-1.384367190922621393
0.625000000000000444,-1.409006719898765914
0.626000000000000334,-1.432726739575934660
0.627000000000000446,-1.455537215705934750
0.628000000000000336,-1.477448218609565433
0.629000000000000448,-1.498469916597929386
0.630000000000000338,-1.518612569530779943
0.631000000000000449,-1.537886522511354936
0.632000000000000339,-1.556302199716578238
0.633000000000000451,-1.573870098361878744
0.634000000000000341,-1.590600782799545199
0.635000000000000453,-1.606504878749773324
0.636000000000000343,-1.621593067663045673
0.637000000000000455,-1.635876081213083921
0.638000000000000345,-1.649364695918867252
0.639000000000000457,-1.662069727894837756
0.640000000000000346,-1.674002027727801378
0.641000000000000458,-1.685172475479471244
0.642000000000000348,-1.695591975813173891
0.643000000000000460,-1.705271453243538460
0.644000000000000350,-1.714221847507700902
0.645000000000000462,-1.722454109056715366
0.646000000000000352,-1.729979194665689501
0.647000000000000464,-1.736808063161336957
0.648000000000000353,-1.742951671265331459
0.649000000000000465,-1.748420969552144655
0.650000000000000355,-1.753226898519792076
0.651000000000000467,-1.757380384771996873
0.652000000000000357,-1.760892337310342892
0.653000000000000469,-1.763773643934705149
0.654000000000000359,-1.766035167750658941
0.655000000000000471,-1.767687743782131449
0.656000000000000361,-1.768742175687808782
0.657000000000000473,-1.769209232579777691
0.658000000000000362,-1.769099645942767030
0.659000000000000474,-1.768424106652477956
0.660000000000000364,-1.767193262091381500
0.661000000000000476,-1.765417713360467378
0.662000000000000366,-1.763108012585326678
0.663000000000000478,-1.760274660314987027
0.664000000000000368,-1.756928103011982767
0.665000000000000480,-1.753078730632060767
0.666000000000000369,-1.748736874291928034
