# Pt001_CYSSCA-AC
# h[nm],U(h)[kJ/mol]
0.149999999999999994,114.593259968602069421
0.150999999999999995,114.247677073032079420
0.151999999999999996,110.883471474176047877
0.152999999999999997,106.854361694505342939
0.153999999999999998,103.094276153616789315
0.154999999999999999,99.831186223281846992
0.156000000000000000,96.989587143998974739
0.157000000000000001,94.403070129834119939
0.158000000000000002,91.915050358899833327
0.159000000000000002,89.416795080424179787
0.160000000000000003,86.852869468326645119
0.161000000000000004,84.211801980026095293
0.162000000000000005,81.511959393696244547
0.163000000000000006,78.787795692912695245
0.164000000000000007,76.078761768973919288
0.165000000000000008,73.421533574057519900
0.166000000000000009,70.845366460188117230
0.167000000000000010,68.370004345146995206
0.168000000000000010,66.005464261573379758
0.169000000000000011,63.753053331678003701
0.170000000000000012,61.607078643366563142
0.171000000000000013,59.556835231637911932
0.172000000000000014,57.588578261201462283
0.173000000000000015,55.687290258271715970
0.174000000000000016,53.838138273929622812
0.175000000000000017,52.027579006091684732
0.176000000000000018,50.244114281131324162
0.177000000000000018,48.478728005430085091
0.178000000000000019,46.725052064097511106
0.179000000000000020,44.979315784021366653
0.180000000000000021,43.240134194030517278
0.181000000000000022,41.508186624444945778
0.182000000000000023,39.785830930323896837
0.183000000000000024,38.076691102234008213
0.184000000000000025,36.385248180423033659
0.185000000000000026,34.716456846370995493
0.186000000000000026,33.075403226536970180
0.187000000000000027,31.467013524316040929
0.188000000000000028,29.895818184888486968
0.189000000000000029,28.365772390125375324
0.190000000000000030,26.880130713843961132
0.191000000000000031,25.441371642729922797
0.192000000000000032,24.051166268522258918
0.193000000000000033,22.710384660692191972
0.194000000000000034,21.419133117301349500
0.195000000000000034,20.176815555295931404
0.196000000000000035,18.982212642506500089
0.197000000000000036,17.833572807860381459
0.198000000000000037,16.728709923286693595
0.199000000000000038,15.665103173194077968
0.200000000000000039,14.639995370039708078
0.201000000000000040,13.650486702987901566
0.202000000000000041,12.693621595914333255
0.203000000000000042,11.766466983856478379
0.204000000000000042,10.866180882724098211
0.205000000000000043,9.990070620148845393
0.206000000000000044,9.135640514294703252
0.207000000000000045,8.300629133866168630
0.208000000000000046,7.483036550239094531
0.209000000000000047,6.681142206918965876
0.210000000000000048,5.893514188658459219
0.211000000000000049,5.119010779285336099
0.212000000000000050,4.356775260473115807
0.213000000000000050,3.606224930077293500
0.214000000000000051,2.867035314667327750
0.215000000000000052,2.139120522469192931
0.216000000000000053,1.422610635508645194
0.217000000000000054,0.717826978139734839
0.218000000000000055,0.025256027587878371
0.219000000000000056,-0.654477345728818660
0.220000000000000057,-1.320636701441946670
0.221000000000000058,-1.972400391174789380
0.222000000000000058,-2.608887014752302669
0.223000000000000059,-3.229179603685737643
0.224000000000000060,-3.832348238155080189
0.225000000000000061,-4.417470871806557398
0.226000000000000062,-4.983652201048892394
0.227000000000000063,-5.530040471811343394
0.228000000000000064,-6.055842166761768119
0.229000000000000065,-6.560334559788884690
0.230000000000000066,-7.042876162270142792
0.231000000000000066,-7.502915117528199396
0.232000000000000067,-7.939995626247117855
0.233000000000000068,-8.353762506858302572
0.234000000000000069,-8.743964011430701788
0.235000000000000070,-9.110453029849466589
0.236000000000000071,-9.453186823485216550
0.237000000000000072,-9.772225434585781301
0.238000000000000073,-10.067728919691784739
0.239000000000000073,-10.339953554898544397
0.240000000000000074,-10.589247158150833172
0.241000000000000075,-10.816043669322771947
0.242000000000000076,-11.020857122940153516
0.243000000000000077,-11.204275141350201750
0.244000000000000078,-11.366952068209862148
0.245000000000000079,-11.509601853592721810
0.246000000000000080,-11.632990793024950094
0.247000000000000081,-11.737930213540598956
0.248000000000000081,-11.825269190559744459
0.249000000000000082,-11.895887370178424902
0.250000000000000111,-11.950687962434329847
0.251000000000000112,-11.990590962371312500
0.252000000000000113,-12.016526647348536372
0.253000000000000114,-12.029429391083713341
0.254000000000000115,-12.030231827433997438
0.255000000000000115,-12.019859389930655169
0.256000000000000116,-11.999225246618857810
0.257000000000000117,-11.969225643820207594
0.258000000000000118,-11.930735667035767378
0.259000000000000119,-11.884605422336381508
0.260000000000000120,-11.831656637233686880
0.261000000000000121,-11.772679676172440821
0.262000000000000122,-11.708430962414107412
0.263000000000000123,-11.639630795168015354
0.264000000000000123,-11.566961548346325728
0.265000000000000124,-11.491066235243257765
0.266000000000000125,-11.412547421741958686
0.267000000000000126,-11.331966469302770406
0.268000000000000127,-11.249843087958231180
0.269000000000000128,-11.166655178802603388
0.270000000000000129,-11.082838944990784924
0.271000000000000130,-10.998789250024852748
0.272000000000000131,-10.914860202081529295
0.273000000000000131,-10.831365943294548160
0.274000000000000132,-10.748581623230055726
0.275000000000000133,-10.666744536257741771
0.276000000000000134,-10.586055403105074646
0.277000000000000135,-10.506679777568066925
0.278000000000000136,-10.428749560120834872
0.279000000000000137,-10.352364601002163269
0.280000000000000138,-10.277594376245698271
0.281000000000000139,-10.204479721046704199
0.282000000000000139,-10.133034605811825912
0.283000000000000140,-10.063247941206945768
0.284000000000000141,-9.995085399492676714
0.285000000000000142,-9.928491240409332619
0.286000000000000143,-9.863390130834620351
0.287000000000000144,-9.799688948382691223
0.288000000000000145,-9.737278560036120467
0.289000000000000146,-9.676035567798345838
0.290000000000000147,-9.615824014219533922
0.291000000000000147,-9.556497041479902421
0.292000000000000148,-9.497898498509627530
0.293000000000000149,-9.439864491380545175
0.294000000000000150,-9.382224872921311132
0.295000000000000151,-9.324804668183732659
0.296000000000000152,-9.267425433021896808
0.297000000000000153,-9.209906543639359455
0.298000000000000154,-9.152066415510944353
0.299000000000000155,-9.093723650597343777
0.300000000000000155,-9.034698112241684953
0.301000000000000156,-8.974811927569517067
0.302000000000000157,-8.913890417608060446
0.303000000000000158,-8.851762955698317725
0.304000000000000159,-8.788263755096325625
0.305000000000000160,-8.723232586948336476
0.306000000000000161,-8.656515430081896056
0.307000000000000162,-8.587965054280546795
0.308000000000000163,-8.517441538907124965
0.309000000000000163,-8.444812728910758182
0.310000000000000164,-8.369954630396737372
0.311000000000000165,-8.292751748058845962
0.312000000000000166,-8.213097366871735971
0.313000000000000167,-8.130893780518139380
0.314000000000000168,-8.046052469083573300
0.315000000000000169,-7.958494228591616704
0.316000000000000170,-7.868149254976829710
0.317000000000000171,-7.774957185101624368
0.318000000000000171,-7.678867097418996757
0.319000000000000172,-7.579837474866704561
0.320000000000000173,-7.477836132550974568
0.321000000000000174,-7.372840112740478347
0.322000000000000175,-7.264835549645494162
0.323000000000000176,-7.153817506403565396
0.324000000000000177,-7.039789786632537627
0.325000000000000178,-6.922764722845857754
0.326000000000000179,-6.802762943954301811
0.327000000000000179,-6.679813124002779823
0.328000000000000180,-6.553951714212653989
0.329000000000000181,-6.425222660319245271
0.330000000000000182,-6.293677107110036140
0.331000000000000183,-6.159373091985628434
0.332000000000000184,-6.022375229278876141
0.333000000000000185,-5.882754386982168349
0.334000000000000186,-5.740587357446463201
0.335000000000000187,-5.595956523529951099
0.336000000000000187,-5.448949521589339540
0.337000000000000188,-5.299658902622578438
0.338000000000000189,-5.148181792789410238
0.339000000000000190,-4.994619554454894583
0.340000000000000191,-4.839077448821685223
0.341000000000000192,-4.681664301139965900
0.342000000000000193,-4.522492169407996698
0.343000000000000194,-4.361676017404152894
0.344000000000000195,-4.199333392820109978
0.345000000000000195,-4.035584111197232815
0.346000000000000196,-3.870549946302495492
0.347000000000000197,-3.704354327517279444
0.348000000000000198,-3.537122044752434302
0.349000000000000199,-3.368978961344843093
0.350000000000000200,-3.200051735336364889
0.351000000000000201,-3.030467549483082834
0.352000000000000202,-2.860353850293642974
0.353000000000000203,-2.689838096348123209
0.354000000000000203,-2.519047516104357509
0.355000000000000204,-2.348108875356877512
0.356000000000000205,-2.177148254474086997
0.357000000000000206,-2.006290835502173131
0.358000000000000207,-1.835660699189705980
0.359000000000000208,-1.665380631954558766
0.360000000000000209,-1.495571942784538866
0.361000000000000210,-1.326354290035344441
0.362000000000000210,-1.157845518063445267
0.363000000000000211,-0.990161503607837945
0.364000000000000212,-0.823416011812652782
0.365000000000000213,-0.657720561762532796
0.366000000000000214,-0.493184301384629542
0.367000000000000215,-0.329913891554380667
0.368000000000000216,-0.168013399227487398
0.369000000000000217,-0.007584199407114967
0.370000000000000218,0.151275114256471277
0.371000000000000218,0.308468810447106945
0.372000000000000219,0.463904092967050541
0.373000000000000220,0.617491165554721833
0.374000000000000221,0.769143288972545247
0.375000000000000222,0.918776830607461625
0.376000000000000223,1.066311306830894701
0.377000000000000224,1.211669418368615636
0.378000000000000225,1.354777078933412593
0.379000000000000226,1.495563437375327265
0.380000000000000226,1.633960893605012288
0.381000000000000227,1.769905108546033556
0.382000000000000228,1.903335008371365378
0.383000000000000229,2.034192783278116146
0.384000000000000230,2.162423881053009644
0.385000000000000231,2.287976995678504100
0.386000000000000232,2.410804051226953959
0.387000000000000233,2.530860181286894939
0.388000000000000234,2.648103704161840266
0.389000000000000234,2.762496094077998343
0.390000000000000235,2.874001948633133185
0.391000000000000236,2.982588952713817854
0.392000000000000237,3.088227839103928396
0.393000000000000238,3.190892346001597879
0.394000000000000239,3.290559171656933124
0.395000000000000240,3.387207926337109321
0.396000000000000241,3.480821081819843066
0.397000000000000242,3.571383918610600006
0.398000000000000242,3.658884471072903377
0.399000000000000243,3.743313470655271313
0.400000000000000244,3.824664287392526951
0.401000000000000245,3.902932869852693720
0.402000000000000246,3.978117683695320927
0.403000000000000247,4.050219649000656119
0.404000000000000248,4.119242076523126350
0.405000000000000249,4.185190603016751609
0.406000000000000250,4.248073125774088687
0.407000000000000250,4.307899736514380962
0.408000000000000251,4.364682654750960289
0.409000000000000252,4.418436160761915588
0.410000000000000253,4.469176528282734040
0.411000000000000254,4.516921957033709134
0.412000000000000255,4.561692505189729907
0.413000000000000256,4.603510021894463122
0.414000000000000257,4.642398079915905029
0.415000000000000258,4.678381908534914757
0.416000000000000258,4.711488326753533684
0.417000000000000259,4.741745676904776552
0.418000000000000260,4.769183758740994428
0.419000000000000261,4.793833764073168524
0.420000000000000262,4.815728212028920652
0.421000000000000263,4.834900884992742398
0.422000000000000264,4.851386765287633906
0.423000000000000265,4.865221972653256621
0.424000000000000266,4.876443702571549466
0.425000000000000266,4.885090165487194547
0.426000000000000267,4.891200526966288820
0.427000000000000268,4.894814848833173748
0.428000000000000269,4.895974031321818742
0.429000000000000270,4.894719756274892752
0.430000000000000271,4.891094431420309974
0.431000000000000272,4.885141135752174790
0.432000000000000273,4.876903566039844762
0.433000000000000274,4.866425984486243195
0.434000000000000274,4.853753167553558789
0.435000000000000275,4.838930355972234310
0.436000000000000276,4.822003205946296056
0.437000000000000277,4.803017741565975385
0.438000000000000278,4.782020308436230493
0.439000000000000279,4.759057528527615766
0.440000000000000280,4.734176256253912918
0.441000000000000281,4.707423535779111212
0.442000000000000282,4.678846559554267870
0.443000000000000282,4.648492628083346290
0.444000000000000283,4.616409110915167702
0.445000000000000284,4.582643408857348000
0.446000000000000285,4.547242917406479457
0.447000000000000286,4.510254991387457224
0.448000000000000287,4.471726910793631049
0.449000000000000288,4.431705847818236066
0.450000000000000289,4.390238835066343270
0.451000000000000290,4.347372734935699867
0.452000000000000290,4.303154210153710579
0.453000000000000291,4.257629695456921048
0.454000000000000292,4.210845370398628162
0.455000000000000293,4.162847133269333533
0.456000000000000294,4.113680576114167486
0.457000000000000295,4.063390960830735033
0.458000000000000296,4.012023196330109620
0.459000000000000297,3.959621816743486455
0.460000000000000298,3.906230960656070117
0.461000000000000298,3.851894351349884005
0.462000000000000299,3.796655278036245029
0.463000000000000300,3.740556578058786386
0.464000000000000301,3.683640620047322844
0.465000000000000302,3.625949288002780602
0.466000000000000303,3.567523966293005167
0.467000000000000304,3.508405525539399328
0.468000000000000305,3.448634309373844964
0.469000000000000306,3.388250122045565860
0.470000000000000306,3.327292216857389295
0.471000000000000307,3.265799285410768249
0.472000000000000308,3.203809447639093921
0.473000000000000309,3.141360242608654652
0.474000000000000310,3.078488620066871739
0.475000000000000311,3.015230932717142043
0.476000000000000312,2.951622929200315326
0.477000000000000313,2.887699747762177971
0.478000000000000314,2.823495910587184632
0.479000000000000314,2.759045318778333034
0.480000000000000315,2.694381247963475889
0.481000000000000316,2.629536344508506041
0.482000000000000317,2.564542622318039644
0.483000000000000318,2.499431460204454059
0.484000000000000319,2.434233599806352011
0.485000000000000320,2.368979144037811846
0.486000000000000321,2.303697556049953299
0.487000000000000322,2.238417658686712830
0.488000000000000322,2.173167634416869998
0.489000000000000323,2.107975025724846851
0.490000000000000324,2.042866735942806766
0.491000000000000325,1.977869030507153125
0.492000000000000326,1.913007538622627068
0.493000000000000327,1.848307255317654718
0.494000000000000328,1.783792543874760383
0.495000000000000329,1.719487138620319655
0.496000000000000330,1.655414148058123258
0.497000000000000330,1.591596058331621322
0.498000000000000331,1.528054736999957752
0.499000000000000332,1.464811437113415327
0.500000000000000333,1.401886801573872798
0.501000000000000334,1.339300867766562986
0.502000000000000335,1.277073072449514068
0.503000000000000336,1.215222256887505736
0.504000000000000337,1.153766672217541034
0.505000000000000338,1.092723985033372980
0.506000000000000338,1.032111283176744720
0.507000000000000339,0.971945081723412208
0.508000000000000340,0.912241329152349123
0.509000000000000341,0.853015413686831758
0.510000000000000342,0.794282169796348247
0.511000000000000343,0.736055884848692998
0.512000000000000344,0.678350305901815775
0.513000000000000345,0.621178646625409336
0.514000000000000346,0.564553594342327103
0.515000000000000346,0.508487317180477683
0.516000000000000347,0.452991471325889239
0.517000000000000348,0.398077208368080304
0.518000000000000349,0.343755182729052422
0.519000000000000350,0.290035559167655443
0.520000000000000351,0.236928020351079294
0.521000000000000352,0.184441774485822940
0.522000000000000353,0.132585563000516299
0.523000000000000353,0.081367668273256658
0.524000000000000354,0.030795921396583281
0.525000000000000355,-0.019122290026889227
0.526000000000000356,-0.068380014064519962
0.527000000000000357,-0.116970726615785447
0.528000000000000358,-0.164888323562610600
0.529000000000000359,-0.212127112913504640
0.530000000000000360,-0.258681806947365311
0.531000000000000361,-0.304547514362118243
0.532000000000000361,-0.349719732433490693
0.533000000000000362,-0.394194339188743137
0.534000000000000363,-0.437967585600206544
0.535000000000000364,-0.481036087803093371
0.536000000000000365,-0.523396819341940600
0.537000000000000366,-0.565047103449829557
0.538000000000000367,-0.605984605364338846
0.539000000000000368,-0.646207324683999995
0.540000000000000369,-0.685713587768864707
0.541000000000000369,-0.724502040188575558
0.542000000000000370,-0.762571639221214292
0.543000000000000371,-0.799921646406007825
0.544000000000000372,-0.836551620152813036
0.545000000000000373,-0.872461408411136063
0.546000000000000374,-0.907651141401345840
0.547000000000000375,-0.942121224410485292
0.548000000000000376,-0.975872330655079834
0.549000000000000377,-1.008905394213048812
0.550000000000000377,-1.041221603026864617
0.551000000000000378,-1.072822391979789014
0.552000000000000379,-1.103709436047045411
0.553000000000000380,-1.133884643523574098
0.554000000000000381,-1.163350149329914762
0.555000000000000382,-1.192108308397684002
0.556000000000000383,-1.220161689135928595
0.557000000000000384,-1.247513066979620167
0.558000000000000385,-1.274165418021360185
0.559000000000000385,-1.300121912727360884
0.560000000000000386,-1.325385909738545864
0.561000000000000387,-1.349960949757674999
0.562000000000000388,-1.373850749523145343
0.563000000000000389,-1.397059195870196113
0.564000000000000390,-1.419590339879973850
0.565000000000000391,-1.441448391117045036
0.566000000000000392,-1.462637711955685038
0.567000000000000393,-1.483162811995285102
0.568000000000000393,-1.503028342565137621
0.569000000000000394,-1.522239091318797088
0.570000000000000395,-1.540799976918105552
0.571000000000000396,-1.558716043806937845
0.572000000000000397,-1.575992457074698816
0.573000000000000398,-1.592634497409465055
0.574000000000000399,-1.608647556140642809
0.575000000000000400,-1.624037130371015936
0.576000000000000401,-1.638808818197893702
0.577000000000000401,-1.652968314023131269
0.578000000000000402,-1.666521403951667590
0.579000000000000403,-1.679473961278225236
0.580000000000000404,-1.691831942061754912
0.581000000000000405,-1.703601380787175712
0.582000000000000406,-1.714788386113926366
0.583000000000000407,-1.725399136710767056
0.584000000000000408,-1.735439877176338630
0.585000000000000409,-1.744916914044788214
0.586000000000000409,-1.753836611875920992
0.587000000000000410,-1.762205389429188473
0.588000000000000411,-1.770029715920792501
0.589000000000000412,-1.777316107363280384
0.590000000000000413,-1.784071122986801594
0.591000000000000414,-1.790301361741337249
0.592000000000000415,-1.796013458879095470
0.593000000000000416,-1.801214082616264589
0.594000000000000417,-1.805909930873331515
0.595000000000000417,-1.810107728093100166
0.596000000000000418,-1.813814222135575305
0.597000000000000419,-1.817036181248851578
0.598000000000000420,-1.819780391115093376
0.599000000000000421,-1.822053651970753751
0.600000000000000422,-1.823862775800093816
0.601000000000000423,-1.825214583601094676
0.602000000000000424,-1.826115902722846629
0.603000000000000425,-1.826573564273497041
0.604000000000000425,-1.826594400597741696
0.605000000000000426,-1.826185242823011423
0.606000000000000427,-1.825352918473332142
0.607000000000000428,-1.824104249149912649
0.608000000000000429,-1.822446048277529318
0.609000000000000430,-1.820385118915678557
0.610000000000000431,-1.817928251633616599
0.611000000000000432,-1.815082222448215932
0.612000000000000433,-1.811853790823749533
0.613000000000000433,-1.808249697732602801
0.614000000000000434,-1.804276663775922884
0.615000000000000435,-1.799941387363245493
