# Pt001_CS-12139-AC
# h[nm],U(h)[kJ/mol]
0.200000000000000011,91.524872399918180577
0.201000000000000012,84.586604493799839588
0.202000000000000013,80.528113625084330351
0.203000000000000014,77.763191605837590714
0.204000000000000015,75.412605001568579155
0.205000000000000016,73.040586257335604614
0.206000000000000016,70.476816967701026329
0.207000000000000017,67.699001212730195221
0.208000000000000018,64.757796923548397672
0.209000000000000019,61.730869327550486503
0.210000000000000020,58.696552136979889269
0.211000000000000021,55.720357044395100843
0.212000000000000022,52.849596763138265487
0.213000000000000023,50.112862508530632510
0.214000000000000024,47.522161870255317240
0.215000000000000024,45.076282835517858416
0.216000000000000025,42.764484168630744421
0.217000000000000026,40.569981738043210839
0.218000000000000027,38.472950003006971542
0.219000000000000028,36.452921562497657249
0.220000000000000029,34.490570537068727219
0.221000000000000030,32.568926094191773757
0.222000000000000031,30.674094142442704936
0.223000000000000032,28.795577865994260947
0.224000000000000032,26.926288308718550724
0.225000000000000033,25.062329535168082373
0.226000000000000034,23.202632358856170924
0.227000000000000035,21.348498492431815521
0.228000000000000036,19.503104696861853995
0.229000000000000037,17.671004978182292433
0.230000000000000038,15.857658596205885360
0.231000000000000039,14.069002836053254413
0.232000000000000040,12.311082199184699704
0.233000000000000040,10.589739832515297380
0.234000000000000041,8.910372503500999741
0.235000000000000042,7.277747083802951877
0.236000000000000043,5.695874150705688699
0.237000000000000044,4.167932782860210850
0.238000000000000045,2.696239755334553845
0.239000000000000046,1.282255984646159419
0.240000000000000047,-0.073376888060497872
0.241000000000000048,-1.370776565007538306
0.242000000000000048,-2.610743081493200890
0.243000000000000049,-3.794670345003660294
0.244000000000000050,-4.924451141761037931
0.245000000000000051,-6.002379796648099841
0.246000000000000052,-7.031055951169042473
0.247000000000000053,-8.013292237658186323
0.248000000000000054,-8.952027992725414052
0.249000000000000055,-9.850250579201393464
0.250000000000000056,-10.710925379054383910
0.251000000000000056,-11.536935081600756092
0.252000000000000057,-12.331028520746079025
0.253000000000000058,-13.095779008873909888
0.254000000000000059,-13.833551868874527813
0.255000000000000060,-14.546480674322783244
0.256000000000000061,-15.236451565155988419
0.257000000000000062,-15.905094906383112630
0.258000000000000063,-16.553783494461150383
0.259000000000000064,-17.183636484323518090
0.260000000000000064,-17.795528204315221643
0.261000000000000065,-18.390101041582152419
0.262000000000000066,-18.967781612358216137
0.263000000000000067,-19.528799476155391801
0.264000000000000068,-20.073207706647064441
0.265000000000000069,-20.600904692070599822
0.266000000000000070,-21.111656601733535865
0.267000000000000071,-21.605120020583800766
0.268000000000000071,-22.080864319061952017
0.269000000000000072,-22.538393389207595163
0.270000000000000073,-22.977166439154583344
0.271000000000000074,-23.396617595899563469
0.272000000000000075,-23.796174119977838046
0.273000000000000076,-24.175273085031903975
0.274000000000000077,-24.533376419986222317
0.275000000000000078,-24.869984251552956778
0.276000000000000079,-25.184646520109460255
0.277000000000000079,-25.476972872719844787
0.278000000000000080,-25.746640863397409760
0.279000000000000081,-25.993402512857784359
0.280000000000000082,-26.217089298261420538
0.281000000000000083,-26.417615658085157548
0.282000000000000084,-26.594981108605814768
0.283000000000000085,-26.749271076840063444
0.284000000000000086,-26.880656560478456640
0.285000000000000087,-26.989392728686830480
0.286000000000000087,-27.075816578921184430
0.287000000000000088,-27.140343764396202886
0.288000000000000089,-27.183464704827592584
0.289000000000000090,-27.205740089783478908
0.290000000000000091,-27.207795879655009230
0.291000000000000092,-27.190317904102936808
0.292000000000000093,-27.154046152039917672
0.293000000000000094,-27.099768840937780823
0.294000000000000095,-27.028316346654651880
0.295000000000000095,-26.940555068189262045
0.296000000000000096,-26.837381294903885021
0.297000000000000097,-26.719715136911275977
0.298000000000000098,-26.588494572578195374
0.299000000000000099,-26.444669660527825528
0.300000000000000100,-26.289196957183957437
0.301000000000000101,-26.123034174835520815
0.302000000000000102,-25.947135109448357326
0.303000000000000103,-25.762444862037114035
0.304000000000000103,-25.569895372353713014
0.305000000000000104,-25.370401278960827085
0.306000000000000105,-25.164856115445751072
0.307000000000000106,-24.954128848590301004
0.308000000000000107,-24.739060760744969514
0.309000000000000108,-24.520462675449309131
0.310000000000000109,-24.299112522487082089
0.311000000000000110,-24.075753236049330042
0.312000000000000111,-23.851090977486443023
0.313000000000000111,-23.625793672244505217
0.314000000000000112,-23.400489848984182828
0.315000000000000113,-23.175767767552873266
0.316000000000000114,-22.952174821404916827
0.317000000000000115,-22.730217199220071222
0.318000000000000116,-22.510359789839050393
0.319000000000000117,-22.293026314198161941
0.320000000000000118,-22.078599667683413088
0.321000000000000119,-21.867422456222261218
0.322000000000000119,-21.659797709469820859
0.323000000000000120,-21.455989754610524045
0.324000000000000121,-21.256225234570450766
0.325000000000000122,-21.060694254805333969
0.326000000000000123,-20.869551643280974673
0.327000000000000124,-20.682918308783875716
0.328000000000000125,-20.500882683279172625
0.329000000000000126,-20.323502234658285204
0.330000000000000127,-20.150805036881440202
0.331000000000000127,-19.982791385211299939
0.332000000000000128,-19.819435444943746205
0.333000000000000129,-19.660686922764757156
0.334000000000000130,-19.506472750590464926
0.335000000000000131,-19.356698772475731118
0.336000000000000132,-19.211251425898730361
0.337000000000000133,-19.069999409441784621
0.338000000000000134,-18.932795329586717514
0.339000000000000135,-18.799477320024358562
0.340000000000000135,-18.669870627537925145
0.341000000000000136,-18.543789159157853419
0.342000000000000137,-18.421036985898837202
0.343000000000000138,-18.301409798976077781
0.344000000000000139,-18.184696314957108143
0.345000000000000140,-18.070679626836128051
0.346000000000000141,-17.959138498519202187
0.347000000000000142,-17.849848600681248456
0.348000000000000143,-17.742583686398539555
0.349000000000000143,-17.637116705373863113
0.350000000000000144,-17.533220855956489714
0.351000000000000145,-17.430670574514973481
0.352000000000000146,-17.329242462049339935
0.353000000000000147,-17.228716148230212468
0.354000000000000148,-17.128875093327522450
0.355000000000000149,-17.029507328740542960
0.356000000000000150,-16.930406137066533745
0.357000000000000151,-16.831370672846414749
0.358000000000000151,-16.732206525305539202
0.359000000000000152,-16.632726224565466566
0.360000000000000153,-16.532749692940690522
0.361000000000000154,-16.432104643053115467
0.362000000000000155,-16.330626924597908101
0.363000000000000156,-16.228160821678805803
0.364000000000000157,-16.124559302698969532
0.365000000000000158,-16.019684224847718923
0.366000000000000159,-15.913406495263378915
0.367000000000000159,-15.805606190979977654
0.368000000000000160,-15.696172639782057345
0.369000000000000161,-15.585004464096574139
0.370000000000000162,-15.472009590046880589
0.371000000000000163,-15.357105223780759928
0.372000000000000164,-15.240217797162600277
0.373000000000000165,-15.121282884892366383
0.374000000000000166,-15.000245095078303947
0.375000000000000167,-14.877057935250268983
0.376000000000000167,-14.751683655754927571
0.377000000000000168,-14.624093072423946182
0.378000000000000169,-14.494265370352636069
0.379000000000000170,-14.362187890569675375
0.380000000000000171,-14.227855901318429588
0.381000000000000172,-14.091272355609101297
0.382000000000000173,-13.952447636636687633
0.383000000000000174,-13.811399292595339716
0.384000000000000175,-13.668151762353314638
0.385000000000000175,-13.522736093386622969
0.386000000000000176,-13.375189653302456350
0.387000000000000177,-13.225555836216850381
0.388000000000000178,-13.073883765184865169
0.389000000000000179,-12.920227991815281143
0.390000000000000180,-12.764648194137187431
0.391000000000000181,-12.607208873721429399
0.392000000000000182,-12.447979052997258265
0.393000000000000183,-12.287031973642374538
0.394000000000000183,-12.124444796864908724
0.395000000000000184,-11.960298306336841989
0.396000000000000185,-11.794676614481341304
0.397000000000000186,-11.627666872761460937
0.398000000000000187,-11.459358986563890070
0.399000000000000188,-11.289845335219803601
0.400000000000000189,-11.119220497655433633
0.401000000000000190,-10.947580984116559222
0.402000000000000191,-10.775024974366045782
0.403000000000000191,-10.601652062708842195
0.404000000000000192,-10.427563010157451018
0.405000000000000193,-10.252859504010682912
0.406000000000000194,-10.077643925080398191
0.407000000000000195,-9.902019122765096881
0.408000000000000196,-9.726088198134544172
0.409000000000000197,-9.549954295157672135
0.410000000000000198,-9.373720400175372447
0.411000000000000199,-9.197489149690893484
0.412000000000000199,-9.021362646523758855
0.413000000000000200,-8.845442284347965867
0.414000000000000201,-8.669828580611378399
0.415000000000000202,-8.494621017811365249
0.416000000000000203,-8.319917893081527183
0.417000000000000204,-8.145816176024986532
0.418000000000000205,-7.972411374712801369
0.419000000000000206,-7.799797409749713140
0.420000000000000207,-7.628066496294596099
0.421000000000000207,-7.457309033910220819
0.422000000000000208,-7.287613504103849671
0.423000000000000209,-7.119066375410146641
0.424000000000000210,-6.951752015857363354
0.425000000000000211,-6.785752612649306847
0.426000000000000212,-6.621148098887817746
0.427000000000000213,-6.458016087153649387
0.428000000000000214,-6.296431809757922160
0.429000000000000214,-6.136468065471153643
0.430000000000000215,-5.978195172532869250
0.431000000000000216,-5.821680927741542888
0.432000000000000217,-5.666990571421522738
0.433000000000000218,-5.514186758062182392
0.434000000000000219,-5.363329532422858925
0.435000000000000220,-5.214476310896577260
0.436000000000000221,-5.067681867925314165
0.437000000000000222,-4.922998327259978879
0.438000000000000222,-4.780475157859143565
0.439000000000000223,-4.640159174221791361
0.440000000000000224,-4.502094540951077306
0.441000000000000225,-4.366322781348086046
0.442000000000000226,-4.232882789837360882
0.443000000000000227,-4.101810848028063283
0.444000000000000228,-3.973140644218339013
0.445000000000000229,-3.846903296153281193
0.446000000000000230,-3.723127376850639880
0.447000000000000230,-3.601838943312043906
0.448000000000000231,-3.483061567941462044
0.449000000000000232,-3.366816372496696630
0.450000000000000233,-3.253122064403911828
0.451000000000000234,-3.141994975269537527
0.452000000000000235,-3.033449101428339123
0.453000000000000236,-2.927496146370869301
0.454000000000000237,-2.824145564898384198
0.455000000000000238,-2.723404608857480369
0.456000000000000238,-2.625278374311946550
0.457000000000000239,-2.529769850013447119
0.458000000000000240,-2.436879967037982375
0.459000000000000241,-2.346607649459107936
0.460000000000000242,-2.258949865934295698
0.461000000000000243,-2.173901682084862230
0.462000000000000244,-2.091456313555062785
0.463000000000000245,-2.011605179640107988
0.464000000000000246,-1.934337957377821215
0.465000000000000246,-1.859642636002894589
0.466000000000000247,-1.787505571667253879
0.467000000000000248,-1.717911542334328301
0.468000000000000249,-1.650843802759558887
0.469000000000000250,-1.586284139473388199
0.470000000000000251,-1.524212925687425280
0.471000000000000252,-1.464609176048237815
0.472000000000000253,-1.407450601167587800
0.473000000000000254,-1.352713661861391525
0.474000000000000254,-1.300373623033793447
0.475000000000000255,-1.250404607146296865
0.476000000000000256,-1.202779647215472592
0.477000000000000257,-1.157470739286414307
0.478000000000000258,-1.114448894332324969
0.479000000000000259,-1.073684189534007904
0.480000000000000260,-1.035145818896329839
0.481000000000000261,-0.998802143161558575
0.482000000000000262,-0.964620738982861048
0.483000000000000262,-0.932568447323712135
0.484000000000000263,-0.902611421052165852
0.485000000000000264,-0.874715171701282435
0.486000000000000265,-0.848844615369968580
0.487000000000000266,-0.824964117740644043
0.488000000000000267,-0.803037538192729050
0.489000000000000268,-0.783028272993394947
0.490000000000000269,-0.764899297548830348
0.491000000000000270,-0.748613207701906092
0.492000000000000270,-0.734132260063705577
0.493000000000000271,-0.721418411368705326
0.494000000000000272,-0.710433356844890618
0.495000000000000273,-0.701138567592258011
0.496000000000000274,-0.693495326964489789
0.497000000000000275,-0.687464765950365542
0.498000000000000276,-0.683007897553097987
0.499000000000000277,-0.680085650166933453
0.500000000000000222,-0.678658899952129024
0.501000000000000334,-0.678688502210290090
0.502000000000000224,-0.680135321763726930
0.503000000000000336,-0.682960262343206059
0.504000000000000226,-0.687124294989975071
0.505000000000000338,-0.692588485478637716
0.506000000000000227,-0.699314020768673883
0.507000000000000339,-0.707262234493078679
0.508000000000000229,-0.716394631493618927
0.509000000000000341,-0.726672911412944544
0.510000000000000231,-0.738058991354431315
0.511000000000000343,-0.750515027621443620
0.512000000000000233,-0.764003436548200687
0.513000000000000345,-0.778486914435166488
0.514000000000000234,-0.793928456602266408
0.515000000000000346,-0.810291375573776618
0.516000000000000236,-0.827539318409157842
0.517000000000000348,-0.845636283194605154
0.518000000000000238,-0.864546634710180895
0.519000000000000350,-0.884235119288110050
0.520000000000000240,-0.904666878877649516
0.521000000000000352,-0.925807464332630614
0.522000000000000242,-0.947622847937547363
0.523000000000000353,-0.970079435188756500
0.524000000000000243,-0.993144075846889129
0.525000000000000355,-1.016784074277318872
0.526000000000000245,-1.040967199095099938
0.527000000000000357,-1.065661692131266047
0.528000000000000247,-1.090836276737092270
0.529000000000000359,-1.116460165443185382
0.530000000000000249,-1.142503066990104177
0.531000000000000361,-1.168935192747292406
0.532000000000000250,-1.195727262536952606
0.533000000000000362,-1.222850509879603642
0.534000000000000252,-1.250276686677608051
0.535000000000000364,-1.277978067353535696
0.536000000000000254,-1.305927452459164639
0.537000000000000366,-1.334098171771806118
0.538000000000000256,-1.362464086893639736
0.539000000000000368,-1.390999593370195075
0.540000000000000258,-1.419679622343529513
0.541000000000000369,-1.448479641755856751
0.542000000000000259,-1.477375657118707997
0.543000000000000371,-1.506344211863076321
0.544000000000000261,-1.535362387285313490
0.545000000000000373,-1.564407802103578549
0.546000000000000263,-1.593458611639312128
0.547000000000000375,-1.622493506638177152
0.548000000000000265,-1.651491711744242252
0.549000000000000377,-1.680432983641571898
0.550000000000000266,-1.709297608876429120
0.551000000000000378,-1.738066401373763892
0.552000000000000268,-1.766720699660770721
0.553000000000000380,-1.795242363810534814
0.554000000000000270,-1.823613772118185539
0.555000000000000382,-1.851817817521990595
0.556000000000000272,-1.879837903781306441
0.557000000000000384,-1.907657941423225534
0.558000000000000274,-1.935262343469466684
0.559000000000000385,-1.962636020954695137
0.560000000000000275,-1.989764378247282917
0.561000000000000387,-2.016633308183302553
0.562000000000000277,-2.043229187024054205
0.563000000000000389,-2.069538869247549151
0.564000000000000279,-2.095549682183682982
0.565000000000000391,-2.121249420502958394
0.566000000000000281,-2.146626340567987068
0.567000000000000393,-2.171669154657166700
0.568000000000000282,-2.196367025069235535
0.569000000000000394,-2.220709558117547111
0.570000000000000284,-2.244686798022277330
0.571000000000000396,-2.268289220708997078
0.572000000000000286,-2.291507727521271853
0.573000000000000398,-2.314333638855154529
0.574000000000000288,-2.336758687722881866
0.575000000000000400,-2.358775013253166186
0.576000000000000290,-2.380375154134816373
0.577000000000000401,-2.401552042010703936
0.578000000000000291,-2.422298994828382401
0.579000000000000403,-2.442609710153814007
0.580000000000000293,-2.462478258454185109
0.581000000000000405,-2.481899076355838396
0.582000000000000295,-2.500866959882750873
0.583000000000000407,-2.519377057681318810
0.584000000000000297,-2.537424864236384359
0.585000000000000409,-2.555006213083888866
0.586000000000000298,-2.572117270024716795
0.587000000000000410,-2.588754526344662743
0.588000000000000300,-2.604914792044797700
0.589000000000000412,-2.620595189086727395
0.590000000000000302,-2.635793144656694231
0.591000000000000414,-2.650506384452647524
0.592000000000000304,-2.664732925997914670
0.593000000000000416,-2.678471071985180085
0.594000000000000306,-2.691719403654190934
0.595000000000000417,-2.704476774206521661
0.596000000000000307,-2.716742302260430009
0.597000000000000419,-2.728515365348931354
0.598000000000000309,-2.739795593463864254
0.599000000000000421,-2.750582862648576654
0.600000000000000311,-2.760877288641924832
0.601000000000000423,-2.770679220575916535
0.602000000000000313,-2.779989234729258740
0.603000000000000425,-2.788808128339085535
0.604000000000000314,-2.797136913472757946
0.605000000000000426,-2.804976810961759881
0.606000000000000316,-2.812329244399423445
0.607000000000000428,-2.819195834204144990
0.608000000000000318,-2.825578391749742124
0.609000000000000430,-2.831478913564333677
0.610000000000000320,-2.836899575599094447
0.611000000000000432,-2.841842727568203220
0.612000000000000322,-2.846310887361071185
0.613000000000000433,-2.850306735527936564
0.614000000000000323,-2.853833109839813531
0.615000000000000435,-2.856892999923635657
0.616000000000000325,-2.859489541973381677
0.617000000000000437,-2.861626013537963420
0.618000000000000327,-2.863305828386411456
0.619000000000000439,-2.864532531450961095
0.620000000000000329,-2.865309793848527242
0.621000000000000441,-2.865641407980917599
0.622000000000000330,-2.865531282714194994
0.623000000000000442,-2.864983438637393132
0.624000000000000332,-2.864002003400798912
0.625000000000000444,-2.862591207134002502
0.626000000000000334,-2.860755377943722255
0.627000000000000446,-2.858498937491469327
0.628000000000000336,-2.855826396651034660
0.629000000000000448,-2.852742351245688202
0.630000000000000338,-2.849251477864969129
0.631000000000000449,-2.845358529760905419
0.632000000000000339,-2.841068332823434517
0.633000000000000451,-2.836385781634712000
0.634000000000000341,-2.831315835602050690
0.635000000000000453,-2.825863515169152684
0.636000000000000343,-2.820033898105144488
0.637000000000000455,-2.813832115871140793
0.638000000000000345,-2.807263350063719187
0.639000000000000457,-2.800332828934937179
0.640000000000000346,-2.793045823988303589
0.641000000000000458,-2.785407646650167823
0.642000000000000348,-2.777423645015944409
0.643000000000000460,-2.769099200670551486
0.644000000000000350,-2.760439725582482851
0.645000000000000462,-2.751450659070759919
0.646000000000000352,-2.742137464844190298
0.647000000000000464,-2.732505628112154916
0.648000000000000353,-2.722560652766277123
0.649000000000000465,-2.712308058632120655
0.650000000000000355,-2.701753378790346716
0.651000000000000467,-2.690902156966327397
0.652000000000000357,-2.679759944987687881
0.653000000000000469,-2.668332300308706717
0.654000000000000359,-2.656624783601048811
0.655000000000000471,-2.644642956409755552
0.656000000000000361,-2.632392378873839256
0.657000000000000473,-2.619878607510531587
0.658000000000000362,-2.607107193062419448
0.659000000000000474,-2.594083678406531757
