# Pt001_CS-10955-AC
# h[nm],U(h)[kJ/mol]
0.149999999999999994,126.689235464855258328
0.150999999999999995,120.585959722361849344
0.151999999999999996,115.903397275935319044
0.152999999999999997,111.559653937623011188
0.153999999999999998,107.196307941990724544
0.154999999999999999,102.773115930702900300
0.156000000000000000,98.359189744663041211
0.157000000000000001,94.035842360990955058
0.158000000000000002,89.859653022135617562
0.159000000000000002,85.855476477112105727
0.160000000000000003,82.022309099478064809
0.161000000000000004,78.342939998510885857
0.162000000000000005,74.793032281184693488
0.163000000000000006,71.347933521238331878
0.164000000000000007,67.986909269454571358
0.165000000000000008,64.695144638278691218
0.166000000000000009,61.464091028040321874
0.167000000000000010,58.290747201697783453
0.168000000000000010,55.176374661637872521
0.169000000000000011,52.125023934862440456
0.170000000000000012,49.142126512044043807
0.171000000000000013,46.233303338996641685
0.172000000000000014,43.403460498867346473
0.173000000000000015,40.656185734737448456
0.174000000000000016,37.993422623755449763
0.175000000000000017,35.415378397568389346
0.176000000000000018,32.920612465358850329
0.177000000000000018,30.506251964660680898
0.178000000000000019,28.168285137394740048
0.179000000000000020,25.901890692123931359
0.180000000000000021,23.701769886530087206
0.181000000000000022,21.562456695670881857
0.182000000000000023,19.478589393335234092
0.183000000000000024,17.445133757647777628
0.184000000000000025,15.457553741236896627
0.185000000000000026,13.511929802532051781
0.186000000000000026,11.605028261149504587
0.187000000000000027,9.734327158158732729
0.188000000000000028,7.898005339675455261
0.189000000000000029,6.094902013698700216
0.190000000000000030,4.324454021028845574
0.191000000000000031,2.586617660440179378
0.192000000000000032,0.881781244141532694
0.193000000000000033,-0.789326262143371538
0.194000000000000034,-2.425726055096859124
0.195000000000000034,-4.026276210127684330
0.196000000000000035,-5.589751608128639582
0.197000000000000036,-7.114915178097694692
0.198000000000000037,-8.600579266245512500
0.199000000000000038,-10.045656546955056498
0.200000000000000039,-11.449200392413652949
0.201000000000000040,-12.810435018542918328
0.202000000000000041,-14.128776031467026542
0.203000000000000042,-15.403842220117118345
0.204000000000000042,-16.635459587006081961
0.205000000000000043,-17.823658691616881100
0.206000000000000044,-18.968666410085823770
0.207000000000000045,-20.070893201274163431
0.208000000000000046,-21.130916922473836905
0.209000000000000047,-22.149464166467868864
0.210000000000000048,-23.127390002982824768
0.211000000000000049,-24.065656908155865779
0.212000000000000050,-24.965313560862746556
0.213000000000000050,-25.827474078969583360
0.214000000000000051,-26.653298165234097894
0.215000000000000052,-27.443972534307381039
0.216000000000000053,-28.200693900980571271
0.217000000000000054,-28.924653726769797402
0.218000000000000055,-29.617024847904890095
0.219000000000000056,-30.278950043124162050
0.220000000000000057,-30.911532544388073518
0.221000000000000058,-31.515828447431648129
0.222000000000000058,-32.092840941533339105
0.223000000000000059,-32.643516248361450494
0.224000000000000060,-33.168741137580902034
0.225000000000000061,-33.669341871298989588
0.226000000000000062,-34.146084419620699180
0.227000000000000063,-34.599675784798925804
0.228000000000000064,-35.030766270944084795
0.229000000000000065,-35.439952539293244627
0.230000000000000066,-35.827781294955762803
0.231000000000000066,-36.194753459248410365
0.232000000000000067,-36.541328691647819937
0.233000000000000068,-36.867930136537736985
0.234000000000000069,-37.174949281878966190
0.235000000000000070,-37.462750829311495693
0.236000000000000071,-37.731677487695428397
0.237000000000000072,-37.982054614449211272
0.238000000000000073,-38.214194641033749633
0.239000000000000073,-38.428401230390342391
0.240000000000000074,-38.624973124939820934
0.241000000000000075,-38.804207653790868449
0.242000000000000076,-38.966403877024013980
0.243000000000000077,-39.111865353275518942
0.244000000000000078,-39.240902524324376088
0.245000000000000079,-39.353834716988075115
0.246000000000000080,-39.450991768377171809
0.247000000000000081,-39.532715285474203881
0.248000000000000081,-39.599359554127161687
0.249000000000000082,-39.651292115930132809
0.250000000000000111,-39.688894034155111967
0.251000000000000112,-39.712559871952464619
0.252000000000000113,-39.722697407514246493
0.253000000000000114,-39.719727111846111711
0.254000000000000115,-39.704081415284143475
0.255000000000000115,-39.676203788970425990
0.256000000000000116,-39.636547667226309954
0.257000000000000117,-39.585575236180496006
0.258000000000000118,-39.523756113171394588
0.259000000000000119,-39.451565940393336973
0.260000000000000120,-39.369484915035940276
0.261000000000000121,-39.277996276811599330
0.262000000000000122,-39.177584772314347106
0.263000000000000123,-39.068735114132088881
0.264000000000000123,-38.951930451073913275
0.265000000000000124,-38.827650864295002009
0.266000000000000125,-38.696371902529953957
0.267000000000000126,-38.558563168092419460
0.268000000000000127,-38.414686963786863316
0.269000000000000128,-38.265197009414734453
0.270000000000000129,-38.110537235155405256
0.271000000000000130,-37.951140657769428799
0.272000000000000131,-37.787428344314733408
0.273000000000000131,-37.619808466889224974
0.274000000000000132,-37.448675450819827404
0.275000000000000133,-37.274409217710342546
0.276000000000000134,-37.097374523837331139
0.277000000000000135,-36.917920393546921787
0.278000000000000136,-36.736379646552435929
0.279000000000000137,-36.553068517361722911
0.280000000000000138,-36.368286364472304228
0.281000000000000139,-36.182315466456884678
0.282000000000000139,-35.995420901619830545
0.283000000000000140,-35.807850507532123174
0.284000000000000141,-35.619834916443188888
0.285000000000000142,-35.431587662321106791
0.286000000000000143,-35.243305355080636332
0.287000000000000144,-35.055167917419410628
0.288000000000000145,-34.867338879591486034
0.289000000000000146,-34.679965727399107323
0.290000000000000147,-34.493180298675000017
0.291000000000000147,-34.307099223554899936
0.292000000000000148,-34.121824403898258993
0.293000000000000149,-33.937443527301510926
0.294000000000000150,-33.754030611259153716
0.295000000000000151,-33.571646573159959814
0.296000000000000152,-33.390339821955237198
0.297000000000000153,-33.210146867501300960
0.298000000000000154,-33.031092943755318458
0.299000000000000155,-32.853192642190883532
0.300000000000000155,-32.676450551994463467
0.301000000000000156,-32.500861903803475172
0.302000000000000157,-32.326413213950637271
0.303000000000000158,-32.153082926384250584
0.304000000000000159,-31.980842049639640834
0.305000000000000160,-31.809654786440784591
0.306000000000000161,-31.639479153713313764
0.307000000000000162,-31.470267590988072470
0.308000000000000163,-31.301967555367685492
0.309000000000000163,-31.134522101417566375
0.310000000000000164,-30.967870444524596252
0.311000000000000165,-30.801948506442489162
0.312000000000000166,-30.636689441911869380
0.313000000000000167,-30.472024145403935336
0.314000000000000168,-30.307881737190093929
0.315000000000000169,-30.144190028085837696
0.316000000000000170,-29.980875962354396336
0.317000000000000171,-29.817866038385169247
0.318000000000000171,-29.655086706882961778
0.319000000000000172,-29.492464746417802246
0.320000000000000173,-29.329927616289445780
0.321000000000000174,-29.167403786758775652
0.322000000000000175,-29.004823046787088003
0.323000000000000176,-28.842116789507127095
0.324000000000000177,-28.679218275723759035
0.325000000000000178,-28.516062875810440858
0.326000000000000179,-28.352588290428258233
0.327000000000000179,-28.188734750548995578
0.328000000000000180,-28.024445197311429467
0.329000000000000181,-27.859665442283198189
0.330000000000000182,-27.694344308735971083
0.331000000000000183,-27.528433754574127335
0.332000000000000184,-27.361888977582633942
0.333000000000000185,-27.194668503681601379
0.334000000000000186,-27.026734258892123108
0.335000000000000187,-26.858051625730610112
0.336000000000000187,-26.688589484758477255
0.337000000000000188,-26.518320242018642574
0.338000000000000189,-26.347219843093419911
0.339000000000000190,-26.175267774516868258
0.340000000000000191,-26.002447053270742572
0.341000000000000192,-25.828744205088280950
0.342000000000000193,-25.654149232279529258
0.343000000000000194,-25.478655571783242806
0.344000000000000195,-25.302260044136296813
0.345000000000000195,-25.124962794038630420
0.346000000000000196,-24.946767223175250194
0.347000000000000197,-24.767679915940068014
0.348000000000000198,-24.587710558688815610
0.349000000000000199,-24.406871853128293992
0.350000000000000200,-24.225179424430457686
0.351000000000000201,-24.042651724638467670
0.352000000000000202,-23.859309931911315772
0.353000000000000203,-23.675177846132221759
0.354000000000000203,-23.490281781384062754
0.355000000000000204,-23.304650455773177953
0.356000000000000205,-23.118314879061344413
0.357000000000000206,-22.931308238543309130
0.358000000000000207,-22.743665783585313989
0.359000000000000208,-22.555424709218861778
0.360000000000000209,-22.366624039161870030
0.361000000000000210,-22.177304508618426837
0.362000000000000210,-21.987508447187401828
0.363000000000000211,-21.797279662189684046
0.364000000000000212,-21.606663322703855812
0.365000000000000213,-21.415705844580212869
0.366000000000000214,-21.224454776684304136
0.367000000000000215,-21.032958688602288788
0.368000000000000216,-20.841267060022694579
0.369000000000000217,-20.649430171991333793
0.370000000000000218,-20.457499000219648622
0.371000000000000218,-20.265525110610262516
0.372000000000000219,-20.073560557147867911
0.373000000000000220,-19.881657782288634451
0.374000000000000221,-19.689869519966933353
0.375000000000000222,-19.498248701324094156
0.376000000000000223,-19.306848363251056355
0.377000000000000224,-19.115721559823995790
0.378000000000000225,-18.924921276700061412
0.379000000000000226,-18.734500348529014246
0.380000000000000226,-18.544511379425795639
0.381000000000000227,-18.355006666538738358
0.382000000000000228,-18.166038126738680347
0.383000000000000229,-17.977657226445064254
0.384000000000000230,-17.789914914596323570
0.385000000000000231,-17.602861558764615779
0.386000000000000232,-17.416546884406468365
0.387000000000000233,-17.231019917234704053
0.388000000000000234,-17.046328928690122950
0.389000000000000234,-16.862521384485685161
0.390000000000000235,-16.679643896189862318
0.391000000000000236,-16.497742175811385579
0.392000000000000237,-16.316860993342196195
0.393000000000000238,-16.137044137211731254
0.394000000000000239,-15.958334377601161691
0.395000000000000240,-15.780773432563174552
0.396000000000000241,-15.604401936889354729
0.397000000000000242,-15.429259413664391687
0.398000000000000242,-15.255384248444107342
0.399000000000000243,-15.082813665991670504
0.400000000000000244,-14.911583709504540707
0.401000000000000245,-14.741729222263412424
0.402000000000000246,-14.573283831632448226
0.403000000000000247,-14.406279935339284748
0.404000000000000248,-14.240748689962382301
0.405000000000000249,-14.076720001552576633
0.406000000000000250,-13.914222518315060739
0.407000000000000250,-13.753283625277973101
0.408000000000000251,-13.593929440873461445
0.409000000000000252,-13.436184815357364641
0.410000000000000253,-13.280073330993577230
0.411000000000000254,-13.125617303929981716
0.412000000000000255,-12.972837787692787614
0.413000000000000256,-12.821754578227347210
0.414000000000000257,-12.672386220413706326
0.415000000000000258,-12.524750015986446883
0.416000000000000258,-12.378862032789136549
0.417000000000000259,-12.234737115294676002
0.418000000000000260,-12.092388896324262504
0.419000000000000261,-11.951829809898415036
0.420000000000000262,-11.813071105155321661
0.421000000000000263,-11.676122861272707709
0.422000000000000264,-11.540994003330839135
0.423000000000000265,-11.407692319055875885
0.424000000000000266,-11.276224476384211215
0.425000000000000266,-11.146596041789694098
0.426000000000000267,-11.018811499317461511
0.427000000000000268,-10.892874270269491177
0.428000000000000269,-10.768786733488564522
0.429000000000000270,-10.646550246188953182
0.430000000000000271,-10.526165165283638103
0.431000000000000272,-10.407630869159657294
0.432000000000000273,-10.290945779854421716
0.433000000000000274,-10.176107385587892296
0.434000000000000274,-10.063112263606683427
0.435000000000000275,-9.951956103297941780
0.436000000000000276,-9.842633729532508369
0.437000000000000277,-9.735139126198053106
0.438000000000000278,-9.629465459884908540
0.439000000000000279,-9.525605103688517872
0.440000000000000280,-9.423549661093911567
0.441000000000000281,-9.323289989909294917
0.442000000000000282,-9.224816226217225079
0.443000000000000282,-9.128117808313110260
0.444000000000000283,-9.033183500602440574
0.445000000000000284,-8.940001417429396469
0.446000000000000285,-8.848559046810709816
0.447000000000000286,-8.758843274050407857
0.448000000000000287,-8.670840405211725610
0.449000000000000288,-8.584536190424390867
0.450000000000000289,-8.499915847006210612
0.451000000000000290,-8.416964082379378098
0.452000000000000290,-8.335665116763008697
0.453000000000000291,-8.256002705624506888
0.454000000000000292,-8.177960161873588874
0.455000000000000293,-8.101520377783625548
0.456000000000000294,-8.026665846626432455
0.457000000000000295,-7.953378684007097021
0.458000000000000296,-7.881640648886913070
0.459000000000000297,-7.811433164283107189
0.460000000000000298,-7.742737337635136718
0.461000000000000298,-7.675533980828085134
0.462000000000000299,-7.609803629864721586
0.463000000000000300,-7.545526564178354434
0.464000000000000301,-7.482682825579638930
0.465000000000000302,-7.421252236831159976
0.466000000000000303,-7.361214419844325008
0.467000000000000304,-7.302548813493740631
0.468000000000000305,-7.245234691045185471
0.469000000000000306,-7.189251177193606068
0.470000000000000306,-7.134577264708394928
0.471000000000000307,-7.081191830683674304
0.472000000000000308,-7.029073652392085592
0.473000000000000309,-6.978201422740754722
0.474000000000000310,-6.928553765329018788
0.475000000000000311,-6.880109249107722924
0.476000000000000312,-6.832846402640498695
0.477000000000000313,-6.786743727967708750
0.478000000000000314,-6.741779714074416674
0.479000000000000314,-6.697932849963931901
0.480000000000000315,-6.655181637338874800
0.481000000000000316,-6.613504602892194661
0.482000000000000317,-6.572880310210777566
0.483000000000000318,-6.533287371294589363
0.484000000000000319,-6.494704457694723487
0.485000000000000320,-6.457110311273891234
0.486000000000000321,-6.420483754593118597
0.487000000000000322,-6.384803700928810777
0.488000000000000322,-6.350049163924378348
0.489000000000000323,-6.316199266880994756
0.490000000000000324,-6.283233251692142751
0.491000000000000325,-6.251130487426831195
0.492000000000000326,-6.219870478566470240
0.493000000000000327,-6.189432872900672677
0.494000000000000328,-6.159797469087203936
0.495000000000000329,-6.130944223881606092
0.496000000000000330,-6.102853259041980394
0.497000000000000330,-6.075504867914624185
0.498000000000000331,-6.048879521706242990
0.499000000000000332,-6.022957875448566867
0.500000000000000333,-5.997720773661231242
0.501000000000000334,-5.973149255718911199
0.502000000000000335,-5.949224560928612071
0.503000000000000336,-5.925928133323258074
0.504000000000000337,-5.903241626177520018
0.505000000000000338,-5.881146906252043394
0.506000000000000338,-5.859626057772112873
0.507000000000000339,-5.838661386146884347
0.508000000000000340,-5.818235421435271171
0.509000000000000341,-5.798330921564556206
0.510000000000000342,-5.778930875307823456
0.511000000000000343,-5.760018505026256896
0.512000000000000344,-5.741577269182342569
0.513000000000000345,-5.723590864629922947
0.514000000000000346,-5.706043228687180502
0.515000000000000346,-5.688918540998316509
0.516000000000000347,-5.672201225189914098
0.517000000000000348,-5.655875950327813761
0.518000000000000349,-5.639927632180163464
0.519000000000000350,-5.624341434292467135
0.520000000000000351,-5.609102768880294576
0.521000000000000352,-5.594197297545141723
0.522000000000000353,-5.579610931819063424
0.523000000000000353,-5.565329833543483318
0.524000000000000354,-5.551340415087612001
0.525000000000000355,-5.537629339411741292
0.526000000000000356,-5.524183519980661927
0.527000000000000357,-5.510990120532397896
0.528000000000000358,-5.498036554707288914
0.529000000000000359,-5.485310485542440162
0.530000000000000360,-5.472799824836465987
0.531000000000000361,-5.460492732389352177
0.532000000000000361,-5.448377615122180551
0.533000000000000362,-5.436443126081382360
0.534000000000000363,-5.424678163332120384
0.535000000000000364,-5.413071868745241488
0.536000000000000365,-5.401613626682257419
0.537000000000000366,-5.390293062582641959
0.538000000000000367,-5.379100041457671288
0.539000000000000368,-5.368024666294970437
0.540000000000000369,-5.357057276377797272
0.541000000000000369,-5.346188445523031518
0.542000000000000370,-5.335408980241778565
0.543000000000000371,-5.324709917826313088
0.544000000000000372,-5.314082524367151450
0.545000000000000373,-5.303518292703785164
0.546000000000000374,-5.293008940312672550
0.547000000000000375,-5.282546407135864541
0.548000000000000376,-5.272122853353726768
0.549000000000000377,-5.261730657104921605
0.550000000000000377,-5.251362412156884041
0.551000000000000378,-5.241010925529937303
0.552000000000000379,-5.230669215078021850
0.553000000000000380,-5.220330507028991818
0.554000000000000381,-5.209988233487361953
0.555000000000000382,-5.199636029902288570
0.556000000000000383,-5.189267732503442865
0.557000000000000384,-5.178877375707465980
0.558000000000000385,-5.168459189497520256
0.559000000000000385,-5.158007596778447557
0.560000000000000386,-5.147517210709846580
0.561000000000000387,-5.136982832019528544
0.562000000000000388,-5.126399446299497953
0.563000000000000389,-5.115762221286692224
0.564000000000000390,-5.105066504130571836
0.565000000000000391,-5.094307818649640218
0.566000000000000392,-5.083481862578831389
0.567000000000000393,-5.072584504809702466
0.568000000000000393,-5.061611782625254463
0.569000000000000394,-5.050559898931191505
0.570000000000000395,-5.039425219485334395
0.571000000000000396,-5.028204270126787279
0.572000000000000397,-5.016893734006567129
0.573000000000000398,-5.005490448821115379
0.574000000000000399,-4.993991404050250438
0.575000000000000400,-4.982393738200967093
0.576000000000000401,-4.970694736058408836
0.577000000000000401,-4.958891825945398679
0.578000000000000402,-4.946982576991723946
0.579000000000000403,-4.934964696414421148
0.580000000000000404,-4.922836026810195165
0.581000000000000405,-4.910594543461111350
0.582000000000000406,-4.898238351654578437
0.583000000000000407,-4.885765684018664068
0.584000000000000408,-4.873174897873708389
0.585000000000000409,-4.860464472601127461
0.586000000000000409,-4.847633007030327512
0.587000000000000410,-4.834679216844526728
0.588000000000000411,-4.821601932006291946
0.589000000000000412,-4.808400094203548747
0.590000000000000413,-4.795072754316751507
0.591000000000000414,-4.781619069907931063
0.592000000000000415,-4.768038302732201750
0.593000000000000416,-4.754329816272374387
0.594000000000000417,-4.740493073297210813
0.595000000000000417,-4.726527633443873277
0.596000000000000418,-4.712433150825018124
0.597000000000000419,-4.698209371661087097
0.598000000000000420,-4.683856131938110678
0.599000000000000421,-4.669373355091534172
0.600000000000000422,-4.654761049716367616
0.601000000000000423,-4.640019307304031670
0.602000000000000424,-4.625148300006214797
0.603000000000000425,-4.610148278426034807
0.604000000000000425,-4.595019569436726847
0.605000000000000426,-4.579762574028160671
0.606000000000000427,-4.564377765181362179
0.607000000000000428,-4.548865685771195544
