# Pt001_BSAI15
# h[nm],U(h)[kJ/mol]
0.149999999999999994,86.176916601445697097
0.150999999999999995,80.553083173037890674
0.151999999999999996,76.761309764756887830
0.152999999999999997,73.383504422261268019
0.153999999999999998,69.915652540599069198
0.154999999999999999,66.275823545714061424
0.156000000000000000,62.541837618684027689
0.157000000000000001,58.822808520871284088
0.158000000000000002,55.205312706858236993
0.159000000000000002,51.738487737465504779
0.160000000000000003,48.437295143635097361
0.161000000000000004,45.292453697774682553
0.162000000000000005,42.281151493923559315
0.163000000000000006,39.375909435805176884
0.164000000000000007,36.550772966426862354
0.165000000000000008,33.784925670117516461
0.166000000000000009,31.064215105240371884
0.167000000000000010,28.381188973254104724
0.168000000000000010,25.734200154780278780
0.169000000000000011,23.126036078407636865
0.170000000000000012,20.562408468458446720
0.171000000000000013,18.050528146652585093
0.172000000000000014,15.597897014060126963
0.173000000000000015,13.211378594643997886
0.174000000000000016,10.896558424314783053
0.175000000000000017,8.657373053239476590
0.176000000000000018,6.495967815685931512
0.177000000000000018,4.412735231020539217
0.178000000000000019,2.406484796932067738
0.179000000000000020,0.474698461902254176
0.180000000000000021,-1.386167758850378018
0.181000000000000022,-3.180368182015841594
0.182000000000000023,-4.912562456428912760
0.183000000000000024,-6.587538640007727153
0.184000000000000025,-8.209975557179573613
0.185000000000000026,-9.784250392759838988
0.186000000000000026,-11.314293298408687249
0.187000000000000027,-12.803487629365037037
0.188000000000000028,-14.254612190725353571
0.189000000000000029,-15.669820424342370657
0.190000000000000030,-17.050650670098157491
0.191000000000000031,-18.398061352385081335
0.192000000000000032,-19.712485048353602934
0.193000000000000033,-20.993895778149067155
0.194000000000000034,-22.241884425142664838
0.195000000000000034,-23.455737869312478949
0.196000000000000035,-24.634518138800299170
0.197000000000000036,-25.777138607161724337
0.198000000000000037,-26.882434953471818773
0.199000000000000038,-27.949229236419533606
0.200000000000000039,-28.976385997684793949
0.201000000000000040,-29.962859796999644857
0.202000000000000041,-30.907733989394621688
0.203000000000000042,-31.810250886172195095
0.204000000000000042,-32.669833699827165674
0.205000000000000043,-33.486100865930218617
0.206000000000000044,-34.258873469430753289
0.207000000000000045,-34.988176586876356566
0.208000000000000046,-35.674235397663537128
0.209000000000000047,-36.317466924279152352
0.210000000000000048,-36.918468240686891590
0.211000000000000049,-37.478001946010898848
0.212000000000000050,-37.996979643183507847
0.213000000000000050,-38.476444094195052514
0.214000000000000051,-38.917550649205978175
0.215000000000000052,-39.321548469521346192
0.216000000000000053,-39.689761987089958950
0.217000000000000054,-40.023572967977273152
0.218000000000000055,-40.324403475843226374
0.219000000000000056,-40.593699965032477905
0.220000000000000057,-40.832918672273152083
0.221000000000000058,-41.043512421650270028
0.222000000000000058,-41.226918909687306325
0.223000000000000059,-41.384550496016920818
0.224000000000000060,-41.517785490074537336
0.225000000000000061,-41.627960895197517743
0.226000000000000062,-41.716366548058161356
0.227000000000000063,-41.784240573042225719
0.228000000000000064,-41.832766057506958646
0.229000000000000065,-41.863068844303803928
0.230000000000000066,-41.876216332015403054
0.231000000000000066,-41.873217170538922005
0.232000000000000067,-41.855021739469705722
0.233000000000000068,-41.822523298753807808
0.234000000000000069,-41.776559704876000012
0.235000000000000070,-41.717915591052175728
0.236000000000000071,-41.647324916167796971
0.237000000000000072,-41.565473794247893125
0.238000000000000073,-41.473003523798304570
0.239000000000000073,-41.370513744196948380
0.240000000000000074,-41.258565654248641863
0.241000000000000075,-41.137685235886429780
0.242000000000000076,-41.008366433676876284
0.243000000000000077,-40.871074248161598064
0.244000000000000078,-40.726247708062700781
0.245000000000000079,-40.574302692933329695
0.246000000000000080,-40.415634583906594912
0.247000000000000081,-40.250620725758366802
0.248000000000000081,-40.079622688539600972
0.249000000000000082,-39.902988321549194950
0.250000000000000111,-39.721053596417441156
0.251000000000000112,-39.534144239565058854
0.252000000000000113,-39.342577157317954573
0.253000000000000114,-39.146661659513704024
0.254000000000000115,-38.946700489565714065
0.255000000000000115,-38.742990670680754306
0.256000000000000116,-38.535824179292220037
0.257000000000000117,-38.325488457802727282
0.258000000000000118,-38.112266779462636634
0.259000000000000119,-37.896438478674532746
0.260000000000000120,-37.678279060240733145
0.261000000000000121,-37.458060201090717101
0.262000000000000122,-37.236049657866260532
0.263000000000000123,-37.012511093430866538
0.264000000000000123,-36.787703834931463120
0.265000000000000124,-36.561882575497229197
0.266000000000000125,-36.335297031034080817
0.267000000000000126,-36.108191562881913228
0.268000000000000127,-35.880804776363362407
0.269000000000000128,-35.653369104482443674
0.270000000000000129,-35.426110385242147061
0.271000000000000130,-35.199247440254332275
0.272000000000000131,-34.972991661523202822
0.273000000000000131,-34.747546612503533936
0.274000000000000132,-34.523107648774683298
0.275000000000000133,-34.299861562937877579
0.276000000000000134,-34.077986257640105805
0.277000000000000135,-33.857650449960637218
0.278000000000000136,-33.639013409765297524
0.279000000000000137,-33.422224734043794570
0.280000000000000138,-33.207424158696667860
0.281000000000000139,-32.994741408732764398
0.282000000000000139,-32.784296087374045214
0.283000000000000140,-32.576197604143928288
0.284000000000000141,-32.370545141635751918
0.285000000000000142,-32.167427660319333427
0.286000000000000143,-31.966923940443912500
0.287000000000000144,-31.769102659834295821
0.288000000000000145,-31.574022506151390388
0.289000000000000146,-31.381732321996686608
0.290000000000000147,-31.192271281080746093
0.291000000000000147,-31.005669093546675441
0.292000000000000148,-30.821946238437902821
0.293000000000000149,-30.641114221224277969
0.294000000000000150,-30.463175854248486729
0.295000000000000151,-30.288125557924956865
0.296000000000000152,-30.115949680512692055
0.297000000000000153,-29.946626834291087960
0.298000000000000154,-29.780128245990500346
0.299000000000000155,-29.616418119366755946
0.300000000000000155,-29.455454007858026699
0.301000000000000156,-29.297187195322543118
0.302000000000000157,-29.141563082924839989
0.303000000000000158,-28.988521580315158133
0.304000000000000159,-28.837997499329866002
0.305000000000000160,-28.689920948529003653
0.306000000000000161,-28.544217726979656646
0.307000000000000162,-28.400809715788955856
0.308000000000000163,-28.259615265987935828
0.309000000000000163,-28.120549581465628108
0.310000000000000164,-27.983525095751922152
0.311000000000000165,-27.848451841545461605
0.312000000000000166,-27.715237811980944826
0.313000000000000167,-27.583789312725293996
0.314000000000000168,-27.454011304086520795
0.315000000000000169,-27.325807732410073214
0.316000000000000170,-27.199081850126344051
0.317000000000000171,-27.073736523898343620
0.318000000000000171,-26.949674530400482553
0.319000000000000172,-26.826798839338607650
0.320000000000000173,-26.705012883395539802
0.321000000000000174,-26.584220814858234405
0.322000000000000175,-26.464327748749326474
0.323000000000000176,-26.345239992349423375
0.324000000000000177,-26.226865261055685608
0.325000000000000178,-26.109112880577697524
0.326000000000000179,-25.991893975523161942
0.327000000000000179,-25.875121644473274785
0.328000000000000180,-25.758711121691824530
0.329000000000000181,-25.642579925652235318
0.330000000000000182,-25.526647994602662095
0.331000000000000183,-25.410837809423370004
0.332000000000000184,-25.295074504059250842
0.333000000000000185,-25.179285963837578777
0.334000000000000186,-25.063402912004058010
0.335000000000000187,-24.947358984830650286
0.336000000000000187,-24.831090795666593607
0.337000000000000188,-24.714537988318184603
0.338000000000000189,-24.597643280156258783
0.339000000000000190,-24.480352495359486653
0.340000000000000191,-24.362614588709465835
0.341000000000000192,-24.244381660360051711
0.342000000000000193,-24.125608962005646418
0.343000000000000194,-24.006254894876494888
0.344000000000000195,-23.886280999988091622
0.345000000000000195,-23.765651941071237019
0.346000000000000196,-23.644335480606031297
0.347000000000000197,-23.522302449379111522
0.348000000000000198,-23.399526709978271555
0.349000000000000199,-23.275985114632085526
0.350000000000000200,-23.151657457794964756
0.351000000000000201,-23.026526423869757565
0.352000000000000202,-22.900577530451155184
0.353000000000000203,-22.773799067463475154
0.354000000000000203,-22.646182032556232855
0.355000000000000204,-22.517720063110026274
0.356000000000000205,-22.388409365194441136
0.357000000000000206,-22.258248639807838742
0.358000000000000207,-22.127239006717282166
0.359000000000000208,-21.995383926204862490
0.360000000000000209,-21.862689119014554251
0.361000000000000210,-21.729162484781316067
0.362000000000000210,-21.594814019211973743
0.363000000000000211,-21.459655730275098762
0.364000000000000212,-21.323701553644784923
0.365000000000000213,-21.186967267630905098
0.366000000000000214,-21.049470407816595952
0.367000000000000215,-20.911230181611397683
0.368000000000000216,-20.772267382917153355
0.369000000000000217,-20.632604307091657603
0.370000000000000218,-20.492264666384258476
0.371000000000000218,-20.351273506005963299
0.372000000000000219,-20.209657120986101120
0.373000000000000220,-20.067442973956950425
0.374000000000000221,-19.924659613997345531
0.375000000000000222,-19.781336596656419857
0.376000000000000223,-19.637504405268792596
0.377000000000000224,-19.493194373663492058
0.378000000000000225,-19.348438610359483647
0.379000000000000226,-19.203269924332115437
0.380000000000000226,-19.057721752426765249
0.381000000000000227,-18.911828088487119715
0.382000000000000228,-18.765623414258843837
0.383000000000000229,-18.619142632121217673
0.384000000000000230,-18.472420999692520382
0.385000000000000231,-18.325494066348493760
0.386000000000000232,-18.178397611686406776
0.387000000000000233,-18.031167585961487276
0.388000000000000234,-17.883840052516440267
0.389000000000000234,-17.736451132219773541
0.390000000000000235,-17.589036949922842723
0.391000000000000236,-17.441633582941435066
0.392000000000000237,-17.294277011562339652
0.393000000000000238,-17.147003071571937483
0.394000000000000239,-16.999847408798864024
0.395000000000000240,-16.852845435660015028
0.396000000000000241,-16.706032289694924486
0.397000000000000242,-16.559442794070598381
0.398000000000000242,-16.413111420036024413
0.399000000000000243,-16.267072251302536756
0.400000000000000244,-16.121358950323610770
0.401000000000000245,-15.976004726445797388
0.402000000000000246,-15.831042305899874378
0.403000000000000247,-15.686503903599369636
0.404000000000000248,-15.542421196712354003
0.405000000000000249,-15.398825299970260616
0.406000000000000250,-15.255746742676411287
0.407000000000000250,-15.113215447375569767
0.408000000000000251,-14.971260710144884243
0.409000000000000252,-14.829911182465504993
0.410000000000000253,-14.689194854633447207
0.411000000000000254,-14.549139040667634859
0.412000000000000255,-14.409770364672528586
0.413000000000000256,-14.271114748612285794
0.414000000000000257,-14.133197401453035269
0.415000000000000258,-13.996042809629894776
0.416000000000000258,-13.859674728795079446
0.417000000000000259,-13.724116176803301315
0.418000000000000260,-13.589389427891243045
0.419000000000000261,-13.455516008007407436
0.420000000000000262,-13.322516691249466803
0.421000000000000263,-13.190411497366174132
0.422000000000000264,-13.059219690281366866
0.423000000000000265,-12.928959777598134195
0.424000000000000266,-12.799649511041620187
0.425000000000000266,-12.671305887799432455
0.426000000000000267,-12.543945152719308211
0.427000000000000268,-12.417582801324245523
0.428000000000000269,-12.292233583606055447
0.429000000000000270,-12.167911508558919564
0.430000000000000271,-12.044629849415215972
0.431000000000000272,-11.922401149546853816
0.432000000000000273,-11.801237228995844930
0.433000000000000274,-11.681149191598919401
0.434000000000000274,-11.562147432671549652
0.435000000000000275,-11.444241647217864966
0.436000000000000276,-11.327440838633554776
0.437000000000000277,-11.211753327869754315
0.438000000000000278,-11.097186763026943623
0.439000000000000279,-10.983748129348587241
0.440000000000000280,-10.871443759585082134
0.441000000000000281,-10.760279344699661408
0.442000000000000282,-10.650259944888620822
0.443000000000000282,-10.541390000889128586
0.444000000000000283,-10.433673345548751143
0.445000000000000284,-10.327113215631801069
0.446000000000000285,-10.221712263838199419
0.447000000000000286,-10.117472571011884241
0.448000000000000287,-10.014395658515942600
0.449000000000000288,-9.912482500753243997
0.450000000000000289,-9.811733537811557326
0.451000000000000290,-9.712148688213298797
0.452000000000000290,-9.613727361750736833
0.453000000000000291,-9.516468472388250888
0.454000000000000292,-9.420370451214131080
0.455000000000000293,-9.325431259424943775
0.456000000000000294,-9.231648401326538078
0.457000000000000295,-9.139018937336169657
0.458000000000000296,-9.047539496971229056
0.459000000000000297,-8.957206291810553722
0.460000000000000298,-8.868015128415065007
0.461000000000000298,-8.779961421195158877
0.462000000000000299,-8.693040205212918536
0.463000000000000300,-8.607246148907741201
0.464000000000000301,-8.522573566734832795
0.465000000000000302,-8.439016431706367172
0.466000000000000303,-8.356568387825856092
0.467000000000000304,-8.275222762406707844
0.468000000000000305,-8.194972578266730423
0.469000000000000306,-8.115810565790571474
0.470000000000000306,-8.037729174852898950
0.471000000000000307,-7.960720586595293469
0.472000000000000308,-7.884776725050771873
0.473000000000000309,-7.809889268609785162
0.474000000000000310,-7.736049661322446980
0.475000000000000311,-7.663249124031890958
0.476000000000000312,-7.591478665334366660
0.477000000000000313,-7.520729092361586154
0.478000000000000314,-7.450991021381907942
0.479000000000000314,-7.382254888216772670
0.480000000000000315,-7.314510958469315760
0.481000000000000316,-7.247749337562669147
0.482000000000000317,-7.181959980585398640
0.483000000000000318,-7.117132701942187722
0.484000000000000319,-7.053257184807944391
0.485000000000000320,-6.990322990384048474
0.486000000000000321,-6.928319566955408959
0.487000000000000322,-6.867236258747621669
0.488000000000000322,-6.807062314583467000
0.489000000000000323,-6.747786896338515028
0.490000000000000324,-6.689399087195555538
0.491000000000000325,-6.631887899698071465
0.492000000000000326,-6.575242283602872995
0.493000000000000327,-6.519451133532588649
0.494000000000000328,-6.464503296428491197
0.495000000000000329,-6.410387578804678910
0.496000000000000330,-6.357092753804545637
0.497000000000000330,-6.304607568060743183
0.498000000000000331,-6.252920748359996672
0.499000000000000332,-6.202021008114277478
0.500000000000000333,-6.151897053639859614
0.501000000000000334,-6.102537590246095434
0.502000000000000335,-6.053931328135706558
0.503000000000000336,-6.006066988118619498
0.504000000000000337,-5.958933307141312419
0.505000000000000338,-5.912519043633946758
0.506000000000000338,-5.866812982677460653
0.507000000000000339,-5.821803940992987592
0.508000000000000340,-5.777480771755975297
0.509000000000000341,-5.733832369237541471
0.510000000000000342,-5.690847673275515106
0.511000000000000343,-5.648515673577828800
0.512000000000000344,-5.606825413860856422
0.513000000000000345,-5.565765995825415757
0.514000000000000346,-5.525326582973143275
0.515000000000000346,-5.485496404266028136
0.516000000000000347,-5.446264757631849918
0.517000000000000348,-5.407621013318456349
0.518000000000000349,-5.369554617099522531
0.519000000000000350,-5.332055093334898466
0.520000000000000351,-5.295112047888233420
0.521000000000000352,-5.258715170904844527
0.522000000000000353,-5.222854239452712655
0.523000000000000353,-5.187519120029477904
0.524000000000000354,-5.152699770938410140
0.525000000000000355,-5.118386244536115903
0.526000000000000356,-5.084568689355005056
0.527000000000000357,-5.051237352103346012
0.528000000000000358,-5.018382579545748179
0.529000000000000359,-4.985994820266975935
0.530000000000000360,-4.954064626321943443
0.531000000000000361,-4.922582654774673827
0.532000000000000361,-4.891539669129057799
0.533000000000000362,-4.860926540654196160
0.534000000000000363,-4.830734249607102626
0.535000000000000364,-4.800953886355448397
0.536000000000000365,-4.771576652403127561
0.537000000000000366,-4.742593861321299009
0.538000000000000367,-4.713996939587537405
0.539000000000000368,-4.685777427335769296
0.540000000000000369,-4.657926979019520353
0.541000000000000369,-4.630437363991102728
0.542000000000000370,-4.603300466999229457
0.543000000000000371,-4.576508288607534780
0.544000000000000372,-4.550052945536515736
0.545000000000000373,-4.523926670931255778
0.546000000000000374,-4.498121814557341835
0.547000000000000375,-4.472630842927311612
0.548000000000000376,-4.447446339359997225
0.549000000000000377,-4.422561003974943006
0.550000000000000377,-4.397967653624172968
0.551000000000000378,-4.373659221763562144
0.552000000000000379,-4.349628758265864370
0.553000000000000380,-4.325869429177584102
0.554000000000000381,-4.302374516421750172
0.555000000000000382,-4.279137417448628078
0.556000000000000383,-4.256151644836347891
0.557000000000000384,-4.233410825843462177
0.558000000000000385,-4.210908701915284880
0.559000000000000385,-4.188639128145944746
0.560000000000000386,-4.166596072697954511
0.561000000000000387,-4.144773616181109510
0.562000000000000388,-4.123165950992520479
0.563000000000000389,-4.101767380619387282
0.564000000000000390,-4.080572318906336093
0.565000000000000391,-4.059575289288863686
0.566000000000000392,-4.038770923994540851
0.567000000000000393,-4.018153963213531910
0.568000000000000393,-3.997719254239949116
0.569000000000000394,-3.977461750585556732
0.570000000000000395,-3.957376511067277391
0.571000000000000396,-3.937458698869882312
0.572000000000000397,-3.917703580585313539
0.573000000000000398,-3.898106525229925179
0.574000000000000399,-3.878663003240989671
0.575000000000000400,-3.859368585453739620
0.576000000000000401,-3.840218942060168672
0.577000000000000401,-3.821209841550830877
0.578000000000000402,-3.802337149640789615
0.579000000000000403,-3.783596828180859184
0.580000000000000404,-3.764984934055250587
0.581000000000000405,-3.746497618066729096
0.582000000000000406,-3.728131123810239700
0.583000000000000407,-3.709881786536139092
0.584000000000000408,-3.691746032003901057
0.585000000000000409,-3.673720375327319321
0.586000000000000409,-3.655801419812106268
0.587000000000000410,-3.637985855786786793
0.588000000000000411,-3.620270459427742615
0.589000000000000412,-3.602652091579258808
0.590000000000000413,-3.585127696569363032
0.591000000000000414,-3.567694301022279912
0.592000000000000415,-3.550349012668191140
0.593000000000000416,-3.533089019151098853
0.594000000000000417,-3.515911586835453129
0.595000000000000417,-3.498814059612253224
0.596000000000000418,-3.481793857705228312
0.597000000000000419,-3.464848476477809136
0.598000000000000420,-3.447975485241410176
0.599000000000000421,-3.431172526065688455
0.600000000000000422,-3.414437312591261708
0.601000000000000423,-3.397767628845499210
0.602000000000000424,-3.381161328061868865
0.603000000000000425,-3.364616331503324176
0.604000000000000425,-3.348130627290249350
0.605000000000000426,-3.331702269233390190
0.606000000000000427,-3.315329375672226409
0.607000000000000428,-3.299010128319173951
