# Pt001_BSAIV6
# h[nm],U(h)[kJ/mol]
0.149999999999999994,97.652391251208328526
0.150999999999999995,91.792383398746778767
0.151999999999999996,87.923445862890019953
0.152999999999999997,84.495285771094017946
0.153999999999999998,80.963206396778545582
0.154999999999999999,77.243018243669013145
0.156000000000000000,73.422189192851462280
0.157000000000000001,69.619652628118970483
0.158000000000000002,65.927978133392699078
0.159000000000000002,62.398143463591431157
0.160000000000000003,59.043909347864044435
0.161000000000000004,55.853162909974422234
0.162000000000000005,52.799827003210950238
0.163000000000000006,49.853539887356404847
0.164000000000000007,46.986285472266750673
0.165000000000000008,44.176143997936108576
0.166000000000000009,41.408748897514705334
0.167000000000000010,38.677135899928423157
0.168000000000000010,35.980612534813872117
0.169000000000000011,33.323152522634337913
0.170000000000000012,30.711681464712047074
0.171000000000000013,28.154493927969848954
0.172000000000000014,25.659938556809674282
0.173000000000000015,23.235429849777194278
0.174000000000000016,20.886790890199563364
0.175000000000000017,18.617896822148388480
0.176000000000000018,16.430569864247459577
0.177000000000000018,14.324669009604098946
0.178000000000000019,12.298317694097859132
0.179000000000000020,10.348217742337300962
0.180000000000000021,8.470005618268103831
0.181000000000000022,6.658615820476756930
0.182000000000000023,4.908625080960655751
0.183000000000000024,3.214559160517745706
0.184000000000000025,1.571151096158328153
0.185000000000000026,-0.026454423246392200
0.186000000000000026,-1.582551316670647967
0.187000000000000027,-3.100774392599013662
0.188000000000000028,-4.584048711854517677
0.189000000000000029,-6.034579652446813824
0.190000000000000030,-7.453876580901630078
0.191000000000000031,-8.842802879782038161
0.192000000000000032,-10.201645342585710097
0.193000000000000033,-11.530196498599789123
0.194000000000000034,-12.827844165949525035
0.195000000000000034,-14.093663365681845079
0.196000000000000035,-15.326506596861818821
0.197000000000000036,-16.525089322742356757
0.198000000000000037,-17.688068315938501485
0.199000000000000038,-18.814111233056646455
0.200000000000000039,-19.901956422946831538
0.201000000000000040,-20.950462511797468323
0.202000000000000041,-21.958647752535515707
0.203000000000000042,-22.925719479425314518
0.204000000000000042,-23.851094278201834697
0.205000000000000043,-24.734409676099883058
0.206000000000000044,-25.575528284253540079
0.207000000000000045,-26.374535396908278528
0.208000000000000046,-27.131731077295192733
0.209000000000000047,-27.847617747913140818
0.210000000000000048,-28.522884261656134441
0.211000000000000049,-29.158387367137237334
0.212000000000000050,-29.755131403194972961
0.213000000000000050,-30.314246969468779724
0.214000000000000051,-30.836969226743462968
0.215000000000000052,-31.324616386271067370
0.216000000000000053,-31.778568854487652118
0.217000000000000054,-32.200249410763277069
0.218000000000000055,-32.591104712749498162
0.219000000000000056,-32.952588347693328785
0.220000000000000057,-33.286145579503376268
0.221000000000000058,-33.593199880739291530
0.222000000000000058,-33.875141286131103868
0.223000000000000059,-34.133316559547516533
0.224000000000000060,-34.369021129190244324
0.225000000000000061,-34.583492715725427047
0.226000000000000062,-34.777906554514274262
0.227000000000000063,-34.953372095466185954
0.228000000000000064,-35.110931051666916858
0.229000000000000065,-35.251556660191553760
0.230000000000000066,-35.376154014764729538
0.231000000000000066,-35.485561329574920819
0.232000000000000067,-35.580551996016765770
0.233000000000000068,-35.661837298896564619
0.234000000000000069,-35.730069665212447205
0.235000000000000070,-35.785846326577235743
0.236000000000000071,-35.829713285305629711
0.237000000000000072,-35.862169483802780690
0.238000000000000073,-35.883671086876461231
0.239000000000000073,-35.894635796703610708
0.240000000000000074,-35.895447130211017850
0.241000000000000075,-35.886458598405639009
0.242000000000000076,-35.867997736581294532
0.243000000000000077,-35.840369943229816840
0.244000000000000078,-35.803862093817123480
0.245000000000000079,-35.758745903294425261
0.246000000000000080,-35.705281018268593130
0.247000000000000081,-35.643717826134761140
0.248000000000000081,-35.574299974178032357
0.249000000000000082,-35.497266596687424567
0.250000000000000111,-35.412854252515550968
0.251000000000000112,-35.321298579285425490
0.252000000000000113,-35.222835673629191433
0.253000000000000114,-35.117703209472232118
0.254000000000000115,-35.006141308498882836
0.255000000000000115,-34.888393178585779708
0.256000000000000116,-34.764705537215448317
0.257000000000000117,-34.635328837723633910
0.258000000000000118,-34.500517316732995710
0.259000000000000119,-34.360528881323752159
0.260000000000000120,-34.215624854426138768
0.261000000000000121,-34.066069596627436056
0.262000000000000122,-33.912130022103468718
0.263000000000000123,-33.754075025739687987
0.264000000000000123,-33.592174837734610549
0.265000000000000124,-33.426700321100369706
0.266000000000000125,-33.257922226519923470
0.267000000000000126,-33.086110418007805833
0.268000000000000127,-32.911533081771885634
0.269000000000000128,-32.734455929604159508
0.270000000000000129,-32.555141407054819069
0.271000000000000130,-32.373847915577933065
0.272000000000000131,-32.190829056791756102
0.273000000000000131,-32.006332905979178349
0.274000000000000132,-31.820601320973860737
0.275000000000000133,-31.633869291640820620
0.276000000000000134,-31.446364334270402452
0.277000000000000135,-31.258305934367605516
0.278000000000000136,-31.069905040535399365
0.279000000000000137,-30.881363611423285676
0.280000000000000138,-30.692874217042124485
0.281000000000000139,-30.504619695132909385
0.282000000000000139,-30.316772862719954418
0.283000000000000140,-30.129496282477401081
0.284000000000000141,-29.942942083090230199
0.285000000000000142,-29.757251832395308355
0.286000000000000143,-29.572556461742134815
0.287000000000000144,-29.388976239714331484
0.288000000000000145,-29.206620793100103839
0.289000000000000146,-29.025589172788290426
0.290000000000000147,-28.845969962094908823
0.291000000000000147,-28.667841424890561086
0.292000000000000148,-28.491271690797503879
0.293000000000000149,-28.316318974655484197
0.294000000000000150,-28.143031827413715007
0.295000000000000151,-27.971449415590505794
0.296000000000000152,-27.801601826448916199
0.297000000000000153,-27.633510396065496195
0.298000000000000154,-27.467188057514043464
0.299000000000000155,-27.302639706449618018
0.300000000000000155,-27.139862581453307655
0.301000000000000156,-26.978846656586465969
0.302000000000000157,-26.819575043700922379
0.303000000000000158,-26.662024402158056802
0.304000000000000159,-26.506165353722337841
0.305000000000000160,-26.351962900513040466
0.306000000000000161,-26.199376844019660382
0.307000000000000162,-26.048362203311306473
0.308000000000000163,-25.898869630695930510
0.309000000000000163,-25.750845823211715668
0.310000000000000164,-25.604233928459301239
0.311000000000000165,-25.458973943407524843
0.312000000000000166,-25.315003104928734956
0.313000000000000167,-25.172256270939552536
0.314000000000000168,-25.030666291140057922
0.315000000000000169,-24.890164366457955936
0.316000000000000170,-24.750680396413780926
0.317000000000000171,-24.612143313728527261
0.318000000000000171,-24.474481405595643224
0.319000000000000172,-24.337622621135892587
0.320000000000000173,-24.201494864644178762
0.321000000000000174,-24.066026274324155310
0.322000000000000175,-23.931145486287409341
0.323000000000000176,-23.796781883670455215
0.324000000000000177,-23.662865830793702315
0.325000000000000178,-23.529328892352950220
0.326000000000000179,-23.396104037695359068
0.327000000000000179,-23.263125830288167606
0.328000000000000180,-23.130330602540329465
0.329000000000000181,-22.997656616184706024
0.330000000000000182,-22.865044208470926890
0.331000000000000183,-22.732435924457970344
0.332000000000000184,-22.599776635729739382
0.333000000000000185,-22.467013645887710993
0.334000000000000186,-22.334096783201363934
0.335000000000000187,-22.200978480820424465
0.336000000000000187,-22.067613844972967740
0.337000000000000188,-21.933960711589794101
0.338000000000000189,-21.799979691809596716
0.339000000000000190,-21.665634206830027608
0.340000000000000191,-21.530890512577762763
0.341000000000000192,-21.395717714677278565
0.342000000000000193,-21.260087774200314925
0.343000000000000194,-21.123975504680441162
0.344000000000000195,-20.987358560875687630
0.345000000000000195,-20.850217419760561199
0.346000000000000196,-20.712535354224005602
0.347000000000000197,-20.574298399944801474
0.348000000000000198,-20.435495315909005143
0.349000000000000199,-20.296117539025544829
0.350000000000000200,-20.156159133287442131
0.351000000000000201,-20.015616733915610581
0.352000000000000202,-19.874489486911265601
0.353000000000000203,-19.732778984431483593
0.354000000000000203,-19.590489196389775373
0.355000000000000204,-19.447626398670877279
0.356000000000000205,-19.304199098335566021
0.357000000000000206,-19.160217956177742593
0.358000000000000207,-19.015695706981766477
0.359000000000000208,-18.870647077814261650
0.360000000000000209,-18.725088704670032058
0.361000000000000210,-18.579039047777541782
0.362000000000000210,-18.432518305854834750
0.363000000000000211,-18.285548329592671735
0.364000000000000212,-18.138152534627305812
0.365000000000000213,-17.990355814251056898
0.366000000000000214,-17.842184452095278147
0.367000000000000215,-17.693666035006053505
0.368000000000000216,-17.544829366320030317
0.369000000000000217,-17.395704379734119982
0.370000000000000218,-17.246322053950098763
0.371000000000000218,-17.096714328262510918
0.372000000000000219,-16.946914019245806315
0.373000000000000220,-16.796954738685048625
0.374000000000000221,-16.646870812882667678
0.375000000000000222,-16.496697203462616699
0.376000000000000223,-16.346469429782594318
0.377000000000000224,-16.196223493054446863
0.378000000000000225,-16.045995802262879693
0.379000000000000226,-15.895823101962985646
0.380000000000000226,-15.745742402027971707
0.381000000000000227,-15.595790909409302571
0.382000000000000228,-15.446005961963615860
0.383000000000000229,-15.296424964392112855
0.384000000000000230,-15.147085326330861577
0.385000000000000231,-14.998024402623210349
0.386000000000000232,-14.849279435798333537
0.387000000000000233,-14.700887500773720973
0.388000000000000234,-14.552885451793070359
0.389000000000000234,-14.405309871605529892
0.390000000000000235,-14.258197022886353267
0.391000000000000236,-14.111582801894503092
0.392000000000000237,-13.965502694357400770
0.393000000000000238,-13.819991733569096937
0.394000000000000239,-13.675084460683567755
0.395000000000000240,-13.530814887181355388
0.396000000000000241,-13.387216459483937570
0.397000000000000242,-13.244322025687230493
0.398000000000000242,-13.102163804382438883
0.399000000000000243,-12.960773355529795481
0.400000000000000244,-12.820181553348188430
0.401000000000000245,-12.680418561181687309
0.402000000000000246,-12.541513808301631983
0.403000000000000247,-12.403495968601177424
0.404000000000000248,-12.266392941137983286
0.405000000000000249,-12.130231832478884257
0.406000000000000250,-11.995038940799341631
0.407000000000000250,-11.860839741689600757
0.408000000000000251,-11.727658875618296008
0.409000000000000252,-11.595520137003955341
0.410000000000000253,-11.464446464843835116
0.411000000000000254,-11.334459934849606455
0.412000000000000255,-11.205581753038710957
0.413000000000000256,-11.077832250730400787
0.414000000000000257,-10.951230880895092668
0.415000000000000258,-10.825796215806189338
0.416000000000000258,-10.701545945943262694
0.417000000000000259,-10.578496880096093236
0.418000000000000260,-10.456664946619264711
0.419000000000000261,-10.336065195787451643
0.420000000000000262,-10.216711803202256803
0.421000000000000263,-10.098618074201798578
0.422000000000000264,-9.981796449224992429
0.423000000000000265,-9.866258510083328659
0.424000000000000266,-9.752014987093499343
0.425000000000000266,-9.639075767025234498
0.426000000000000267,-9.527449901819350586
0.427000000000000268,-9.417145618032163767
0.428000000000000269,-9.308170326963162822
0.429000000000000270,-9.200530635423902481
0.430000000000000271,-9.094232357106957210
0.431000000000000272,-8.989280524514914106
0.432000000000000273,-8.885679401410316203
0.433000000000000274,-8.783432495748577651
0.434000000000000274,-8.682542573056821311
0.435000000000000275,-8.583011670222848721
0.436000000000000276,-8.484841109659381431
0.437000000000000277,-8.388031513809744766
0.438000000000000278,-8.292582819962380114
0.439000000000000279,-8.198494295342662497
0.440000000000000280,-8.105764552451276472
0.441000000000000281,-8.014391564619865349
0.442000000000000282,-7.924372681755501802
0.443000000000000282,-7.835704646246538729
0.444000000000000283,-7.748383609003637318
0.445000000000000284,-7.662405145610643231
0.446000000000000285,-7.577764272560919778
0.447000000000000286,-7.494455463556143116
0.448000000000000287,-7.412472665844950015
0.449000000000000288,-7.331809316580407021
0.450000000000000289,-7.252458359175787628
0.451000000000000290,-7.174412259639278311
0.452000000000000290,-7.097663022869158844
0.453000000000000291,-7.022202208891792807
0.454000000000000292,-6.948020949025829118
0.455000000000000293,-6.875109961956579419
0.456000000000000294,-6.803459569705798238
0.457000000000000295,-6.733059713482441921
0.458000000000000296,-6.663899969401211543
0.459000000000000297,-6.595969564056153089
0.460000000000000298,-6.529257389937527023
0.461000000000000298,-6.463752020680762378
0.462000000000000299,-6.399441726137232500
0.463000000000000300,-6.336314487256990091
0.464000000000000301,-6.274358010774532701
0.465000000000000302,-6.213559743689250681
0.466000000000000303,-6.153906887532704317
0.467000000000000304,-6.095386412415647825
0.468000000000000305,-6.037985070848348457
0.469000000000000306,-5.981689411328046546
0.470000000000000306,-5.926485791688313576
0.471000000000000307,-5.872360392205253632
0.472000000000000308,-5.819299228456301876
0.473000000000000309,-5.767288163927625000
0.474000000000000310,-5.716312922366729943
0.475000000000000311,-5.666359099877307237
0.476000000000000312,-5.617412176753841635
0.477000000000000313,-5.569457529053683409
0.478000000000000314,-5.522480439905055327
0.479000000000000314,-5.476466110549563560
0.480000000000000315,-5.431399671118160910
0.481000000000000316,-5.387266191140091642
0.482000000000000317,-5.344050689784364039
0.483000000000000318,-5.301738145833839511
0.484000000000000319,-5.260313507392198495
0.485000000000000320,-5.219761701324469705
0.486000000000000321,-5.180067642431877672
0.487000000000000322,-5.141216242362186328
0.488000000000000322,-5.103192418256895735
0.489000000000000323,-5.065981101136883602
0.490000000000000324,-5.029567244028276818
0.491000000000000325,-4.993935829830617124
0.492000000000000326,-4.959071878929407262
0.493000000000000327,-4.924960456555568022
0.494000000000000328,-4.891586679894192713
0.495000000000000329,-4.858935724945456336
0.496000000000000330,-4.826992833140366201
0.497000000000000330,-4.795743317714465270
0.498000000000000331,-4.765172569842524908
0.499000000000000332,-4.735266064537470676
0.500000000000000333,-4.706009366316832754
0.501000000000000334,-4.677388134640231954
0.502000000000000335,-4.649388129121287072
0.503000000000000336,-4.621995214517665040
0.504000000000000337,-4.595195365502837248
0.505000000000000338,-4.568974671223336337
0.506000000000000338,-4.543319339645269572
0.507000000000000339,-4.518215701693926611
0.508000000000000340,-4.493650215190397645
0.509000000000000341,-4.469609468589061052
0.510000000000000342,-4.446080184519962231
0.511000000000000343,-4.423049223139976505
0.512000000000000344,-4.400503585296836384
0.513000000000000345,-4.378430415509965812
0.514000000000000346,-4.356817004772195467
0.515000000000000346,-4.335650793176329287
0.516000000000000347,-4.314919372370612294
0.517000000000000348,-4.294610487847167590
0.518000000000000349,-4.274712041067299850
0.519000000000000350,-4.255212091427772236
0.520000000000000351,-4.236098858072013584
0.521000000000000352,-4.217360721550167391
0.522000000000000353,-4.198986225332001609
0.523000000000000353,-4.180964077176520632
0.524000000000000354,-4.163283150362249607
0.525000000000000355,-4.145932484781974736
0.526000000000000356,-4.128901287905772932
0.527000000000000357,-4.112178935616176645
0.528000000000000358,-4.095754972919159798
0.529000000000000359,-4.079619114534641433
0.530000000000000360,-4.063761245370242747
0.531000000000000361,-4.048171420881865323
0.532000000000000361,-4.032839867324663707
0.533000000000000362,-4.017756981897956159
0.534000000000000363,-4.002913332787573886
0.535000000000000364,-3.988299659109011408
0.536000000000000365,-3.973906870754839282
0.537000000000000366,-3.959726048149639688
0.538000000000000367,-3.945748441915765348
0.539000000000000368,-3.931965472453156085
0.540000000000000369,-3.918368729436328746
0.541000000000000369,-3.904949971231713057
0.542000000000000370,-3.891701124238345244
0.543000000000000371,-3.878614282154917881
0.544000000000000372,-3.865681705176160499
0.545000000000000373,-3.852895819121400223
0.546000000000000374,-3.840249214498151709
0.547000000000000375,-3.827734645503484412
0.548000000000000376,-3.815345028965932528
0.549000000000000377,-3.803073443230556627
0.550000000000000377,-3.790913126989739368
0.551000000000000378,-3.778857478062348285
0.552000000000000379,-3.766900052123646869
0.553000000000000380,-3.755034561388455039
0.554000000000000381,-3.743254873249907355
0.555000000000000382,-3.731555008876128454
0.556000000000000383,-3.719929141767072345
0.557000000000000384,-3.708371596273775772
0.558000000000000385,-3.696876846082127965
0.559000000000000385,-3.685439512663298611
0.560000000000000386,-3.674054363692810909
0.561000000000000387,-3.662716311440318950
0.562000000000000388,-3.651420411131991450
0.563000000000000389,-3.640161859287366131
0.564000000000000390,-3.628935992032546132
0.565000000000000391,-3.617738283391518372
0.566000000000000392,-3.606564343557292940
0.567000000000000393,-3.595409917144594125
0.568000000000000393,-3.584270881425682287
0.569000000000000394,-3.573143244550944786
0.570000000000000395,-3.562023143755772114
0.571000000000000396,-3.550906843555180270
0.572000000000000397,-3.539790733927695499
0.573000000000000398,-3.528671328489815462
0.574000000000000399,-3.517545262662479466
0.575000000000000400,-3.506409291830801855
0.576000000000000401,-3.495260289498362649
0.577000000000000401,-3.484095245437283328
0.578000000000000402,-3.472911263835256612
0.579000000000000403,-3.461705561440678203
0.580000000000000404,-3.450475465706991152
0.581000000000000405,-3.439218412937310010
0.582000000000000406,-3.427931946430310184
0.583000000000000407,-3.416613714628432774
0.584000000000000408,-3.405261469269305508
0.585000000000000409,-3.393873063541301693
0.586000000000000409,-3.382446450244142255
0.587000000000000410,-3.370979679955357966
0.588000000000000411,-3.359470899203422789
0.589000000000000412,-3.347918348648355025
0.590000000000000413,-3.336320361270503021
0.591000000000000414,-3.324675360568256188
0.592000000000000415,-3.312981858765337684
0.593000000000000416,-3.301238455028342678
0.594000000000000417,-3.289443833695153252
0.595000000000000417,-3.277596762514805029
0.596000000000000418,-3.265696090899360193
0.597000000000000419,-3.253740748188389542
0.598000000000000420,-3.241729741926472119
0.599000000000000421,-3.229662156154291530
0.600000000000000422,-3.217537149713731282
0.601000000000000423,-3.205353954567440322
0.602000000000000424,-3.193111874133228945
0.603000000000000425,-3.180810281633765779
0.604000000000000425,-3.168448618461845889
0.605000000000000426,-3.156026392561645189
0.606000000000000427,-3.143543176826260499
0.607000000000000428,-3.130998607511801701
0.608000000000000429,-3.118392382668393026
