# Pt001_PIPERIDINE-AC
# h[nm],U(h)[kJ/mol]
0.149999999999999994,144.700568287357555164
0.150999999999999995,139.046379098833398302
0.151999999999999996,134.822112360003899312
0.152999999999999997,130.877447409407352552
0.153999999999999998,126.839546024690093873
0.154999999999999999,122.678228585607911327
0.156000000000000000,118.480598857421796311
0.157000000000000001,114.345424555093842400
0.158000000000000002,110.342575164672169308
0.159000000000000002,106.505131877859781753
0.160000000000000003,102.835750582254419783
0.161000000000000004,99.317397408180667639
0.162000000000000005,95.923637986312868975
0.163000000000000006,92.626536583761108545
0.164000000000000007,89.401753051839236264
0.165000000000000008,86.231157436590834209
0.166000000000000009,83.103558078339105464
0.167000000000000010,80.014171786734266334
0.168000000000000010,76.963381868575083899
0.169000000000000011,73.955204797922391435
0.170000000000000012,70.995758688021851412
0.171000000000000013,68.091915462512673685
0.172000000000000014,65.250230784832609743
0.173000000000000015,62.476181892870009449
0.174000000000000016,59.773700767907278930
0.175000000000000017,57.144964536159228885
0.176000000000000018,54.590392477229592316
0.177000000000000018,52.108795705408375909
0.178000000000000019,49.697628335110550779
0.179000000000000020,47.353295262844213198
0.180000000000000021,45.071479756068384859
0.181000000000000022,42.847462544185603406
0.182000000000000023,40.676412212930152634
0.183000000000000024,38.553633907096390487
0.184000000000000025,36.474769396563729629
0.185000000000000026,34.435946382410136835
0.186000000000000026,32.433878555936999533
0.187000000000000027,30.465920487043245402
0.188000000000000028,28.530083060214042945
0.189000000000000029,26.625016060498246873
0.190000000000000030,24.749964799781018598
0.191000000000000031,22.904707514472502083
0.192000000000000032,21.089479790483775190
0.193000000000000033,19.304891590708660232
0.194000000000000034,17.551841664237755936
0.195000000000000034,15.831433275787549775
0.196000000000000035,14.144894361437604147
0.197000000000000036,12.493504430687037754
0.198000000000000037,10.878529820354291502
0.199000000000000038,9.301168277966931797
0.200000000000000039,7.762503317967369476
0.201000000000000040,6.263468354128141513
0.202000000000000041,4.804820262424255972
0.203000000000000042,3.387121763607154001
0.204000000000000042,2.010731825308083920
0.205000000000000043,0.675803160107533385
0.206000000000000044,-0.617714171264995948
0.207000000000000045,-1.870064063307361524
0.208000000000000046,-3.081671571075690785
0.209000000000000047,-4.253126967751937215
0.210000000000000048,-5.385167538400862597
0.211000000000000049,-6.478657912872412439
0.212000000000000050,-7.534569650743762281
0.213000000000000050,-8.553960696716440992
0.214000000000000051,-9.537955229774535582
0.215000000000000052,-10.487724336637405997
0.216000000000000053,-11.404467851868382411
0.217000000000000054,-12.289397625065101138
0.218000000000000055,-13.143722400960035301
0.219000000000000056,-13.968634431655123862
0.220000000000000057,-14.765297881896620069
0.221000000000000058,-15.534839038249106835
0.222000000000000058,-16.278338291031598573
0.223000000000000059,-16.996823823512926310
0.224000000000000060,-17.691266915609837440
0.225000000000000061,-18.362578748574225784
0.226000000000000062,-19.011608582236902976
0.227000000000000063,-19.639143166619057013
0.228000000000000064,-20.245907244450375373
0.229000000000000065,-20.832564999693154562
0.230000000000000066,-21.399722308934940429
0.231000000000000066,-21.947929656903749418
0.232000000000000067,-22.477685583837704542
0.233000000000000068,-22.989440540527180445
0.234000000000000069,-23.483601036107167204
0.235000000000000070,-23.960533973733387114
0.236000000000000071,-24.420571079797433356
0.237000000000000072,-24.864013343046977411
0.238000000000000073,-25.291135390638221025
0.239000000000000073,-25.702189738567824406
0.240000000000000074,-26.097410863958749871
0.241000000000000075,-26.477019056182086842
0.242000000000000076,-26.841224012699818502
0.243000000000000077,-27.190228153746545559
0.244000000000000078,-27.524229637490169154
0.245000000000000079,-27.843425064102483191
0.246000000000000080,-28.148011863225690377
0.247000000000000081,-28.438190364651358522
0.248000000000000081,-28.714165556651675359
0.249000000000000082,-28.976148540351118754
0.250000000000000111,-29.224357691835443518
0.251000000000000112,-29.459019546403244050
0.252000000000000113,-29.680369421521696438
0.253000000000000114,-29.888651796692222717
0.254000000000000115,-30.084120469619790583
0.255000000000000115,-30.267038508848987277
0.256000000000000116,-30.437678023435410068
0.257000000000000117,-30.596319770301693808
0.258000000000000118,-30.743252619728849595
0.259000000000000119,-30.878772898996004415
0.260000000000000120,-31.003183633543461184
0.261000000000000121,-31.116793704228577155
0.262000000000000122,-31.219916938307136434
0.263000000000000123,-31.312871150730408942
0.264000000000000123,-31.395977151231182489
0.265000000000000124,-31.469557731499190112
0.266000000000000125,-31.533936645545146860
0.267000000000000126,-31.589437595135184011
0.268000000000000127,-31.636383230966327318
0.269000000000000128,-31.675094179056895172
0.270000000000000129,-31.705888100660217788
0.271000000000000130,-31.729078792881647786
0.272000000000000131,-31.744975336098399055
0.273000000000000131,-31.753881293253272133
0.274000000000000132,-31.756093965123852740
0.275000000000000133,-31.751903704760195524
0.276000000000000134,-31.741593293439457568
0.277000000000000135,-31.725437379706313834
0.278000000000000136,-31.703701982354921540
0.279000000000000137,-31.676644057558689838
0.280000000000000138,-31.644511129770695135
0.281000000000000139,-31.607540985495262476
0.282000000000000139,-31.565961428570393110
0.283000000000000140,-31.519990095197805147
0.284000000000000141,-31.469834326609408492
0.285000000000000142,-31.415691096964600604
0.286000000000000143,-31.357746993826431492
0.287000000000000144,-31.296178248365510655
0.288000000000000145,-31.231150812283953400
0.289000000000000146,-31.162820478334300134
0.290000000000000147,-31.091333041227976253
0.291000000000000147,-31.016824495679895080
0.292000000000000148,-30.939421268318710645
0.293000000000000149,-30.859240480201002299
0.294000000000000150,-30.776390236701558933
0.295000000000000151,-30.690969941605839466
0.296000000000000152,-30.603070632304792298
0.297000000000000153,-30.512775333080298878
0.298000000000000154,-30.420159423573409185
0.299000000000000155,-30.325291019641291257
0.300000000000000155,-30.228231363932984266
0.301000000000000156,-30.129035223645338704
0.302000000000000157,-30.027751293057878712
0.303000000000000158,-29.924422598586602362
0.304000000000000159,-29.819086904241299152
0.305000000000000160,-29.711777115516248671
0.306000000000000161,-29.602521679890436701
0.307000000000000162,-29.491344982258830498
0.308000000000000163,-29.378267733759191316
0.309000000000000163,-29.263307352600680389
0.310000000000000164,-29.146478335637862500
0.311000000000000165,-29.027792619567769350
0.312000000000000166,-28.907259930757714272
0.313000000000000167,-28.784888122835855739
0.314000000000000168,-28.660683501296876585
0.315000000000000169,-28.534651134488957069
0.316000000000000170,-28.406795150457604393
0.317000000000000171,-28.277119019224262075
0.318000000000000171,-28.145625820175148135
0.319000000000000172,-28.012318494326905238
0.320000000000000173,-27.877200081320932412
0.321000000000000174,-27.740273941077635556
0.322000000000000175,-27.601543960115385801
0.323000000000000176,-27.461014742607272154
0.324000000000000177,-27.318691786310399294
0.325000000000000178,-27.174581643559736932
0.326000000000000179,-27.028692067570297297
0.327000000000000179,-26.881032144337304146
0.328000000000000180,-26.731612410466045304
0.329000000000000181,-26.580444957300176867
0.330000000000000182,-26.427543521748788180
0.331000000000000183,-26.272923564241899896
0.332000000000000184,-26.116602334266957541
0.333000000000000185,-25.958598923960028770
0.334000000000000186,-25.798934310241612877
0.335000000000000187,-25.637631386000304445
0.336000000000000187,-25.474714980838072620
0.337000000000000188,-25.310211871897234204
0.338000000000000189,-25.144150785294733907
0.339000000000000190,-24.976562388690378924
0.340000000000000191,-24.807479275515582628
0.341000000000000192,-24.636935941386902016
0.342000000000000193,-24.464968753223537590
0.343000000000000194,-24.291615911582326248
0.344000000000000195,-24.116917406715444372
0.345000000000000195,-23.940914968847113897
0.346000000000000196,-23.763652013154576537
0.347000000000000197,-23.585173579927506182
0.348000000000000198,-23.405526270366799224
0.349000000000000199,-23.224758178470374048
0.350000000000000200,-23.042918819439616840
0.351000000000000201,-22.860059055024617436
0.352000000000000202,-22.676231016211520597
0.353000000000000203,-22.491488023639401916
0.354000000000000203,-22.305884506117820365
0.355000000000000204,-22.119475917599999093
0.356000000000000205,-21.932318652950350213
0.357000000000000206,-21.744469962828354426
0.358000000000000207,-21.555987867994215179
0.359000000000000208,-21.366931073325705626
0.360000000000000209,-21.177358881819024816
0.361000000000000210,-20.987331108830396431
0.362000000000000210,-20.796907996799507856
0.363000000000000211,-20.606150130679857568
0.364000000000000212,-20.415118354286487801
0.365000000000000213,-20.223873687755688167
0.366000000000000214,-20.032477246297609952
0.367000000000000215,-19.840990160407724119
0.368000000000000216,-19.649473497690010504
0.369000000000000217,-19.457988186430650757
0.370000000000000218,-19.266594941048854395
0.371000000000000218,-19.075354189538320071
0.372000000000000219,-18.884326003001323357
0.373000000000000220,-18.693570027365627340
0.374000000000000221,-18.503145417363604963
0.375000000000000222,-18.313110772842087215
0.376000000000000223,-18.123524077461674153
0.377000000000000224,-17.934442639834543343
0.378000000000000225,-17.745923037140475031
0.379000000000000226,-17.558021061252372164
0.380000000000000226,-17.370791667394435365
0.381000000000000227,-17.184288925347836141
0.382000000000000228,-16.998565973212297564
0.383000000000000229,-16.813674973724356931
0.384000000000000230,-16.629667073126928045
0.385000000000000231,-16.446592362579082192
0.386000000000000232,-16.264499842088714132
0.387000000000000233,-16.083437386946066283
0.388000000000000234,-15.903451716630922164
0.389000000000000234,-15.724588366162222997
0.390000000000000235,-15.546891659854008338
0.391000000000000236,-15.370404687438821156
0.392000000000000237,-15.195169282515232467
0.393000000000000238,-15.021226003273941529
0.394000000000000239,-14.848614115453406370
0.395000000000000240,-14.677371577473859787
0.396000000000000241,-14.507535027696196295
0.397000000000000242,-14.339139773750019913
0.398000000000000242,-14.172219783874036025
0.399000000000000243,-14.006807680209698574
0.400000000000000244,-13.842934733988254692
0.401000000000000245,-13.680630862550478000
0.402000000000000246,-13.519924628136939404
0.403000000000000247,-13.360843238386530984
0.404000000000000248,-13.203412548480329747
0.405000000000000249,-13.047657064867703269
0.406000000000000250,-12.893599950511264396
0.407000000000000250,-12.741263031587440224
0.408000000000000251,-12.590666805579644461
0.409000000000000252,-12.441830450701193200
0.410000000000000253,-12.294771836585635327
0.411000000000000254,-12.149507536182690970
0.412000000000000255,-12.006052838798641602
0.413000000000000256,-11.864421764220709932
0.414000000000000257,-11.724627077865736879
0.415000000000000258,-11.586680306894654890
0.416000000000000258,-11.450591757234835910
0.417000000000000259,-11.316370531453667780
0.418000000000000260,-11.184024547427911855
0.419000000000000261,-11.053560557754170901
0.420000000000000262,-10.924984169847499871
0.421000000000000263,-10.798299866676043024
0.422000000000000264,-10.673511028080978846
0.423000000000000265,-10.550619952632407816
0.424000000000000266,-10.429627879973256910
0.425000000000000266,-10.310535013604265941
0.426000000000000267,-10.193340544064934505
0.427000000000000268,-10.078042672466388296
0.428000000000000269,-9.964638634333642386
0.429000000000000270,-9.853124723716193856
0.430000000000000271,-9.743496317527043260
0.431000000000000272,-9.635747900072004768
0.432000000000000273,-9.529873087732203985
0.433000000000000274,-9.425864653764341128
0.434000000000000274,-9.323714553184457188
0.435000000000000275,-9.223413947702461257
0.436000000000000276,-9.124953230676037919
0.437000000000000277,-9.028322052053649571
0.438000000000000278,-8.933509343278098314
0.439000000000000279,-8.840503342123081865
0.440000000000000280,-8.749291617436476542
0.441000000000000281,-8.659861093765558238
0.442000000000000282,-8.572198075840491427
0.443000000000000282,-8.486288272893498075
0.444000000000000283,-8.402116822792576656
0.445000000000000284,-8.319668315969646954
0.446000000000000285,-8.238926819123998158
0.447000000000000286,-8.159875898683534245
0.448000000000000287,-8.082498644006642863
0.449000000000000288,-8.006777690309345274
0.450000000000000289,-7.932695241302829103
0.451000000000000290,-7.860233091527739191
0.452000000000000290,-7.789372648372603791
0.453000000000000291,-7.720094953764506940
0.454000000000000292,-7.652380705521307114
0.455000000000000293,-7.586210278355283165
0.456000000000000294,-7.521563744519252914
0.457000000000000295,-7.458420894086783548
0.458000000000000296,-7.396761254859076651
0.459000000000000297,-7.336564111891783924
0.460000000000000298,-7.277808526635848985
0.461000000000000298,-7.220473355687033745
0.462000000000000299,-7.164537269139711562
0.463000000000000300,-7.109978768540862859
0.464000000000000301,-7.056776204441146838
0.465000000000000302,-7.004907793540373184
0.466000000000000303,-6.954351635425247480
0.467000000000000304,-6.905085728897880415
0.468000000000000305,-6.857087987894191272
0.469000000000000306,-6.810336256991592840
0.470000000000000306,-6.764808326506094538
0.471000000000000307,-6.720481947179164806
0.472000000000000308,-6.677334844455453222
0.473000000000000309,-6.635344732352504771
0.474000000000000310,-6.594489326924343864
0.475000000000000311,-6.554746359320951399
0.476000000000000312,-6.516093588446182139
0.477000000000000313,-6.478508813216750539
0.478000000000000314,-6.441969884425551740
0.479000000000000314,-6.406454716212683032
0.480000000000000315,-6.371941297147753147
0.481000000000000316,-6.338407700927558786
0.482000000000000317,-6.305832096693189115
0.483000000000000318,-6.274192758971064876
0.484000000000000319,-6.243468077242427583
0.485000000000000320,-6.213636565146242852
0.486000000000000321,-6.184676869320346881
0.487000000000000322,-6.156567777886130521
0.488000000000000322,-6.129288228581977194
0.489000000000000323,-6.102817316550987137
0.490000000000000324,-6.077134301788507109
0.491000000000000325,-6.052218616255212069
0.492000000000000326,-6.028049870661439158
0.493000000000000327,-6.004607860928771856
0.494000000000000328,-5.981872574334746062
0.495000000000000329,-5.959824195346761222
0.496000000000000330,-5.938443111151259224
0.497000000000000330,-5.917709916884310140
0.498000000000000331,-5.897605420569798973
0.499000000000000332,-5.878110647771402242
0.500000000000000333,-5.859206845964610721
0.501000000000000334,-5.840875488635009383
0.502000000000000335,-5.823098279109109043
0.503000000000000336,-5.805857154123952313
0.504000000000000337,-5.789134287141761703
0.505000000000000338,-5.772912091415834723
0.506000000000000338,-5.757173222813952052
0.507000000000000339,-5.741900582405419229
0.508000000000000340,-5.727077318817971552
0.509000000000000341,-5.712686830370612867
0.510000000000000342,-5.698712766988498934
0.511000000000000343,-5.685139031905877438
0.512000000000000344,-5.671949783163110936
0.513000000000000345,-5.659129434903660716
0.514000000000000346,-5.646662658476988561
0.515000000000000346,-5.634534383353109632
0.516000000000000347,-5.622729797854566947
0.517000000000000348,-5.611234349711615721
0.518000000000000349,-5.600033746446033689
0.519000000000000350,-5.589113955589289695
0.520000000000000351,-5.578461204740460921
0.521000000000000352,-5.568061981469261568
0.522000000000000353,-5.557903033069548471
0.523000000000000353,-5.547971366168493290
0.524000000000000354,-5.538254246196633979
0.525000000000000355,-5.528739196723796212
0.526000000000000356,-5.519413998665896770
0.527000000000000357,-5.510266689367553816
0.528000000000000358,-5.501285561565282478
0.529000000000000359,-5.492459162235972414
0.530000000000000360,-5.483776291335347608
0.531000000000000361,-5.475226000430883921
0.532000000000000361,-5.466797591233686582
0.533000000000000362,-5.458480614033659251
0.534000000000000363,-5.450264866042269674
0.535000000000000364,-5.442140389647052601
0.536000000000000365,-5.434097470581999545
0.537000000000000366,-5.426126636017807314
0.538000000000000367,-5.418218652575865768
0.539000000000000368,-5.410364524269929198
0.540000000000000369,-5.402555490379042702
0.541000000000000369,-5.394783023255511623
0.542000000000000370,-5.387038826071412601
0.543000000000000371,-5.379314830507092360
0.544000000000000372,-5.371603194385125235
0.545000000000000373,-5.363896299252935762
0.546000000000000374,-5.356186747917355717
0.547000000000000375,-5.348467361934217124
0.548000000000000376,-5.340731179056075639
0.549000000000000377,-5.332971450640955347
0.550000000000000377,-5.325181639025030833
0.551000000000000378,-5.317355414862086072
0.552000000000000379,-5.309486654432371999
0.553000000000000380,-5.301569436923620593
0.554000000000000381,-5.293598041686667699
0.555000000000000382,-5.285566945468273659
0.556000000000000383,-5.277470819623450105
0.557000000000000384,-5.269304527309721209
0.558000000000000385,-5.261063120665512294
0.559000000000000385,-5.252741837974911121
0.560000000000000386,-5.244336100820863322
0.561000000000000387,-5.235841511228914058
0.562000000000000388,-5.227253848803417036
0.563000000000000389,-5.218569067858184418
0.564000000000000390,-5.209783294543359311
0.565000000000000391,-5.200892823970356460
0.566000000000000392,-5.191894117336545378
0.567000000000000393,-5.182783799051356333
0.568000000000000393,-5.173558653865393708
0.569000000000000394,-5.164215624004080851
0.570000000000000395,-5.154751806307370288
0.571000000000000396,-5.145164449376832039
0.572000000000000397,-5.135450950731598851
0.573000000000000398,-5.125608853974402912
0.574000000000000399,-5.115635845968971473
0.575000000000000400,-5.105529754030014189
0.576000000000000401,-5.095288543126879510
0.577000000000000401,-5.084910313102099622
0.578000000000000402,-5.074393295905736956
0.579000000000000403,-5.063735852846632746
0.580000000000000404,-5.052936471861493750
0.581000000000000405,-5.041993764802691125
0.582000000000000406,-5.030906464745673823
0.583000000000000407,-5.019673423316826089
0.584000000000000408,-5.008293608042517775
0.585000000000000409,-4.996766099720096221
0.586000000000000409,-4.985090089811547998
0.587000000000000410,-4.973264877860477995
0.588000000000000411,-4.961289868932980518
0.589000000000000412,-4.949164571083093378
0.590000000000000413,-4.936888592843265755
0.591000000000000414,-4.924461640740457113
0.592000000000000415,-4.911883516838299713
0.593000000000000416,-4.899154116305758144
0.594000000000000417,-4.886273425012765514
0.595000000000000417,-4.873241517153172886
0.596000000000000418,-4.860058552895359263
0.597000000000000419,-4.846724776060916007
0.598000000000000420,-4.833240511831579767
0.599000000000000421,-4.819606164484797617
0.600000000000000422,-4.805822215158113586
0.601000000000000423,-4.791889219642609277
0.602000000000000424,-4.777807806205597529
0.603000000000000425,-4.763578673442770750
0.604000000000000425,-4.749202588159883831
0.605000000000000426,-4.734680383284161742
0.606000000000000427,-4.720012955805564125
0.607000000000000428,-4.705201264747845613
0.608000000000000429,-4.690246329169708517
