# Pt001_1HINDOLE-AC
# h[nm],U(h)[kJ/mol]
0.149999999999999994,79.508170844528521570
0.150999999999999995,74.237417145902114157
0.151999999999999996,69.828607343205376878
0.152999999999999997,65.614893698404799238
0.153999999999999998,61.386459686939602420
0.154999999999999999,57.132074142072141854
0.156000000000000000,52.906282002052023472
0.157000000000000001,48.768016586063545503
0.158000000000000002,44.757704417951913456
0.159000000000000002,40.893466550707508134
0.160000000000000003,37.175460771922701042
0.161000000000000004,33.592546654166376641
0.162000000000000005,30.128483551154232600
0.163000000000000006,26.766578015396952139
0.164000000000000007,23.492595298044971486
0.165000000000000008,20.296169480460601875
0.166000000000000009,17.171096384627386300
0.167000000000000010,14.114900772691267861
0.168000000000000010,11.128010831485310561
0.169000000000000011,8.212792055547421199
0.170000000000000012,5.372612500809561986
0.171000000000000013,2.611042797230165302
0.172000000000000014,-0.068758997861885135
0.173000000000000015,-2.664465769175305088
0.174000000000000016,-5.174815945734851041
0.175000000000000017,-7.599691735937494919
0.176000000000000018,-9.940074902879107555
0.177000000000000018,-12.197914996983502789
0.178000000000000019,-14.375942437567648113
0.179000000000000020,-16.477454295691309483
0.180000000000000021,-18.506095192691969231
0.181000000000000022,-20.465650163326454702
0.182000000000000023,-22.359861134973890273
0.183000000000000024,-24.192274130143953670
0.184000000000000025,-25.966120540594868515
0.185000000000000026,-27.684232873627642846
0.186000000000000026,-29.348993191651146617
0.187000000000000027,-30.962310971326200359
0.188000000000000028,-32.525626194861089857
0.189000000000000029,-34.039933043989336170
0.190000000000000030,-35.505819491216797701
0.191000000000000031,-36.923518276996539100
0.192000000000000032,-38.292965142073690288
0.193000000000000033,-39.613860681563153321
0.194000000000000034,-40.885732745183354098
0.195000000000000034,-42.107996882940554428
0.196000000000000035,-43.280012895136323436
0.197000000000000036,-44.401136067209776570
0.198000000000000037,-45.470762138966840382
0.199000000000000038,-46.488365465959148537
0.200000000000000039,-47.453530174916487283
0.201000000000000040,-48.365974395718758672
0.202000000000000041,-49.225567872589024887
0.203000000000000042,-50.032343421974687203
0.204000000000000042,-50.786502820010845483
0.205000000000000043,-51.488417775107038210
0.206000000000000044,-52.138626677757734740
0.207000000000000045,-52.737827826626883621
0.208000000000000046,-53.286869813377037985
0.209000000000000047,-53.786739714125836542
0.210000000000000048,-54.238549687714851189
0.211000000000000049,-54.643522524413995711
0.212000000000000050,-55.002976626851776132
0.213000000000000050,-55.318310840822903174
0.214000000000000051,-55.590989489577154359
0.215000000000000052,-55.822527903100841229
0.216000000000000053,-56.014478675168504651
0.217000000000000054,-56.168418826571645752
0.218000000000000055,-56.285938003581158284
0.219000000000000056,-56.368627796743894010
0.220000000000000057,-56.418072226698072313
0.221000000000000058,-56.435839410765879620
0.222000000000000058,-56.423474396470453485
0.223000000000000059,-56.382493125524206334
0.224000000000000060,-56.314377473889294379
0.225000000000000061,-56.220571299801335385
0.226000000000000062,-56.102477421729794571
0.227000000000000063,-55.961455441677685485
0.228000000000000064,-55.798820325549606025
0.229000000000000065,-55.615841651112226884
0.230000000000000066,-55.413743434927837939
0.231000000000000066,-55.193704452180256226
0.232000000000000067,-54.956858967188075837
0.233000000000000068,-54.704297797300171169
0.234000000000000069,-54.437069638515779957
0.235000000000000070,-54.156182587322724942
0.236000000000000071,-53.862605799692993003
0.237000000000000072,-53.557271234738166754
0.238000000000000073,-53.241075437056807118
0.239000000000000073,-52.914881318183134340
0.240000000000000074,-52.579519903671062764
0.241000000000000075,-52.235792018148757165
0.242000000000000076,-51.884469886095345714
0.243000000000000077,-51.526298631090412528
0.244000000000000078,-51.161997660839574564
0.245000000000000079,-50.792261929376842033
0.246000000000000080,-50.417763071484827719
0.247000000000000081,-50.039150407563596445
0.248000000000000081,-49.657051819934224568
0.249000000000000082,-49.272074503900491038
0.250000000000000111,-48.884805598839911056
0.251000000000000112,-48.495812706173850870
0.252000000000000113,-48.105644302311944216
0.253000000000000114,-47.714830055599946945
0.254000000000000115,-47.323881056960466651
0.255000000000000115,-46.933289974325916205
0.256000000000000116,-46.543531141156535114
0.257000000000000117,-46.155060589338994248
0.258000000000000118,-45.768316036600751318
0.259000000000000119,-45.383716838276114913
0.260000000000000120,-45.001663912848883342
0.261000000000000121,-44.622539650188642213
0.262000000000000122,-44.246707810821654050
0.263000000000000123,-43.874513423942737234
0.264000000000000123,-43.506282691204404500
0.265000000000000124,-43.142322902622424863
0.266000000000000125,-42.782922370231915465
0.267000000000000126,-42.428350384418621388
0.268000000000000127,-42.078857197153389791
0.269000000000000128,-41.734674035675396908
0.270000000000000129,-41.396013149513152030
0.271000000000000130,-41.063067893103308847
0.272000000000000131,-40.736012845673442939
0.273000000000000131,-40.415003969496567038
0.274000000000000132,-40.100178807107297985
0.275000000000000133,-39.791656717591841641
0.276000000000000134,-39.489539151628363811
0.277000000000000135,-39.193909964561051140
0.278000000000000136,-38.904835766439084921
0.279000000000000137,-38.622366307641541994
0.280000000000000138,-38.346534898438818573
0.281000000000000139,-38.077358860608924829
0.282000000000000139,-37.814840009032586465
0.283000000000000140,-37.558965161031231617
0.284000000000000141,-37.309706671084747143
0.285000000000000142,-37.067022988471173051
0.286000000000000143,-36.830859235302504828
0.287000000000000144,-36.601147802390961772
0.288000000000000145,-36.377808960363708479
0.289000000000000146,-36.160751483450248145
0.290000000000000147,-35.949873283391880818
0.291000000000000147,-35.745062050966893707
0.292000000000000148,-35.546195902683997758
0.293000000000000149,-35.353144030269682219
0.294000000000000150,-35.165767350660111390
0.295000000000000151,-34.983919154302903110
0.296000000000000152,-34.807445749677825120
0.297000000000000153,-34.636187102055544074
0.298000000000000154,-34.469977464628883013
0.299000000000000155,-34.308646000271345144
0.300000000000000155,-34.152017392299555354
0.301000000000000156,-33.999912442740580332
0.302000000000000157,-33.852148656730051357
0.303000000000000158,-33.708540811791429803
0.304000000000000159,-33.568901510870105653
0.305000000000000160,-33.433041718117735286
0.306000000000000161,-33.300771276541276222
0.307000000000000162,-33.171899406747300532
0.308000000000000163,-33.046235186124604866
0.309000000000000163,-32.923588007916826825
0.310000000000000164,-32.803768019741063711
0.311000000000000165,-32.686586541208100698
0.312000000000000166,-32.571856460395224531
0.313000000000000167,-32.459392609012077457
0.314000000000000168,-32.349012116185271282
0.315000000000000169,-32.240534740867467178
0.316000000000000170,-32.133783182950637070
0.317000000000000171,-32.028583373233566078
0.318000000000000171,-31.924764742457078626
0.319000000000000172,-31.822160469680586203
0.320000000000000173,-31.720607710327051620
0.321000000000000174,-31.619947804273682124
0.322000000000000175,-31.520026464409482969
0.323000000000000176,-31.420693946121797779
0.324000000000000177,-31.321805198208778620
0.325000000000000178,-31.223219995746699595
0.326000000000000179,-31.124803055468113655
0.327000000000000179,-31.026424134230218499
0.328000000000000180,-30.927958111172394240
0.329000000000000181,-30.829285054178711789
0.330000000000000182,-30.730290271272668434
0.331000000000000183,-30.630864347582917873
0.332000000000000184,-30.530903168523934710
0.333000000000000185,-30.430307929840676451
0.334000000000000186,-30.328985135167158660
0.335000000000000187,-30.226846581748468168
0.336000000000000187,-30.123809334972229124
0.337000000000000188,-30.019795692350658811
0.338000000000000189,-29.914733137587695921
0.339000000000000190,-29.808554285356592572
0.340000000000000191,-29.701196817403321404
0.341000000000000192,-29.592603410580533563
0.342000000000000193,-29.482721657402567672
0.343000000000000194,-29.371503979699809861
0.344000000000000195,-29.258907535934760347
0.345000000000000195,-29.144894122727521335
0.346000000000000196,-29.029430071121577583
0.347000000000000197,-28.912486138104149802
0.348000000000000198,-28.794037393878017639
0.349000000000000199,-28.674063105364062665
0.350000000000000200,-28.552546616395641621
0.351000000000000201,-28.429475225047799114
0.352000000000000202,-28.304840058525655877
0.353000000000000203,-28.178635946018580682
0.354000000000000203,-28.050861289907324192
0.355000000000000204,-27.921517935693778156
0.356000000000000205,-27.790611041004449788
0.357000000000000206,-27.658148944000799929
0.358000000000000207,-27.524143031511357549
0.359000000000000208,-27.388607607183701020
0.360000000000000209,-27.251559759936547778
0.361000000000000210,-27.113019232975364758
0.362000000000000210,-26.973008293618516262
0.363000000000000211,-26.831551604164737057
0.364000000000000212,-26.688676094016972939
0.365000000000000213,-26.544410833262087834
0.366000000000000214,-26.398786907891594211
0.367000000000000215,-26.251837296833457458
0.368000000000000216,-26.103596750951901129
0.369000000000000217,-25.954101674157850965
0.370000000000000218,-25.803390006760388076
0.371000000000000218,-25.651501111176834513
0.372000000000000219,-25.498475660106844742
0.373000000000000220,-25.344355527265157946
0.374000000000000221,-25.189183680755753869
0.375000000000000222,-25.033004079160363631
0.376000000000000223,-24.875861570403948519
0.377000000000000224,-24.717801793450302483
0.378000000000000225,-24.558871082871888802
0.379000000000000226,-24.399116376329239131
0.380000000000000226,-24.238585124987658048
0.381000000000000227,-24.077325206890272113
0.382000000000000228,-23.915384843300476092
0.383000000000000229,-23.752812518018821208
0.384000000000000230,-23.589656899673663304
0.385000000000000231,-23.425966766978842060
0.386000000000000232,-23.261790936945516250
0.387000000000000233,-23.097178196030746733
0.388000000000000234,-22.932177234199944138
0.389000000000000234,-22.766836581876141565
0.390000000000000235,-22.601204549744622341
0.391000000000000236,-22.435329171377819790
0.392000000000000237,-22.269258148641505102
0.393000000000000238,-22.103038799840579287
0.394000000000000239,-21.936718010559108194
0.395000000000000240,-21.770342187147377899
0.396000000000000241,-21.603957212805642740
0.397000000000000242,-21.437608406212493861
0.398000000000000242,-21.271340482643818603
0.399000000000000243,-21.105197517526516293
0.400000000000000244,-20.939222912369594098
0.401000000000000245,-20.773459363014509904
0.402000000000000246,-20.607948830144984242
0.403000000000000247,-20.442732511995760802
0.404000000000000248,-20.277850819199581878
0.405000000000000249,-20.113343351710437190
0.406000000000000250,-19.949248877741251107
0.407000000000000250,-19.785605314653750497
0.408000000000000251,-19.622449711738120470
0.409000000000000252,-19.459818234820421168
0.410000000000000253,-19.297746152635305350
0.411000000000000254,-19.136267824902613910
0.412000000000000255,-18.975416692045971701
0.413000000000000256,-18.815225266492852541
0.414000000000000257,-18.655725125495237648
0.415000000000000258,-18.496946905411451922
0.416000000000000258,-18.338920297389954328
0.417000000000000259,-18.181674044396789469
0.418000000000000260,-18.025235939529455464
0.419000000000000261,-17.869632825560383793
0.420000000000000262,-17.714890595654807726
0.421000000000000263,-17.561034195208257813
0.422000000000000264,-17.408087624750216094
0.423000000000000265,-17.256073943861530040
0.424000000000000266,-17.105015276054320594
0.425000000000000266,-16.954932814564180887
0.426000000000000267,-16.805846829005592014
0.427000000000000268,-16.657776672842814492
0.428000000000000269,-16.510740791629704205
0.429000000000000270,-16.364756731972853743
0.430000000000000271,-16.219841151174051674
0.431000000000000272,-16.076009827509018635
0.432000000000000273,-15.933277671100649187
0.433000000000000274,-15.791658735346407738
0.434000000000000274,-15.651166228860446950
0.435000000000000275,-15.511812527892521629
0.436000000000000276,-15.373609189186918655
0.437000000000000277,-15.236566963245584461
0.438000000000000278,-15.100695807961324491
0.439000000000000279,-14.966004902587764391
0.440000000000000280,-14.832502662013933303
0.441000000000000281,-14.700196751312779142
0.442000000000000282,-14.569094100533888536
0.443000000000000282,-14.439200919711703719
0.444000000000000283,-14.310522714061949756
0.445000000000000284,-14.183064299339857683
0.446000000000000285,-14.056829817334795862
0.447000000000000286,-13.931822751477341171
0.448000000000000287,-13.808045942535315476
0.449000000000000288,-13.685501604376909768
0.450000000000000289,-13.564191339779497980
0.451000000000000290,-13.444116156264110273
0.452000000000000290,-13.325276481936228379
0.453000000000000291,-13.207672181314658033
0.454000000000000292,-13.091302571131013366
0.455000000000000293,-12.976166436083337530
0.456000000000000294,-12.862262044528169014
0.457000000000000295,-12.749587164096194414
0.458000000000000296,-12.638139077217548589
0.459000000000000297,-12.527914596543460846
0.460000000000000298,-12.418910080251796657
0.461000000000000298,-12.311121447224795844
0.462000000000000299,-12.204544192088016885
0.463000000000000300,-12.099173400100109887
0.464000000000000301,-11.995003761883852533
0.465000000000000302,-11.892029587989510375
0.466000000000000303,-11.790244823282055364
0.467000000000000304,-11.689643061144572300
0.468000000000000305,-11.590217557490726463
0.469000000000000306,-11.491961244579652401
0.470000000000000306,-11.394866744627281108
0.471000000000000307,-11.298926383208454993
0.472000000000000308,-11.204132202445070021
0.473000000000000309,-11.110475973975427522
0.474000000000000310,-11.017949211700926782
0.475000000000000311,-10.926543184306428458
0.476000000000000312,-10.836248927551139332
0.477000000000000313,-10.747057256327117614
0.478000000000000314,-10.658958776483192565
0.479000000000000314,-10.571943896412189901
0.480000000000000315,-10.486002838399787862
0.481000000000000316,-10.401125649733815592
0.482000000000000317,-10.317302213572899561
0.483000000000000318,-10.234522259573852310
0.484000000000000319,-10.152775374277386078
0.485000000000000320,-10.072051011252188601
0.486000000000000321,-9.992338500997345108
0.487000000000000322,-9.913627060603705132
0.488000000000000322,-9.835905803174744833
0.489000000000000323,-9.759163747007949752
0.490000000000000324,-9.683389824537709245
0.491000000000000325,-9.608572891041157860
0.492000000000000326,-9.534701733108294164
0.493000000000000327,-9.461765076878313252
0.494000000000000328,-9.389751596043764081
0.495000000000000329,-9.318649919624721889
0.496000000000000330,-9.248448639515009617
0.497000000000000330,-9.179136317802857548
0.498000000000000331,-9.110701493868372580
0.499000000000000332,-9.043132691260394651
0.500000000000000333,-8.976418424355353309
0.501000000000000334,-8.910547204800927545
0.502000000000000335,-8.845507547747292421
0.503000000000000336,-8.781287977869018491
0.504000000000000337,-8.717877035180430667
0.505000000000000338,-8.655263280647707447
0.506000000000000338,-8.593435301600772291
0.507000000000000339,-8.532381716948144401
0.508000000000000340,-8.472091182198118631
0.509000000000000341,-8.412552394289456004
0.510000000000000342,-8.353754096235007864
0.511000000000000343,-8.295685081581595455
0.512000000000000344,-8.238334198689551968
0.513000000000000345,-8.181690354835359003
0.514000000000000346,-8.125742520140851965
0.515000000000000346,-8.070479731332364182
0.516000000000000347,-8.015891095333314453
0.517000000000000348,-7.961965792693819211
0.518000000000000349,-7.908693080860523139
0.519000000000000350,-7.856062297290442586
0.520000000000000351,-7.804062862412027179
0.521000000000000352,-7.752684282437050101
0.522000000000000353,-7.701916152026667461
0.523000000000000353,-7.651748156815128432
0.524000000000000354,-7.602170075794525417
0.525000000000000355,-7.553171783563962904
0.526000000000000356,-7.504743252446499646
0.527000000000000357,-7.456874554477255224
0.528000000000000358,-7.409555863265895326
0.529000000000000359,-7.362777455736842391
0.530000000000000360,-7.316529713750446362
0.531000000000000361,-7.270803125608347628
0.532000000000000361,-7.225588287446119473
0.533000000000000362,-7.180875904516459407
0.534000000000000363,-7.136656792365968727
0.535000000000000364,-7.092921877908539230
0.536000000000000365,-7.049662200398474354
0.537000000000000366,-7.006868912306250863
0.538000000000000367,-6.964533280099887591
0.539000000000000368,-6.922646684934815831
0.540000000000000369,-6.881200623255099735
0.541000000000000369,-6.840186707308829384
0.542000000000000370,-6.799596665580452282
0.543000000000000371,-6.759422343142700740
0.544000000000000372,-6.719655701930913771
0.545000000000000373,-6.680288820942220873
0.546000000000000374,-6.641313896362298408
0.547000000000000375,-6.602723241622141970
0.548000000000000376,-6.564509287387400249
0.549000000000000377,-6.526664581482670258
0.550000000000000377,-6.489181788753117353
0.551000000000000378,-6.452053690865834135
0.552000000000000379,-6.415273186053181753
0.553000000000000380,-6.378833288800337620
0.554000000000000381,-6.342727129479307280
0.555000000000000382,-6.306947953931540063
0.556000000000000383,-6.271489123001158461
0.557000000000000384,-6.236344112021030561
0.558000000000000385,-6.201506510253524063
0.559000000000000385,-6.166970020288038867
0.560000000000000386,-6.132728457397133681
0.561000000000000387,-6.098775748853201506
0.562000000000000388,-6.065105933207499689
0.563000000000000389,-6.031713159533259372
0.564000000000000390,-5.998591686634710207
0.565000000000000391,-5.965735882223649256
0.566000000000000392,-5.933140222065231839
0.567000000000000393,-5.900799289094592837
0.568000000000000393,-5.868707772505861620
0.569000000000000394,-5.836860466815075199
0.570000000000000395,-5.805252270898574984
0.571000000000000396,-5.773878187008143037
0.572000000000000397,-5.742733319764502298
0.573000000000000398,-5.711812875130360290
0.574000000000000399,-5.681112159364458236
0.575000000000000400,-5.650626577957824637
0.576000000000000401,-5.620351634553517606
0.577000000000000401,-5.590282929851096760
0.578000000000000402,-5.560416160496939320
0.579000000000000403,-5.530747117961598569
0.580000000000000404,-5.501271687405285604
0.581000000000000405,-5.471985846532560593
0.582000000000000406,-5.442885664437229210
0.583000000000000407,-5.413967300438523367
0.584000000000000408,-5.385227002909472205
0.585000000000000409,-5.356661108098439428
0.586000000000000409,-5.328266038944703631
0.587000000000000410,-5.300038303889022195
0.588000000000000411,-5.271974495679947914
0.589000000000000412,-5.244071290176775868
0.590000000000000413,-5.216325445149876394
0.591000000000000414,-5.188733799079214393
0.592000000000000415,-5.161293269951731766
0.593000000000000416,-5.134000854058348828
0.594000000000000417,-5.106853624791253488
0.595000000000000417,-5.079848731442125676
0.596000000000000418,-5.052983398001903659
0.597000000000000419,-5.026254921962778788
0.598000000000000420,-4.999660673122868104
0.599000000000000421,-4.973198092394265579
0.600000000000000422,-4.946864690614893867
0.601000000000000423,-4.920658047364732113
0.602000000000000424,-4.894575809786882559
0.603000000000000425,-4.868615691413955560
0.604000000000000425,-4.842775471000203780
0.605000000000000426,-4.817052991359879854
0.606000000000000427,-4.791446158212163908
