# TricalciumAluminate-Wet-010_ETA-AC
# h[nm],U(h)[kJ/mol]
0.149999999999999994,63.338397661810198258
0.150999999999999995,62.367076622668868424
0.151999999999999996,61.078106695532746073
0.152999999999999997,59.717266227636436327
0.153999999999999998,58.384100990532502351
0.154999999999999999,57.106412612151039809
0.156000000000000000,55.881346998550952776
0.157000000000000001,54.696562559365062839
0.158000000000000002,53.539964837813343479
0.159000000000000002,52.403227361841956622
0.160000000000000003,51.282213066046075767
0.161000000000000004,50.176078548274098523
0.162000000000000005,49.086020244868834084
0.163000000000000006,48.014128474863618123
0.164000000000000007,46.962532398939131895
0.165000000000000008,45.932866902181075375
0.166000000000000009,44.926019392710564659
0.167000000000000010,43.942087210327073876
0.168000000000000010,42.980473831787122663
0.169000000000000011,42.040061562165632836
0.170000000000000012,41.119412417803467008
0.171000000000000013,40.216963295868467299
0.172000000000000014,39.331194227096972327
0.173000000000000015,38.460758701139674542
0.174000000000000016,37.604572619492401486
0.175000000000000017,36.761863614260512634
0.176000000000000018,35.932185674586435198
0.177000000000000018,35.115405686861507206
0.178000000000000019,34.311669033238857196
0.179000000000000020,33.521351161173996047
0.180000000000000021,32.745001322555303602
0.181000000000000022,31.983283705585023426
0.182000000000000023,31.236920107581131134
0.183000000000000024,30.506637234009822635
0.184000000000000025,29.793120730135690621
0.185000000000000026,29.096977197885518507
0.186000000000000026,28.418704740547735099
0.187000000000000027,27.758672014652262305
0.188000000000000028,27.117105344208152218
0.189000000000000029,26.494083153477522075
0.190000000000000030,25.889536783381839058
0.191000000000000031,25.303256655089221283
0.192000000000000032,24.734902714290534220
0.193000000000000033,24.184018114408960543
0.194000000000000034,23.650045161623012291
0.195000000000000034,23.132342636332392516
0.196000000000000035,22.630203713928018772
0.197000000000000036,22.142873823868828964
0.198000000000000037,21.669567903436682599
0.199000000000000038,21.209486616127190217
0.200000000000000039,20.761831210867100594
0.201000000000000040,20.325816794755318995
0.202000000000000041,19.900683877413023026
0.203000000000000042,19.485708118679532674
0.204000000000000042,19.080208273280039322
0.205000000000000043,18.683552376637344139
0.206000000000000044,18.295162255926484818
0.207000000000000045,17.914516480710148016
0.208000000000000046,17.541151889090063065
0.209000000000000047,17.174663839362288797
0.210000000000000048,16.814705344768633211
0.211000000000000049,16.460985251150184183
0.212000000000000050,16.113265615122521979
0.213000000000000050,15.771358434718578678
0.214000000000000051,15.435121876099131555
0.215000000000000052,15.104456129636293582
0.216000000000000053,14.779299017055885557
0.217000000000000054,14.459621458913124670
0.218000000000000055,14.145422898915665399
0.219000000000000056,13.836726768863732318
0.220000000000000057,13.533576065536323085
0.221000000000000058,13.236029098943316029
0.222000000000000058,12.944155460149811887
0.223000000000000059,12.658032246483106320
0.224000000000000060,12.377740572428056254
0.225000000000000061,12.103362385946731195
0.226000000000000062,11.834977602334571856
0.227000000000000063,11.572661561038653844
0.228000000000000064,11.316482805084969954
0.229000000000000065,11.066501177848655502
0.230000000000000066,10.822766227801988492
0.231000000000000066,10.585315908530285256
0.232000000000000067,10.354175558651984801
0.233000000000000068,10.129357144251121881
0.234000000000000069,9.910858744962041555
0.235000000000000070,9.698664263873144620
0.236000000000000071,9.492743340876426572
0.237000000000000072,9.293051448922755142
0.238000000000000073,9.099530152794191196
0.239000000000000073,8.912107510422512036
0.240000000000000074,8.730698597418781404
0.241000000000000075,8.555206136291417351
0.242000000000000076,8.385521212778925815
0.243000000000000077,8.221524062774971497
0.244000000000000078,8.063084914446942975
0.245000000000000079,7.910064871318017943
0.246000000000000080,7.762316823274403532
0.247000000000000081,7.619686373653510536
0.248000000000000081,7.482012771750045310
0.249000000000000082,7.349129841230800153
0.250000000000000111,7.220866896064566554
0.251000000000000112,7.097049636642583259
0.252000000000000113,6.977501019779742464
0.253000000000000114,6.862042097243730154
0.254000000000000115,6.750492818353409419
0.255000000000000115,6.642672793018583377
0.256000000000000116,6.538402012358512039
0.257000000000000117,6.437501524737486491
0.258000000000000118,6.339794065692446523
0.259000000000000119,6.245104640802038531
0.260000000000000120,6.153261061060489645
0.261000000000000121,6.064094430776215461
0.262000000000000122,5.977439588416264549
0.263000000000000123,5.893135501167519053
0.264000000000000123,5.811025614286326579
0.265000000000000124,5.730958156564075701
0.266000000000000125,5.652786403449808539
0.267000000000000126,5.576368899546279678
0.268000000000000127,5.501569642335400800
0.269000000000000128,5.428258229096960541
0.270000000000000129,5.356309969063023146
0.271000000000000130,5.285605962903003885
0.272000000000000131,5.216033151663822309
0.273000000000000131,5.147484337298294577
0.274000000000000132,5.079858176905681866
0.275000000000000133,5.013059152783225336
0.276000000000000134,4.946997520349005306
0.277000000000000135,4.881589235946436567
0.278000000000000136,4.816755866480798787
0.279000000000000137,4.752424482770541303
0.280000000000000138,4.688527538421896068
0.281000000000000139,4.625002735955982658
0.282000000000000139,4.561792881834596969
0.283000000000000140,4.498845731945056770
0.284000000000000141,4.436113829017075183
0.285000000000000142,4.373554333356408641
0.286000000000000143,4.311128848191671636
0.287000000000000144,4.248803240843287199
0.288000000000000145,4.186547460836920642
0.289000000000000146,4.124335355999354746
0.290000000000000147,4.062144487492020062
0.291000000000000147,3.999955944657636930
0.292000000000000148,3.937754160477928700
0.293000000000000149,3.875526728366437190
0.294000000000000150,3.813264220949195593
0.295000000000000151,3.750960011418432938
0.296000000000000152,3.688610097980071778
0.297000000000000153,3.626212931854907673
0.298000000000000154,3.563769249235968939
0.299000000000000155,3.501281907550469974
0.300000000000000155,3.438755726324277617
0.301000000000000156,3.376197332899658399
0.302000000000000157,3.313615013212952931
0.303000000000000158,3.251018567798366288
0.304000000000000159,3.188419173146235686
0.305000000000000160,3.125829248509625735
0.306000000000000161,3.063262328221353581
0.307000000000000162,3.000732939554495271
0.308000000000000163,2.938256486133136391
0.309000000000000163,2.875849136876254875
0.310000000000000164,2.813527720436115764
0.311000000000000165,2.751309625073340648
0.312000000000000166,2.689212703893685052
0.313000000000000167,2.627255185356380807
0.314000000000000168,2.565455588950681154
0.315000000000000169,2.503832645925610834
0.316000000000000170,2.442405224948063225
0.317000000000000171,2.381192262555894334
0.318000000000000171,2.320212698265720075
0.319000000000000172,2.259485414189219998
0.320000000000000173,2.199029179007322643
0.321000000000000174,2.138862596148070061
0.322000000000000175,2.079004056011473089
0.323000000000000176,2.019471692083088854
0.324000000000000177,1.960283340777227323
0.325000000000000178,1.901456504850719487
0.326000000000000179,1.843008320228700203
0.327000000000000179,1.784955526085189037
0.328000000000000180,1.727314438022886645
0.329000000000000181,1.670100924198897996
0.330000000000000182,1.613330384245693638
0.331000000000000183,1.557017730839547642
0.332000000000000184,1.501177373772076162
0.333000000000000185,1.445823206383998194
0.334000000000000186,1.390968594223990884
0.335000000000000187,1.336626365799565619
0.336000000000000187,1.282808805290843512
0.337000000000000188,1.229527647102547805
0.338000000000000189,1.176794072133613422
0.339000000000000190,1.124618705648305461
0.340000000000000191,1.073011616637206123
0.341000000000000192,1.021982318560637371
0.342000000000000193,0.971539771371721317
0.343000000000000194,0.921692384720502966
0.344000000000000195,0.872448022245056576
0.345000000000000195,0.823814006859601378
0.346000000000000196,0.775797126954078653
0.347000000000000197,0.728403643423665925
0.348000000000000198,0.681639297450810422
0.349000000000000199,0.635509318966371084
0.350000000000000200,0.590018435720257584
0.351000000000000201,0.545170882895805731
0.352000000000000202,0.500970413205753973
0.353000000000000203,0.457420307411221194
0.354000000000000203,0.414523385208528772
0.355000000000000204,0.372282016432058271
0.356000000000000205,0.330698132524492039
0.357000000000000206,0.289773238228805685
0.358000000000000207,0.249508423459529061
0.359000000000000208,0.209904375313396063
0.360000000000000209,0.170961390182341799
0.361000000000000210,0.132679385934465932
0.362000000000000210,0.095057914130904184
0.363000000000000211,0.058096172249079550
0.364000000000000212,0.021793015884960899
0.365000000000000213,-0.013853029090831170
0.366000000000000214,-0.048843754446212251
0.367000000000000215,-0.083181257591293606
0.368000000000000216,-0.116867929691924013
0.369000000000000217,-0.149906443910622938
0.370000000000000218,-0.182299743790969471
0.371000000000000218,-0.214051031799767172
0.372000000000000219,-0.245163758039959934
0.373000000000000220,-0.275641609145868938
0.374000000000000221,-0.305488497370949963
0.375000000000000222,-0.334708549877107353
0.376000000000000223,-0.363306098233511732
0.377000000000000224,-0.391285668131638897
0.378000000000000225,-0.418651969322400841
0.379000000000000226,-0.445409885780173653
0.380000000000000226,-0.471564466097803003
0.381000000000000227,-0.497120914115654233
0.382000000000000228,-0.522084579787230885
0.383000000000000229,-0.546460950283020219
0.384000000000000230,-0.570255641333643148
0.385000000000000231,-0.593474388812836651
0.386000000000000232,-0.616123040560101032
0.387000000000000233,-0.638207548442523809
0.388000000000000234,-0.659733960654633078
0.389000000000000234,-0.680708414254894145
0.390000000000000235,-0.701137127936911075
0.391000000000000236,-0.721026395033161016
0.392000000000000237,-0.740382576748704890
0.393000000000000238,-0.759212095622070815
0.394000000000000239,-0.777521429210192183
0.395000000000000240,-0.795317103994128360
0.396000000000000241,-0.812605689502039041
0.397000000000000242,-0.829393792645688022
0.398000000000000242,-0.845688052266685864
0.399000000000000243,-0.861495133888402487
0.400000000000000244,-0.876821724669513691
0.401000000000000245,-0.891674528554954771
0.402000000000000246,-0.906060261619967000
0.403000000000000247,-0.919985647602940992
0.404000000000000248,-0.933457413622623577
0.405000000000000249,-0.946482286075274404
0.406000000000000250,-0.959066986707285962
0.407000000000000250,-0.971218228858833355
0.408000000000000251,-0.982942713874055962
0.409000000000000252,-0.994247127673318354
0.410000000000000253,-1.005138137483099658
0.411000000000000254,-1.015622388719105818
0.412000000000000255,-1.025706502018173927
0.413000000000000256,-1.035397070414701304
0.414000000000000257,-1.044700656657186588
0.415000000000000258,-1.053623790660745296
0.416000000000000258,-1.062172967091313591
0.417000000000000259,-1.070354643077458645
0.418000000000000260,-1.078175236045696872
0.419000000000000261,-1.085641121675334997
0.420000000000000262,-1.092758631968878458
0.421000000000000263,-1.099534053434183090
0.422000000000000264,-1.105973625374506719
0.423000000000000265,-1.112083538282807371
0.424000000000000266,-1.117869932336645222
0.425000000000000266,-1.123338895990101172
0.426000000000000267,-1.128496464659296539
0.427000000000000268,-1.133348619498084187
0.428000000000000269,-1.137901286260619482
0.429000000000000270,-1.142160334247589448
0.430000000000000271,-1.146131575332941521
0.431000000000000272,-1.149820763068075902
0.432000000000000273,-1.153233591860478580
0.433000000000000274,-1.156375696223943983
0.434000000000000274,-1.159252650097534643
0.435000000000000275,-1.161869966230535178
0.436000000000000276,-1.164233095630775150
0.437000000000000277,-1.166347427073684218
0.438000000000000278,-1.168218286669610917
0.439000000000000279,-1.169850937486967890
0.440000000000000280,-1.171250579228821920
0.441000000000000281,-1.172422347960662137
0.442000000000000282,-1.173371315887146382
0.443000000000000282,-1.174102491175642360
0.444000000000000283,-1.174620817824534980
0.445000000000000284,-1.174931175574256859
0.446000000000000285,-1.175038379859108417
0.447000000000000286,-1.174947181798035256
0.448000000000000287,-1.174662268222460781
0.449000000000000288,-1.174188261739524508
0.450000000000000289,-1.173529720828953460
0.451000000000000290,-1.172691139971974161
0.452000000000000290,-1.171676949810696922
0.453000000000000291,-1.170491517336415876
0.454000000000000292,-1.169139146105398819
0.455000000000000293,-1.167624076480726414
0.456000000000000294,-1.165950485898834543
0.457000000000000295,-1.164122489159449270
0.458000000000000296,-1.162144138737626564
0.459000000000000297,-1.160019425116725955
0.460000000000000298,-1.157752277141097075
0.461000000000000298,-1.155346562387392195
0.462000000000000299,-1.152806087553403636
0.463000000000000300,-1.150134598863374213
0.464000000000000301,-1.147335782488812406
0.465000000000000302,-1.144413264983811462
0.466000000000000303,-1.141370613733969419
0.467000000000000304,-1.138211337418030933
0.468000000000000305,-1.134938886481362319
0.469000000000000306,-1.131556653620473973
0.470000000000000306,-1.128067974277814356
0.471000000000000307,-1.124476127146021520
0.472000000000000308,-1.120784334680985150
0.473000000000000309,-1.116995763622983917
0.474000000000000310,-1.113113525525228686
0.475000000000000311,-1.109140677289204735
0.476000000000000312,-1.105080221706178367
0.477000000000000313,-1.100935108004310603
0.478000000000000314,-1.096708232400774197
0.479000000000000314,-1.092402438658405250
0.480000000000000315,-1.088020518646312329
0.481000000000000316,-1.083565212904009423
0.482000000000000317,-1.079039211208563165
0.483000000000000318,-1.074445153144341747
0.484000000000000319,-1.069785628674913891
0.485000000000000320,-1.065063178716708414
0.486000000000000321,-1.060280295714045584
0.487000000000000322,-1.055439424215159905
0.488000000000000322,-1.050542961448854840
0.489000000000000323,-1.045593257901492823
0.490000000000000324,-1.040592617893950855
0.491000000000000325,-1.035543300158272340
0.492000000000000326,-1.030447518413695862
0.493000000000000327,-1.025307441941825992
0.494000000000000328,-1.020125196160626357
0.495000000000000329,-1.014902863197059135
0.496000000000000330,-1.009642482458044777
0.497000000000000330,-1.004346051199622725
0.498000000000000331,-0.999015525093987833
0.499000000000000332,-0.993652818794302339
0.500000000000000333,-0.988259806497031379
0.501000000000000334,-0.982838322501626727
0.502000000000000335,-0.977390161767417887
0.503000000000000336,-0.971917080467523897
0.504000000000000337,-0.966420796539644522
0.505000000000000338,-0.960902990233577170
0.506000000000000338,-0.955365304655341085
0.507000000000000339,-0.949809346307773694
0.508000000000000340,-0.944236685627463879
0.509000000000000341,-0.938648857517958013
0.510000000000000342,-0.933047361879070225
0.511000000000000343,-0.927433664132257696
0.512000000000000344,-0.921809195741928322
0.513000000000000345,-0.916175354732617686
0.514000000000000346,-0.910533506201959275
0.515000000000000346,-0.904884982829355922
0.516000000000000347,-0.899231085380296280
0.517000000000000348,-0.893573083206270935
0.518000000000000349,-0.887912214740184447
0.519000000000000350,-0.882249687987276543
0.520000000000000351,-0.876586681011428781
0.521000000000000352,-0.870924342416899422
0.522000000000000353,-0.865263791825355510
0.523000000000000353,-0.859606120348245129
0.524000000000000354,-0.853952391054439319
0.525000000000000355,-0.848303639433116707
0.526000000000000356,-0.842660873851877157
0.527000000000000357,-0.837025076010068814
0.528000000000000358,-0.831397201387292784
0.529000000000000359,-0.825778179687091773
0.530000000000000360,-0.820168915275789723
0.531000000000000361,-0.814570287616498745
0.532000000000000361,-0.808983151698268843
0.533000000000000362,-0.803408338460382287
0.534000000000000363,-0.797846655211795097
0.535000000000000364,-0.792298886045728734
0.536000000000000365,-0.786765792249402240
0.537000000000000366,-0.781248112708938680
0.538000000000000367,-0.775746564309408471
0.539000000000000368,-0.770261842330080659
0.540000000000000369,-0.764794620834828631
0.541000000000000369,-0.759345553057767297
0.542000000000000370,-0.753915271784072027
0.543000000000000371,-0.748504389726052377
0.544000000000000372,-0.743113499894467178
0.545000000000000373,-0.737743175965109743
0.546000000000000374,-0.732393972640685176
0.547000000000000375,-0.727066426007988875
0.548000000000000376,-0.721761053890438320
0.549000000000000377,-0.716478356195950461
0.550000000000000377,-0.711218815260215687
0.551000000000000378,-0.705982896185364917
0.552000000000000379,-0.700771047174106765
0.553000000000000380,-0.695583699859304128
0.554000000000000381,-0.690421269629055034
0.555000000000000382,-0.685284155947323836
0.556000000000000383,-0.680172742670087205
0.557000000000000384,-0.675087398357117729
0.558000000000000385,-0.670028476579350607
0.559000000000000385,-0.664996316221925232
0.560000000000000386,-0.659991241782913685
0.561000000000000387,-0.655013563667765419
0.562000000000000388,-0.650063578479508797
0.563000000000000389,-0.645141569304749862
0.564000000000000390,-0.640247805995491137
0.565000000000000391,-0.635382545446816160
0.566000000000000392,-0.630546031870467427
0.567000000000000393,-0.625738497064372345
0.568000000000000393,-0.620960160678122763
0.569000000000000394,-0.616211230474469351
0.570000000000000395,-0.611491902586874581
0.571000000000000396,-0.606802361773119747
0.572000000000000397,-0.602142781665066629
0.573000000000000398,-0.597513325014547680
0.574000000000000399,-0.592914143935473148
0.575000000000000400,-0.588345380142161423
0.576000000000000401,-0.583807165183936605
0.577000000000000401,-0.579299620676059557
0.578000000000000402,-0.574822858526981673
0.579000000000000403,-0.570376981161992869
0.580000000000000404,-0.565962081743313195
0.581000000000000405,-0.561578244386618186
0.582000000000000406,-0.557225544374094661
0.583000000000000407,-0.552904048364013967
0.584000000000000408,-0.548613814596901173
0.585000000000000409,-0.544354893098315751
0.586000000000000409,-0.540127325878276054
0.587000000000000410,-0.535931147127405749
0.588000000000000411,-0.531766383409773669
0.589000000000000412,-0.527633053852541889
0.590000000000000413,-0.523531170332388385
0.591000000000000414,-0.519460737658795635
0.592000000000000415,-0.515421753754218170
0.593000000000000416,-0.511414209831158040
0.594000000000000417,-0.507438090566207256
0.595000000000000417,-0.503493374271098304
0.596000000000000418,-0.499580033060748274
0.597000000000000419,-0.495698033018418360
0.598000000000000420,-0.491847334357931376
0.599000000000000421,-0.488027891583070805
0.600000000000000422,-0.484239653644131629
0.601000000000000423,-0.480482564091689546
0.602000000000000424,-0.476756561227626108
0.603000000000000425,-0.473061578253437087
0.604000000000000425,-0.469397543415848606
0.605000000000000426,-0.465764380149804036
0.606000000000000427,-0.462162007218840265
0.607000000000000428,-0.458590338852864043
0.608000000000000429,-0.455049284883430771
0.609000000000000430,-0.451538750876468331
0.610000000000000431,-0.448058638262568198
0.611000000000000432,-0.444608844464813024
0.612000000000000433,-0.441189263024204137
0.613000000000000433,-0.437799783722722657
0.614000000000000434,-0.434440292704044051
0.615000000000000435,-0.431110672591947630
