# TricalciumAluminate-Wet-010_LYSSCA-AC
# h[nm],U(h)[kJ/mol]
0.149999999999999994,123.316970128428621933
0.150999999999999995,121.470332389756507041
0.151999999999999996,119.274484596981181994
0.152999999999999997,117.021338721885598488
0.153999999999999998,114.817893626714592870
0.154999999999999999,112.685667549848943736
0.156000000000000000,110.613624410529070019
0.157000000000000001,108.583965689291716217
0.158000000000000002,106.582813138893840232
0.159000000000000002,104.603046560977389845
0.160000000000000003,102.643527463963891933
0.161000000000000004,100.707047556859350834
0.162000000000000005,98.798193415634983694
0.163000000000000006,96.921648300726090497
0.164000000000000007,95.081081486512218248
0.165000000000000008,93.278588044883804287
0.166000000000000009,91.514562483567800655
0.167000000000000010,89.787870245932452917
0.168000000000000010,88.096192355096562210
0.169000000000000011,86.436442854501208899
0.170000000000000012,84.805186202164463793
0.171000000000000013,83.199007223673078215
0.172000000000000014,81.614807312544002116
0.173000000000000015,80.050016648640138328
0.174000000000000016,78.502723547475525834
0.175000000000000017,76.971729340969261557
0.176000000000000018,75.456541251372030388
0.177000000000000018,73.957317368012937209
0.178000000000000019,72.474777791031584684
0.179000000000000020,71.010094862152953965
0.180000000000000021,69.564773625379928035
0.181000000000000022,68.140531596895314692
0.182000000000000023,66.739184818392828902
0.183000000000000024,65.362545183640762048
0.184000000000000025,64.012332262061647725
0.185000000000000026,62.690101345097829721
0.186000000000000026,61.397188226331138594
0.187000000000000027,60.134670286608582046
0.188000000000000028,58.903342767952040049
0.189000000000000029,57.703708653734793188
0.190000000000000030,56.535980292892283217
0.191000000000000031,55.400090777946196852
0.192000000000000032,54.295713077386061229
0.193000000000000033,53.222285002665877585
0.194000000000000034,52.179038232780158069
0.195000000000000034,51.165029803181532486
0.196000000000000035,50.179174672780398225
0.197000000000000036,49.220278198723612206
0.198000000000000037,48.287067562715385804
0.199000000000000038,47.378221396841212254
0.200000000000000039,46.492397045661881805
0.201000000000000040,45.628255071243586372
0.202000000000000041,44.784480756895106879
0.203000000000000042,43.959802493060919915
0.204000000000000042,43.153007035394963964
0.205000000000000043,42.362951711528936016
0.206000000000000044,41.588573720933275979
0.207000000000000045,40.828896723335944330
0.208000000000000046,40.083034947343868737
0.209000000000000047,39.350195074193145217
0.210000000000000048,38.629676163881256912
0.211000000000000049,37.920867894168118539
0.212000000000000050,37.223247378792450490
0.213000000000000050,36.536374821308072569
0.214000000000000051,35.859888246593470740
0.215000000000000052,35.193497534555348238
0.216000000000000053,34.536977960884215122
0.217000000000000054,33.890163428817260183
0.218000000000000055,33.252939554460013483
0.219000000000000056,32.625236746913479635
0.220000000000000057,32.007023403719720989
0.221000000000000058,31.398299322345213369
0.222000000000000058,30.799089409831520214
0.223000000000000059,30.209437755547821070
0.224000000000000060,29.629402116294301095
0.225000000000000061,29.059048848889482031
0.226000000000000062,28.498448312841976104
0.227000000000000063,27.947670754732342857
0.228000000000000064,27.406782676460817783
0.229000000000000065,26.875843681474997027
0.230000000000000066,26.354903786389161979
0.231000000000000066,25.844001179939130708
0.232000000000000067,25.343160406879128743
0.233000000000000068,24.852390951106475114
0.234000000000000069,24.371686189888727370
0.235000000000000070,23.901022689456866033
0.236000000000000071,23.440359811315570226
0.237000000000000072,22.989639598307807233
0.238000000000000073,22.548786909666677758
0.239000000000000073,22.117709774907886811
0.240000000000000074,21.696299937381564149
0.241000000000000075,21.284433559547615289
0.242000000000000076,20.881972063496949232
0.243000000000000077,20.488763081859506343
0.244000000000000078,20.104641495968792242
0.245000000000000079,19.729430539950243428
0.246000000000000080,19.362942951230163402
0.247000000000000081,19.004982149792720492
0.248000000000000081,18.655343430318929165
0.249000000000000082,18.313815153102325439
0.250000000000000111,17.980179921334173088
0.251000000000000112,17.654215733973124713
0.252000000000000113,17.335697104949879588
0.253000000000000114,17.024396140900325491
0.254000000000000115,16.720083570964366260
0.255000000000000115,16.422529723430951520
0.256000000000000116,16.131505445150967404
0.257000000000000117,15.846782960679330898
0.258000000000000118,15.568136669048328713
0.259000000000000119,15.295343876917703696
0.260000000000000120,15.028185467597548808
0.261000000000000121,14.766446506102445468
0.262000000000000122,14.509916780972934802
0.263000000000000123,14.258391284099658947
0.264000000000000123,14.011670630210938171
0.265000000000000124,13.769561418041622147
0.266000000000000125,13.531876535495305447
0.267000000000000126,13.298435411348739521
0.268000000000000127,13.069064216231208064
0.269000000000000128,12.843596015748897088
0.270000000000000129,12.621870878718613795
0.271000000000000130,12.403735943531453145
0.272000000000000131,12.189045445690577907
0.273000000000000131,11.977660709560481678
0.274000000000000132,11.769450107333543798
0.275000000000000133,11.564288988165770888
0.276000000000000134,11.362059580360948985
0.277000000000000135,11.162650869394791897
0.278000000000000136,10.965958454469182826
0.279000000000000137,10.771884386175578641
0.280000000000000138,10.580336987727392284
0.281000000000000139,10.391230662095528814
0.282000000000000139,10.204485687251960258
0.283000000000000140,10.020028001593926703
0.284000000000000141,9.837788981488264639
0.285000000000000142,9.657705212742092371
0.286000000000000143,9.479718257674212722
0.287000000000000144,9.303774419331812595
0.288000000000000145,9.129824504269876684
0.289000000000000146,8.957823585187892235
0.290000000000000147,8.787730764598515876
0.291000000000000147,8.619508940588833212
0.292000000000000148,8.453124575624491044
0.293000000000000149,8.288547469242775634
0.294000000000000150,8.125750535381055073
0.295000000000000151,7.964709584993282299
0.296000000000000152,7.805403114518807861
0.297000000000000153,7.647812100684942216
0.298000000000000154,7.491919802047178223
0.299000000000000155,7.337711567599049189
0.300000000000000155,7.185174652716748156
0.301000000000000156,7.034298042642255666
0.302000000000000157,6.885072283651725300
0.303000000000000158,6.737489322004432957
0.304000000000000159,6.591542350720166255
0.305000000000000160,6.447225664190261440
0.306000000000000161,6.304534520588891411
0.307000000000000162,6.163465012016553501
0.308000000000000163,6.024013942277068878
0.309000000000000163,5.886178712162006832
0.310000000000000164,5.749957212092626335
0.311000000000000165,5.615347721948610982
0.312000000000000166,5.482348817895053017
0.313000000000000167,5.350959286003972970
0.314000000000000168,5.221178042454061696
0.315000000000000169,5.093004060082008344
0.316000000000000170,4.966436301050593194
0.317000000000000171,4.841473655392534603
0.318000000000000171,4.718114885184720109
0.319000000000000172,4.596358574104468353
0.320000000000000173,4.476203082118357379
0.321000000000000174,4.357646505054072250
0.322000000000000175,4.240686638806861808
0.323000000000000176,4.125320947934548954
0.324000000000000177,4.011546538398148343
0.325000000000000178,3.899360134209333584
0.326000000000000179,3.788758057750397423
0.327000000000000179,3.679736213538203238
0.328000000000000180,3.572290075209087146
0.329000000000000181,3.466414675508273202
0.330000000000000182,3.362104599074072553
0.331000000000000183,3.259353977814027470
0.332000000000000184,3.158156488677579254
0.333000000000000185,3.058505353637257507
0.334000000000000186,2.960393341697840519
0.335000000000000187,2.863812772760768066
0.336000000000000187,2.768755523178516142
0.337000000000000188,2.675213032841667449
0.338000000000000189,2.583176313648627431
0.339000000000000190,2.492635959215767194
0.340000000000000191,2.403582155693217981
0.341000000000000192,2.316004693558670002
0.342000000000000193,2.229892980268940672
0.343000000000000194,2.145236053655874109
0.344000000000000195,2.062022595960281812
0.345000000000000195,1.980240948403817258
0.346000000000000196,1.899879126205627156
0.347000000000000197,1.820924833956445443
0.348000000000000198,1.743365481269060435
0.349000000000000199,1.667188198629744988
0.350000000000000200,1.592379853380863741
0.351000000000000201,1.518927065770160567
0.352000000000000202,1.446816225007415024
0.353000000000000203,1.376033505273940305
0.354000000000000203,1.306564881635062125
0.355000000000000204,1.238396145810288562
0.356000000000000205,1.171512921759882531
0.357000000000000206,1.105900681050564716
0.358000000000000207,1.041544757967113544
0.359000000000000208,0.978430364339821113
0.360000000000000209,0.916542604061322819
0.361000000000000210,0.855866487269584808
0.362000000000000210,0.796386944176539435
0.363000000000000211,0.738088838524917024
0.364000000000000212,0.680956980658232625
0.365000000000000213,0.624976140191470186
0.366000000000000214,0.570131058272185465
0.367000000000000215,0.516406459423947695
0.368000000000000216,0.463787062965821562
0.369000000000000217,0.412257594003745953
0.370000000000000218,0.361802793990899541
0.371000000000000218,0.312407430856132928
0.372000000000000219,0.264056308700602538
0.373000000000000220,0.216734277064224518
0.374000000000000221,0.170426239764732451
0.375000000000000222,0.125117163313224616
0.376000000000000223,0.080792084910839140
0.377000000000000224,0.037436120032436036
0.378000000000000225,-0.004965530396379303
0.379000000000000226,-0.046427573221619590
0.380000000000000226,-0.086964616675036605
0.381000000000000227,-0.126591164371455733
0.382000000000000228,-0.165321609680741222
0.383000000000000229,-0.203170230465041735
0.384000000000000230,-0.240151184171786575
0.385000000000000231,-0.276278503272701870
0.386000000000000232,-0.311566091038596671
0.387000000000000233,-0.346027717639860455
0.388000000000000234,-0.379677016562086689
0.389000000000000234,-0.412527481326513068
0.390000000000000235,-0.444592462504590835
0.391000000000000236,-0.475885165016206091
0.392000000000000237,-0.506418645700936754
0.393000000000000238,-0.536205811151905909
0.394000000000000239,-0.565259415801678822
0.395000000000000240,-0.593592060249959697
0.396000000000000241,-0.621216189822792697
0.397000000000000242,-0.648144093353150041
0.398000000000000242,-0.674387902173044673
0.399000000000000243,-0.699959589307264762
0.400000000000000244,-0.724870968859240294
0.401000000000000245,-0.749133695579629943
0.402000000000000246,-0.772759264608342655
0.403000000000000247,-0.795759011381147907
0.404000000000000248,-0.818144111692032383
0.405000000000000249,-0.839925581902824292
0.406000000000000250,-0.861114279291757656
0.407000000000000250,-0.881720902532976525
0.408000000000000251,-0.901755992299136389
0.409000000000000252,-0.921229931979553718
0.410000000000000253,-0.940152948506595365
0.411000000000000254,-0.958535113283231155
0.412000000000000255,-0.976386343204895701
0.413000000000000256,-0.993716401769177970
0.414000000000000257,-1.010534900266844671
0.415000000000000258,-1.026851299048285426
0.416000000000000258,-1.042674908859364313
0.417000000000000259,-1.058014892241162297
0.418000000000000260,-1.072880264988170573
0.419000000000000261,-1.087279897659802153
0.420000000000000262,-1.101222517140245660
0.421000000000000263,-1.114716708242023735
0.422000000000000264,-1.127770915348636382
0.423000000000000265,-1.140393444092099973
0.424000000000000266,-1.152592463061266059
0.425000000000000266,-1.164376005536987835
0.426000000000000267,-1.175751971250505346
0.427000000000000268,-1.186728128161507634
0.428000000000000269,-1.197312114252546245
0.429000000000000270,-1.207511439336694359
0.430000000000000271,-1.217333486875428195
0.431000000000000272,-1.226785515803991533
0.432000000000000273,-1.235874662361523546
0.433000000000000274,-1.244607941923542072
0.434000000000000274,-1.252992250834398469
0.435000000000000275,-1.261034368237501813
0.436000000000000276,-1.268740957901334898
0.437000000000000277,-1.276118570039236788
0.438000000000000278,-1.283173643121255925
0.439000000000000279,-1.289912505676370058
0.440000000000000280,-1.296341378083521789
0.441000000000000281,-1.302466374350033540
0.442000000000000282,-1.308293503876141184
0.443000000000000282,-1.313828673204314290
0.444000000000000283,-1.319077687752361117
0.445000000000000284,-1.324046253529214567
0.446000000000000285,-1.328739978832469415
0.447000000000000286,-1.333164375926916279
0.448000000000000287,-1.337324862703143102
0.449000000000000288,-1.341226764315692765
0.450000000000000289,-1.344875314800022092
0.451000000000000290,-1.348275658667793309
0.452000000000000290,-1.351432852480035862
0.453000000000000291,-1.354351866397679682
0.454000000000000292,-1.357037585709212291
0.455000000000000293,-1.359494812335080072
0.456000000000000294,-1.361728266308628754
0.457000000000000295,-1.363742587233397252
0.458000000000000296,-1.365542335716572575
0.459000000000000297,-1.367131994778556070
0.460000000000000298,-1.368515971238540629
0.461000000000000298,-1.369698597076095092
0.462000000000000299,-1.370684130768773823
0.463000000000000300,-1.371476758605761903
0.464000000000000301,-1.372080595977689610
0.465000000000000302,-1.372499688642688564
0.466000000000000303,-1.372738013968815007
0.467000000000000304,-1.372799482153048256
0.468000000000000305,-1.372687937416988690
0.469000000000000306,-1.372407159179487746
0.470000000000000306,-1.371960863206478143
0.471000000000000307,-1.371352702738135365
0.472000000000000308,-1.370586269593741635
0.473000000000000309,-1.369665095254476883
0.474000000000000310,-1.368592651924401382
0.475000000000000311,-1.367372353569973553
0.476000000000000312,-1.366007556938383827
0.477000000000000313,-1.364501562555038294
0.478000000000000314,-1.362857615700487246
0.479000000000000314,-1.361078907367194724
0.480000000000000315,-1.359168575196407103
0.481000000000000316,-1.357129704395549918
0.482000000000000317,-1.354965328636429822
0.483000000000000318,-1.352678430934648457
0.484000000000000319,-1.350271944510550881
0.485000000000000320,-1.347748753632079133
0.486000000000000321,-1.345111694439896421
0.487000000000000322,-1.342363555755132554
0.488000000000000322,-1.339507079870080108
0.489000000000000323,-1.336544963322274793
0.490000000000000324,-1.333479857652244416
0.491000000000000325,-1.330314370145317282
0.492000000000000326,-1.327051064557823068
0.493000000000000327,-1.323692461828072320
0.494000000000000328,-1.320241040772407226
0.495000000000000329,-1.316699238766744440
0.496000000000000330,-1.313069452413839988
0.497000000000000330,-1.309354038196765879
0.498000000000000331,-1.305555313118742067
0.499000000000000332,-1.301675555329839806
0.500000000000000333,-1.297717004740759128
0.501000000000000334,-1.293681863624009498
0.502000000000000335,-1.289572297202871365
0.503000000000000336,-1.285390434228374179
0.504000000000000337,-1.281138367544647938
0.505000000000000338,-1.276818154642898495
0.506000000000000338,-1.272431818204337262
0.507000000000000339,-1.267981346632340189
0.508000000000000340,-1.263468694574078288
0.509000000000000341,-1.258895783431979831
0.510000000000000342,-1.254264501865188786
0.511000000000000343,-1.249576706281377181
0.512000000000000344,-1.244834221319084833
0.513000000000000345,-1.240038840320895730
0.514000000000000346,-1.235192325797698221
0.515000000000000346,-1.230296409884206854
0.516000000000000347,-1.225352794786036537
0.517000000000000348,-1.220363153218565255
0.518000000000000349,-1.215329128837729922
0.519000000000000350,-1.210252336663083295
0.520000000000000351,-1.205134363493193694
0.521000000000000352,-1.199976768313744557
0.522000000000000353,-1.194781082698362473
0.523000000000000353,-1.189548811202517875
0.524000000000000354,-1.184281431750598301
0.525000000000000355,-1.178980396016369170
0.526000000000000356,-1.173647129796977717
0.527000000000000357,-1.168283033380719704
0.528000000000000358,-1.162889481908671030
0.529000000000000359,-1.157467825730417177
0.530000000000000360,-1.152019390753961314
0.531000000000000361,-1.146545478790045536
0.532000000000000361,-1.141047367890970055
0.533000000000000362,-1.135526312684083772
0.534000000000000363,-1.129983544700074782
0.535000000000000364,-1.124420272696219580
0.536000000000000365,-1.118837682974670455
0.537000000000000366,-1.113236939695977590
0.538000000000000367,-1.107619185187881383
0.539000000000000368,-1.101985540249602380
0.540000000000000369,-1.096337104451619249
0.541000000000000369,-1.090674956431174625
0.542000000000000370,-1.085000154183484389
0.543000000000000371,-1.079313735348869319
0.544000000000000372,-1.073616717495833317
0.545000000000000373,-1.067910098400222996
0.546000000000000374,-1.062194856320543224
0.547000000000000375,-1.056471950269515014
0.548000000000000376,-1.050742320281994324
0.549000000000000377,-1.045006887679290397
0.550000000000000377,-1.039266555330009334
0.551000000000000378,-1.033522207907445312
0.552000000000000379,-1.027774712143668889
0.553000000000000380,-1.022024917080310402
0.554000000000000381,-1.016273654316148134
0.555000000000000382,-1.010521738251590085
0.556000000000000383,-1.004769966330029574
0.557000000000000384,-0.999019119276264300
0.558000000000000385,-0.993269961331899820
0.559000000000000385,-0.987523240487911402
0.560000000000000386,-0.981779688714358501
0.561000000000000387,-0.976040022187317446
0.562000000000000388,-0.970304941513081554
0.563000000000000389,-0.964575131949704456
0.564000000000000390,-0.958851263625894790
0.565000000000000391,-0.953133991757339927
0.566000000000000392,-0.947423956860476757
0.567000000000000393,-0.941721784963804764
0.568000000000000393,-0.936028087816696774
0.569000000000000394,-0.930343463095830048
0.570000000000000395,-0.924668494609245051
0.571000000000000396,-0.919003752498031901
0.572000000000000397,-0.913349793435766721
0.573000000000000398,-0.907707160825637516
0.574000000000000399,-0.902076384995362468
0.575000000000000400,-0.896457983389896129
0.576000000000000401,-0.890852460761953679
0.577000000000000401,-0.885260309360434205
0.578000000000000402,-0.879682009116686148
0.579000000000000403,-0.874118027828704514
0.580000000000000404,-0.868568821343297381
0.581000000000000405,-0.863034833736173290
0.582000000000000406,-0.857516497490068197
0.583000000000000407,-0.852014233670855825
0.584000000000000408,-0.846528452101721784
0.585000000000000409,-0.841059551535394911
0.586000000000000409,-0.835607919824451928
0.587000000000000410,-0.830173934089763477
0.588000000000000411,-0.824757960887017250
0.589000000000000412,-0.819360356371450771
0.590000000000000413,-0.813981466460689917
0.591000000000000414,-0.808621626995818743
0.592000000000000415,-0.803281163900637529
0.593000000000000416,-0.797960393339135043
0.594000000000000417,-0.792659621871202091
0.595000000000000417,-0.787379146606639435
0.596000000000000418,-0.782119255357359044
0.597000000000000419,-0.776880226787965200
0.598000000000000420,-0.771662330564562793
0.599000000000000421,-0.766465827501935482
0.600000000000000422,-0.761290969709041976
0.601000000000000423,-0.756138000732838544
0.602000000000000424,-0.751007155700504359
0.603000000000000425,-0.745898661460025258
0.604000000000000425,-0.740812736719149045
0.605000000000000426,-0.735749592182771694
0.606000000000000427,-0.730709430688747386
0.607000000000000428,-0.725692447342067171
0.608000000000000429,-0.720698829647581030
0.609000000000000430,-0.715728757641064250
0.610000000000000431,-0.710782404018843517
0.611000000000000432,-0.705859934265842925
0.612000000000000433,-0.700961506782140864
0.613000000000000433,-0.696087273008039298
0.614000000000000434,-0.691237377547636145
