# TricalciumAluminate-Wet-010_BGALNA-AC
# h[nm],U(h)[kJ/mol]
0.149999999999999994,143.370195538036568905
0.150999999999999995,140.456170280977801212
0.151999999999999996,138.117291620557466558
0.152999999999999997,136.036302984146800554
0.153999999999999998,134.034830564036951728
0.154999999999999999,132.027343322345871002
0.156000000000000000,129.985725819547269566
0.157000000000000001,127.913710792422989471
0.158000000000000002,125.829569050413965670
0.159000000000000002,123.755236305101945504
0.160000000000000003,121.710166775507289572
0.161000000000000004,119.708460365580393159
0.162000000000000005,117.758110075824490082
0.163000000000000006,115.861503741947871049
0.164000000000000007,114.016563251008420821
0.165000000000000008,112.218106273175365573
0.166000000000000009,110.459170867699910445
0.167000000000000010,108.732157310897463276
0.168000000000000010,107.029721188653823560
0.169000000000000011,105.345404435661791354
0.170000000000000012,103.674023203208022892
0.171000000000000013,102.011848826742635765
0.172000000000000014,100.356625298808253888
0.173000000000000015,98.707467069391654491
0.174000000000000016,97.064677340575684639
0.175000000000000017,95.429521201986148071
0.176000000000000018,93.803981284829859533
0.177000000000000018,92.190516958333958542
0.178000000000000019,90.591841978082030096
0.179000000000000020,89.010730202606197281
0.180000000000000021,87.449854635526037328
0.181000000000000022,85.911661627075659453
0.182000000000000023,84.398279513970720700
0.183000000000000024,82.911459185362218705
0.184000000000000025,81.452542913924318668
0.185000000000000026,80.022457161795429670
0.186000000000000026,78.621724845072506582
0.187000000000000027,77.250492614015698223
0.188000000000000028,75.908568989889502632
0.189000000000000029,74.595469619542996043
0.190000000000000030,73.310466406184247035
0.191000000000000031,72.052637803473572831
0.192000000000000032,70.820918085908672879
0.193000000000000033,69.614143907289360413
0.194000000000000034,68.431096914791055497
0.195000000000000034,67.270541589333845423
0.196000000000000035,66.131257829058313291
0.197000000000000036,65.012068081164372302
0.198000000000000037,63.911859060213053851
0.199000000000000038,62.829598272169867812
0.200000000000000039,61.764345698077946167
0.201000000000000040,60.715261084986607898
0.202000000000000041,59.681607350535387013
0.203000000000000042,58.662750637197440540
0.204000000000000042,57.658157558109543572
0.205000000000000043,56.667390163694655314
0.206000000000000044,55.690099131421177958
0.207000000000000045,54.726015643986656301
0.208000000000000046,53.774942377331605314
0.209000000000000047,52.836743972008719084
0.210000000000000048,51.911337311863292143
0.211000000000000049,50.998681884566011036
0.212000000000000050,50.098770450705771395
0.213000000000000050,49.211620202960148163
0.214000000000000051,48.337264555061743465
0.215000000000000052,47.475745662358704635
0.216000000000000053,46.627107741993782497
0.217000000000000054,45.791391231193316003
0.218000000000000055,44.968627796819838238
0.219000000000000056,44.158836188051893146
0.220000000000000057,43.362018906577567634
0.221000000000000058,42.578159654752951724
0.222000000000000058,41.807221511453448670
0.223000000000000059,41.049145777512045186
0.224000000000000060,40.303851427345037450
0.225000000000000061,39.571235100282983410
0.226000000000000062,38.851171563925177566
0.227000000000000063,38.143514582217349584
0.228000000000000064,37.448098122631236606
0.229000000000000065,36.764737839538405240
0.230000000000000066,36.093232774391466933
0.231000000000000066,35.433367217439680985
0.232000000000000067,34.784912680235123617
0.233000000000000068,34.147629932970183120
0.234000000000000069,33.521271065592216587
0.235000000000000070,32.905581536556255173
0.236000000000000071,32.300302177905919621
0.237000000000000072,31.705171130043158456
0.238000000000000073,31.119925683999440480
0.239000000000000073,30.544304013212137505
0.240000000000000074,29.978046780703618168
0.241000000000000075,29.420898611142671797
0.242000000000000076,28.872609420520582546
0.243000000000000077,28.332935599096867207
0.244000000000000078,27.801641045864027291
0.245000000000000079,27.278498055053905347
0.246000000000000080,26.763288057173809875
0.247000000000000081,26.255802218730838860
0.248000000000000081,25.755841906198519098
0.249000000000000082,25.263219020918089797
0.250000000000000111,24.777756212527709323
0.251000000000000112,24.299286979198853942
0.252000000000000113,23.827655663448133794
0.253000000000000114,23.362717352609646326
0.254000000000000115,22.904337693212063698
0.255000000000000115,22.452392628530986940
0.256000000000000116,22.006768068493819612
0.257000000000000117,21.567359500922655968
0.258000000000000118,21.134071552823851192
0.259000000000000119,20.706817510087322631
0.260000000000000120,20.285518803556321643
0.261000000000000121,19.870104468984038704
0.262000000000000122,19.460510587914935599
0.263000000000000123,19.056679716029570670
0.264000000000000123,18.658560304977136468
0.265000000000000124,18.266106123200749778
0.266000000000000125,17.879275680741443466
0.267000000000000126,17.498031662494330618
0.268000000000000127,17.122340373889080922
0.269000000000000128,16.752171202481424217
0.270000000000000129,16.387496098475295980
0.271000000000000130,16.028289076749221209
0.272000000000000131,15.674525742538843787
0.273000000000000131,15.326182842529714634
0.274000000000000132,14.983237842743410084
0.275000000000000133,14.645668534254975057
0.276000000000000134,14.313452667461598722
0.277000000000000135,13.986567615331603420
0.278000000000000136,13.664990065797237406
0.279000000000000137,13.348695743215856169
0.280000000000000138,13.037659158610228616
0.281000000000000139,12.731853388208175915
0.282000000000000139,12.431249879635320355
0.283000000000000140,12.135818284969166925
0.284000000000000141,11.845526319739112964
0.285000000000000142,11.560339646851598872
0.286000000000000143,11.280221784333322788
0.287000000000000144,11.005134035715869345
0.288000000000000145,10.735035441830570235
0.289000000000000146,10.469882752743437493
0.290000000000000147,10.209630418532622542
0.291000000000000147,9.954230597596945174
0.292000000000000148,9.703633181179247558
0.293000000000000149,9.457785832794883163
0.294000000000000150,9.216634041268999766
0.295000000000000151,8.980121186108616982
0.296000000000000152,8.748188613963398197
0.297000000000000153,8.520775724963192133
0.298000000000000154,8.297820067759143825
0.299000000000000155,8.079257442137995682
0.300000000000000155,7.865022008125265529
0.301000000000000156,7.655046400542225626
0.302000000000000157,7.449261848031815347
0.303000000000000158,7.247598295621607178
0.304000000000000159,7.049984529944905098
0.305000000000000160,6.856348306295137363
0.306000000000000161,6.666616476742592390
0.307000000000000162,6.480715118596310553
0.308000000000000163,6.298569662547167880
0.309000000000000163,6.120105019880588415
0.310000000000000164,5.945245708198341639
0.311000000000000165,5.773915975139066070
0.312000000000000166,5.606039919635444235
0.313000000000000167,5.441541610292764730
0.314000000000000168,5.280345200518802073
0.315000000000000169,5.122375040077904451
0.316000000000000170,4.967555782783593443
0.317000000000000171,4.815812490083136943
0.318000000000000171,4.667070730324963890
0.319000000000000172,4.521256673534615800
0.320000000000000173,4.378297181558464146
0.321000000000000174,4.238119893465271737
0.322000000000000175,4.100653306124722342
0.323000000000000176,3.965826849909263707
0.324000000000000177,3.833570959490486985
0.325000000000000178,3.703817139724775220
0.326000000000000179,3.576498026643883943
0.327000000000000179,3.451547443586053809
0.328000000000000180,3.328900452520814124
0.329000000000000181,3.208493400636791115
0.330000000000000182,3.090263962276540877
0.331000000000000183,2.974151176315122491
0.332000000000000184,2.860095479090976056
0.333000000000000185,2.748038733007680534
0.334000000000000186,2.637924250933965098
0.335000000000000187,2.529696816537124526
0.336000000000000187,2.423302700691174039
0.337000000000000188,2.318689674106859222
0.338000000000000189,2.215807016334404800
0.339000000000000190,2.114605521293721146
0.340000000000000191,2.015037499489107375
0.341000000000000192,1.917056777067107420
0.342000000000000193,1.820618691877162743
0.343000000000000194,1.725680086694795445
0.344000000000000195,1.632199299766954770
0.345000000000000195,1.540136152837553674
0.346000000000000196,1.449451936810378427
0.347000000000000197,1.360109395203915605
0.348000000000000198,1.272072705550621130
0.349000000000000199,1.185307458890102028
0.350000000000000200,1.099780637502514535
0.351000000000000201,1.015460591025114434
0.352000000000000202,0.932317011091061687
0.353000000000000203,0.850320904625642804
0.354000000000000203,0.769444565930896607
0.355000000000000204,0.689661547685449960
0.356000000000000205,0.610946630981757943
0.357000000000000206,0.533275794518401680
0.358000000000000207,0.456626183060748925
0.359000000000000208,0.380976075278267767
0.360000000000000209,0.306304851062241201
0.361000000000000210,0.232592958423027518
0.362000000000000210,0.159821880061078392
0.363000000000000211,0.087974099701447803
0.364000000000000212,0.017033068276777107
0.365000000000000213,-0.053016829960810162
0.366000000000000214,-0.122190311322987633
0.367000000000000215,-0.190501226492169107
0.368000000000000216,-0.257962594185164540
0.369000000000000217,-0.324586634610479041
0.370000000000000218,-0.390384802660807384
0.371000000000000218,-0.455367820785938071
0.372000000000000219,-0.519545711495495555
0.373000000000000220,-0.582927829444687129
0.374000000000000221,-0.645522893059874314
0.375000000000000222,-0.707339015664346094
0.376000000000000223,-0.768383736068453560
0.377000000000000224,-0.828664048591045366
0.378000000000000225,-0.888186432482856225
0.379000000000000226,-0.946956880725195349
0.380000000000000226,-1.004980928180579713
0.381000000000000227,-1.062263679074339384
0.382000000000000228,-1.118809833789371266
0.383000000000000229,-1.174623714958385134
0.384000000000000230,-1.229709292840635459
0.385000000000000231,-1.284070209972468790
0.386000000000000232,-1.337709805082950787
0.387000000000000233,-1.390631136268301704
0.388000000000000234,-1.442837003420391007
0.389000000000000234,-1.494329969906775357
0.390000000000000235,-1.545112383501205944
0.391000000000000236,-1.595186396565304365
0.392000000000000237,-1.644553985483586889
0.393000000000000238,-1.693216969355449297
0.394000000000000239,-1.741177027948952460
0.395000000000000240,-1.788435718922664730
0.396000000000000241,-1.834994494322750525
0.397000000000000242,-1.880854716363628443
0.398000000000000242,-1.926017672501563194
0.399000000000000243,-1.970484589811207332
0.400000000000000244,-2.014256648676201689
0.401000000000000245,-2.057334995805491396
0.402000000000000246,-2.099720756587570403
0.403000000000000247,-2.141415046795823507
0.404000000000000248,-2.182418983658229727
0.405000000000000249,-2.222733696305468243
0.406000000000000250,-2.262360335611666606
0.407000000000000250,-2.301300083442561650
0.408000000000000251,-2.339554161325939408
0.409000000000000252,-2.377123838559668023
0.410000000000000253,-2.414010439772668271
0.411000000000000254,-2.450215351954426080
0.412000000000000255,-2.485740030968677239
0.413000000000000256,-2.520586007567138243
0.414000000000000257,-2.554754892918888132
0.415000000000000258,-2.588248383671402753
0.416000000000000258,-2.621068266558819637
0.417000000000000259,-2.653216422573269284
0.418000000000000260,-2.684694830714811076
0.419000000000000261,-2.715505571335533830
0.420000000000000262,-2.745650829093102541
0.421000000000000263,-2.775132895529124788
0.422000000000000264,-2.803954171287110775
0.423000000000000265,-2.832117167985118034
0.424000000000000266,-2.859624509757558108
0.425000000000000266,-2.886478934480544378
0.426000000000000267,-2.912683294695012304
0.427000000000000268,-2.938240558241440148
0.428000000000000269,-2.963153808619788165
0.429000000000000270,-2.987426245088075305
0.430000000000000271,-3.011061182512562162
0.431000000000000272,-3.034062050982411662
0.432000000000000273,-3.056432395201210905
0.433000000000000274,-3.078175873667614137
0.434000000000000274,-3.099296257656909859
0.435000000000000275,-3.119797430015080586
0.436000000000000276,-3.139683383776633363
0.437000000000000277,-3.158958220617076318
0.438000000000000278,-3.177626149150671875
0.439000000000000279,-3.195691483083803242
0.440000000000000280,-3.213158639233846259
0.441000000000000281,-3.230032135423265061
0.442000000000000282,-3.246316588258331137
0.443000000000000282,-3.262016710801349806
0.444000000000000283,-3.277137310145310067
0.445000000000000284,-3.291683284899229900
0.446000000000000285,-3.305659622592377112
0.447000000000000286,-3.319071397005232793
0.448000000000000287,-3.331923765434596785
0.449000000000000288,-3.344221965900209703
0.450000000000000289,-3.355971314299722508
0.451000000000000290,-3.367177201518724239
0.452000000000000290,-3.377845090502269443
0.453000000000000291,-3.387980513293887608
0.454000000000000292,-3.397589068048070260
0.455000000000000293,-3.406676416021712672
0.456000000000000294,-3.415248278549905869
0.457000000000000295,-3.423310434011157977
0.458000000000000296,-3.430868714786837526
0.459000000000000297,-3.437929004219514972
0.460000000000000298,-3.444497233574509210
0.461000000000000298,-3.450579379008826830
0.462000000000000299,-3.456181458551423447
0.463000000000000300,-3.461309529098433924
0.464000000000000301,-3.465969683426985970
0.465000000000000302,-3.470168047230810515
0.466000000000000303,-3.473910776180794358
0.467000000000000304,-3.477204053013426055
0.468000000000000305,-3.480054084649781831
0.469000000000000306,-3.482467099347714701
0.470000000000000306,-3.484449343889603146
0.471000000000000307,-3.486007080807794978
0.472000000000000308,-3.487146585649964159
0.473000000000000309,-3.487874144286166711
0.474000000000000310,-3.488196050259381398
0.475000000000000311,-3.488118602181200512
0.476000000000000312,-3.487648101174074977
0.477000000000000313,-3.486790848361535300
0.478000000000000314,-3.485553142407507465
0.479000000000000314,-3.483941277105942813
0.480000000000000315,-3.481961539021609209
0.481000000000000316,-3.479620205183022286
0.482000000000000317,-3.476923540828181558
0.483000000000000318,-3.473877797203825502
0.484000000000000319,-3.470489209418735843
0.485000000000000320,-3.466763994351536038
0.486000000000000321,-3.462708348613400489
0.487000000000000322,-3.458328446565919201
0.488000000000000322,-3.453630438394285740
0.489000000000000323,-3.448620448236059843
0.490000000000000324,-3.443304572365403882
0.491000000000000325,-3.437688877432889534
0.492000000000000326,-3.431779398760689048
0.493000000000000327,-3.425582138693127554
0.494000000000000328,-3.419103065002236264
0.495000000000000329,-3.412348109348209313
0.496000000000000330,-3.405323165794261975
0.497000000000000330,-3.398034089375739253
0.498000000000000331,-3.390486694722809169
0.499000000000000332,-3.382686754736527579
0.500000000000000333,-3.374639999317634587
0.501000000000000334,-3.366352114147520780
0.502000000000000335,-3.357828739520924977
0.503000000000000336,-3.349075469229622737
0.504000000000000337,-3.340097849496552751
0.505000000000000338,-3.330901377959667009
0.506000000000000338,-3.321491502704842169
0.507000000000000339,-3.311873621347127372
0.508000000000000340,-3.302053080159557119
0.509000000000000341,-3.292035173248867519
0.510000000000000342,-3.281825141777202415
0.511000000000000343,-3.271428173229149028
0.512000000000000344,-3.260849400723185632
0.513000000000000345,-3.250093902366790299
0.514000000000000346,-3.239166700654398934
0.515000000000000346,-3.228072761907264443
0.516000000000000347,-3.216816995754471442
0.517000000000000348,-3.205404254654239171
0.518000000000000349,-3.193839333454562279
0.519000000000000350,-3.182126968992465166
0.520000000000000351,-3.170271839730832042
0.521000000000000352,-3.158278565432137253
0.522000000000000353,-3.146151706867993170
0.523000000000000353,-3.133895765563811331
0.524000000000000354,-3.121515183577641572
0.525000000000000355,-3.109014343312287210
0.526000000000000356,-3.096397567359876923
0.527000000000000357,-3.083669118378042917
0.528000000000000358,-3.070833198996768765
0.529000000000000359,-3.057893951755168871
0.530000000000000360,-3.044855459067226544
0.531000000000000361,-3.031721743215765041
0.532000000000000361,-3.018496766373732321
0.533000000000000362,-3.005184430652025007
0.534000000000000363,-2.991788578173000257
0.535000000000000364,-2.978312991168911683
0.536000000000000365,-2.964761392104392268
0.537000000000000366,-2.951137443822304807
0.538000000000000367,-2.937444749712026848
0.539000000000000368,-2.923686853899595484
0.540000000000000369,-2.909867241458744314
0.541000000000000369,-2.895989338642274369
0.542000000000000370,-2.882056513132842390
0.543000000000000371,-2.868072074312606468
0.544000000000000372,-2.854039273550879940
0.545000000000000373,-2.839961304509191375
0.546000000000000374,-2.825841303462980125
0.547000000000000375,-2.811682349639291534
0.548000000000000376,-2.797487465569815868
0.549000000000000377,-2.783259617458572421
0.550000000000000377,-2.769001715563648158
0.551000000000000378,-2.754716614592284341
0.552000000000000379,-2.740407114108819098
0.553000000000000380,-2.726075958954742084
0.554000000000000381,-2.711725839680339867
0.555000000000000382,-2.697359392987414672
0.556000000000000383,-2.682979202182322442
0.557000000000000384,-2.668587797639025538
0.558000000000000385,-2.654187657271370071
0.559000000000000385,-2.639781207014256559
0.560000000000000386,-2.625370821313072867
0.561000000000000387,-2.610958823620929348
0.562000000000000388,-2.596547486903168611
0.563000000000000389,-2.582139034148732470
0.564000000000000390,-2.567735638887856275
0.565000000000000391,-2.553339425715655864
0.566000000000000392,-2.538952470821167484
0.567000000000000393,-2.524576802521440122
0.568000000000000393,-2.510214401800165973
0.569000000000000394,-2.495867202850536870
0.570000000000000395,-2.481537093621914547
0.571000000000000396,-2.467225916369836458
0.572000000000000397,-2.452935468209132885
0.573000000000000398,-2.438667501669647741
0.574000000000000399,-2.424423725254314821
0.575000000000000400,-2.410205803999170726
0.576000000000000401,-2.396015360035008701
0.577000000000000401,-2.381853973150395820
0.578000000000000402,-2.367723181355632089
0.579000000000000403,-2.353624481447419647
0.580000000000000404,-2.339559329574009805
0.581000000000000405,-2.325529141800379396
0.582000000000000406,-2.311535294673354279
0.583000000000000407,-2.297579125786250565
0.584000000000000408,-2.283661934342910982
0.585000000000000409,-2.269784981720813999
0.586000000000000409,-2.255949492033016313
0.587000000000000410,-2.242156652688791496
0.588000000000000411,-2.228407614952588212
0.589000000000000412,-2.214703494501295999
0.590000000000000413,-2.201045371979408305
0.591000000000000414,-2.187434293552056097
0.592000000000000415,-2.173871271455650067
0.593000000000000416,-2.160357284545931567
0.594000000000000417,-2.146893278843301722
0.595000000000000417,-2.133480168075311489
0.596000000000000418,-2.120118834215982684
0.597000000000000419,-2.106810128022053252
0.598000000000000420,-2.093554869565766197
0.599000000000000421,-2.080353848764260327
0.600000000000000422,-2.067207825905290619
0.601000000000000423,-2.054117532169231097
0.602000000000000424,-2.041083670147236795
0.603000000000000425,-2.028106914355425339
0.604000000000000425,-2.015187911744977800
0.605000000000000426,-2.002327282208086423
0.606000000000000427,-1.989525619079654195
0.607000000000000428,-1.976783489634559077
0.608000000000000429,-1.964101435580608568
0.609000000000000430,-1.951479973546841773
0.610000000000000431,-1.938919595567356380
0.611000000000000432,-1.926420769560404533
0.612000000000000433,-1.913983939802780920
0.613000000000000433,-1.901609527399458655
