# TricalciumAluminate-Wet-010_VALSCA-JS
# h[nm],U(h)[kJ/mol]
0.149999999999999994,106.175824431504949530
0.150999999999999995,104.836938413347752430
0.151999999999999996,102.931598764306812654
0.152999999999999997,100.926498334928723466
0.153999999999999998,99.006181897637290490
0.154999999999999999,97.215074103239714987
0.156000000000000000,95.537592606078135304
0.157000000000000001,93.940418752501543054
0.158000000000000002,92.392447091079873189
0.159000000000000002,90.872213985434072470
0.160000000000000003,89.368828252262304090
0.161000000000000004,87.879972616208476666
0.162000000000000005,86.408982283132019120
0.163000000000000006,84.962037890837763143
0.164000000000000007,83.545930113165738362
0.165000000000000008,82.166523494029789276
0.166000000000000009,80.827874506536574017
0.167000000000000010,79.531881678647295075
0.168000000000000010,78.278323748619556000
0.169000000000000011,77.065149646572152164
0.170000000000000012,75.888905838898551792
0.171000000000000013,74.745212846874238721
0.172000000000000014,73.629228342876061220
0.173000000000000015,72.536056539018844092
0.174000000000000016,71.461081608629399398
0.175000000000000017,70.400216536021204661
0.176000000000000018,69.350068478050360454
0.177000000000000018,68.308028064429507253
0.178000000000000019,67.272293742955653784
0.179000000000000020,66.241843937977137102
0.180000000000000021,65.216370004532990379
0.181000000000000022,64.196182199591561357
0.182000000000000023,63.182099531497485145
0.183000000000000024,62.175332675514631831
0.184000000000000025,61.177367366303222695
0.185000000000000026,60.189853942356613459
0.186000000000000026,59.214507116930789721
0.187000000000000027,58.253018639654861488
0.188000000000000028,57.306984318489284647
0.189000000000000029,56.377845897874422576
0.190000000000000030,55.466847526550381531
0.191000000000000031,54.575005979485197827
0.192000000000000032,53.703093399509860717
0.193000000000000033,52.851631070406334345
0.194000000000000034,52.020892599036912429
0.195000000000000034,51.210914845615334912
0.196000000000000035,50.421514976493895688
0.197000000000000036,49.652312103530590548
0.198000000000000037,48.902752101603049084
0.199000000000000038,48.172134347277022925
0.200000000000000039,47.459639285720406576
0.201000000000000040,46.764355900740277150
0.202000000000000041,46.085308327463195610
0.203000000000000042,45.421481003637694585
0.204000000000000042,44.771841900300330508
0.205000000000000043,44.135363503368452598
0.206000000000000044,43.511041333373803752
0.207000000000000045,42.897909890614819517
0.208000000000000046,42.295055997672832859
0.209000000000000047,41.701629581162961813
0.210000000000000048,41.116851990740762801
0.211000000000000049,40.540021996945341698
0.212000000000000050,39.970519641723406323
0.213000000000000050,39.407808137801168868
0.214000000000000051,38.851434026793263854
0.215000000000000052,38.301025812361707779
0.216000000000000053,37.756291285090711085
0.217000000000000054,37.217013751157551837
0.218000000000000055,36.683047368386837661
0.219000000000000056,36.154311781795378522
0.220000000000000057,35.630786237074950407
0.221000000000000058,35.112503335325463638
0.222000000000000058,34.599542576333668364
0.223000000000000059,34.092023821298631958
0.224000000000000060,33.590100789544649729
0.225000000000000061,33.093954687767983103
0.226000000000000062,32.603788054996712731
0.227000000000000063,32.119818891901402935
0.228000000000000064,31.642275129521191701
0.229000000000000065,31.171389479961010949
0.230000000000000066,30.707394700230032925
0.231000000000000066,30.250519290150243990
0.232000000000000067,29.800983636166826329
0.233000000000000068,29.358996604912924511
0.234000000000000069,28.924752583479044432
0.235000000000000070,28.498428957458067146
0.236000000000000071,28.080184012917264624
0.237000000000000072,27.670155244418232598
0.238000000000000073,27.268458047991629201
0.239000000000000073,26.875184775501871570
0.240000000000000074,26.490404125029478166
0.241000000000000075,26.114160840686302834
0.242000000000000076,25.746475694586841598
0.243000000000000077,25.387345723460761349
0.244000000000000078,25.036744692545141788
0.245000000000000079,24.694623759877522673
0.246000000000000080,24.360912314870244444
0.247000000000000081,24.035518966030799959
0.248000000000000081,23.718332653857039816
0.249000000000000082,23.409223866239084799
0.250000000000000111,23.108045935104463808
0.251000000000000112,22.814636394517737727
0.252000000000000113,22.528818381961730921
0.253000000000000114,22.250402066060690487
0.254000000000000115,21.979186085534070827
0.255000000000000115,21.714958985677036196
0.256000000000000116,21.457500640133339687
0.257000000000000117,21.206583647148171679
0.258000000000000118,20.961974690851139513
0.259000000000000119,20.723435859416373006
0.260000000000000120,20.490725913171907280
0.261000000000000121,20.263601496879964259
0.262000000000000122,20.041818291481174441
0.263000000000000123,19.825132101588010869
0.264000000000000123,19.613299875925353177
0.265000000000000124,19.406080658750461509
0.266000000000000125,19.203236471041726929
0.267000000000000126,19.004533120928289947
0.268000000000000127,18.809740943442605499
0.269000000000000128,18.618635470220112893
0.270000000000000129,18.430998030245753228
0.271000000000000130,18.246616283161273486
0.272000000000000131,18.065284687003501318
0.273000000000000131,17.886804902545343054
0.274000000000000132,17.710986136662960178
0.275000000000000133,17.537645427357350769
0.276000000000000134,17.366607873221003189
0.277000000000000135,17.197706810263674981
0.278000000000000136,17.030783939099112700
0.279000000000000137,16.865689405550675417
0.280000000000000138,16.702281837761354666
0.281000000000000139,16.540428342895218350
0.282000000000000139,16.380004466497098292
0.283000000000000140,16.220894117536602153
0.284000000000000141,16.062989462105225158
0.285000000000000142,15.906190788662916802
0.286000000000000143,15.750406347645736105
0.287000000000000144,15.595552168150977224
0.288000000000000145,15.441551854312427494
0.289000000000000146,15.288336363867950141
0.290000000000000147,15.135843771305491856
0.291000000000000147,14.984019017854455669
0.292000000000000148,14.832813650466723843
0.293000000000000149,14.682185551808482060
0.294000000000000150,14.532098663159748853
0.295000000000000151,14.382522701995270609
0.296000000000000152,14.233432875898122560
0.297000000000000153,14.084809594337354355
0.298000000000000154,13.936638179723214392
0.299000000000000155,13.788908579038997360
0.300000000000000155,13.641615077237441156
0.301000000000000156,13.494756013482319901
0.302000000000000157,13.348333501212511720
0.303000000000000158,13.202353152907083000
0.304000000000000159,13.056823810335368208
0.305000000000000160,12.911757280986085661
0.306000000000000161,12.767168081284399506
0.307000000000000162,12.623073187125118721
0.308000000000000163,12.479491792174354003
0.309000000000000163,12.336445074320675275
0.310000000000000164,12.193955970590030446
0.311000000000000165,12.052048960776438946
0.312000000000000166,11.910749859982640686
0.313000000000000167,11.770085620211249378
0.314000000000000168,11.630084141097389860
0.315000000000000169,11.490774089828580173
0.316000000000000170,11.352184730255530098
0.317000000000000171,11.214345761159989934
0.318000000000000171,11.077287163611071463
0.319000000000000172,10.941039057310359084
0.320000000000000173,10.805631565798298865
0.321000000000000174,10.671094690369452351
0.322000000000000175,10.537458192521992117
0.323000000000000176,10.404751484747642110
0.324000000000000177,10.273003529451239402
0.325000000000000178,10.142242745774762369
0.326000000000000179,10.012496924088235772
0.327000000000000179,9.883793147899867293
0.328000000000000180,9.756157722929268417
0.329000000000000181,9.629616113081294060
0.330000000000000182,9.504192883052875018
0.331000000000000183,9.379911647302037636
0.332000000000000184,9.256795025106104191
0.333000000000000185,9.134864601435406684
0.334000000000000186,9.014140893369191332
0.335000000000000187,8.894643321781760648
0.336000000000000187,8.776390188029267847
0.337000000000000188,8.659398655370887710
0.338000000000000189,8.543684734861788144
0.339000000000000190,8.429263275460133542
0.340000000000000191,8.316147958095498893
0.341000000000000192,8.204351293451683347
0.342000000000000193,8.093884623223168262
0.343000000000000194,7.984758124610836560
0.344000000000000195,7.876980817829645432
0.345000000000000195,7.770560576407698150
0.346000000000000196,7.665504140063761795
0.347000000000000197,7.561817129957565164
0.348000000000000198,7.459504066114841514
0.349000000000000199,7.358568386836753739
0.350000000000000200,7.259012469910961940
0.351000000000000201,7.160837655449375561
0.352000000000000202,7.064044270185300789
0.353000000000000203,6.968631653070273657
0.354000000000000203,6.874598182018440085
0.355000000000000204,6.781941301653921172
0.356000000000000205,6.690657551923796298
0.357000000000000206,6.600742597446549453
0.358000000000000207,6.512191257473146422
0.359000000000000208,6.424997536344529081
0.360000000000000209,6.339154654336116579
0.361000000000000210,6.254655078786719002
0.362000000000000210,6.171490555415265256
0.363000000000000211,6.089652139735247438
0.364000000000000212,6.009130228482598923
0.365000000000000213,5.929914590978560440
0.366000000000000214,5.851994400354707082
0.367000000000000215,5.775358264572603595
0.368000000000000216,5.699994257175753809
0.369000000000000217,5.625889947716574468
0.370000000000000218,5.553032431805649871
0.371000000000000218,5.481408360735359864
0.372000000000000219,5.411003970634037152
0.373000000000000220,5.341805111111161075
0.374000000000000221,5.273797273357989646
0.375000000000000222,5.206965617671777125
0.376000000000000223,5.141295000375199820
0.377000000000000224,5.076770000106238356
0.378000000000000225,5.013374943456708088
0.379000000000000226,4.951093929940826754
0.380000000000000226,4.889910856277961848
0.381000000000000227,4.829809439976486374
0.382000000000000228,4.770773242208113274
0.383000000000000229,4.712785689964492875
0.384000000000000230,4.655830097490131436
0.385000000000000231,4.599889686987614468
0.386000000000000232,4.544947608593302490
0.387000000000000233,4.490986959623183061
0.388000000000000234,4.437990803090519520
0.389000000000000234,4.385942185498288737
0.390000000000000235,4.334824153910923350
0.391000000000000236,4.284619772311212493
0.392000000000000237,4.235312137249362507
0.393000000000000238,4.186884392792404874
0.394000000000000239,4.139319744783095167
0.395000000000000240,4.092601474418422924
0.396000000000000241,4.046712951158597527
0.397000000000000242,4.001637644978268682
0.398000000000000242,3.957359137972203289
0.399000000000000243,3.913861135328483787
0.400000000000000244,3.871127475682567987
0.401000000000000245,3.829142140866150790
0.402000000000000246,3.787889265065197630
0.403000000000000247,3.747353143401670472
0.404000000000000248,3.707518239953917938
0.405000000000000249,3.668369195230853474
0.406000000000000250,3.629890833115223536
0.407000000000000250,3.592068167291370795
0.408000000000000251,3.554886407173049268
0.409000000000000252,3.518330963346838924
0.410000000000000253,3.482387452546704676
0.411000000000000254,3.447041702175277944
0.412000000000000255,3.412279754387351538
0.413000000000000256,3.378087869750930672
0.414000000000000257,3.344452530501212273
0.415000000000000258,3.311360443402533882
0.416000000000000258,3.278798542233379631
0.417000000000000259,3.246753989909168414
0.418000000000000260,3.215214180257460530
0.419000000000000261,3.184166739459939333
0.420000000000000262,3.153599527175365402
0.421000000000000263,3.123500637357324639
0.422000000000000264,3.093858398780505947
0.423000000000000265,3.064661375288815215
0.424000000000000266,3.035898365778426644
0.425000000000000266,3.007558403928631385
0.426000000000000267,2.979630757692917964
0.427000000000000268,2.952104928562575559
0.428000000000000269,2.924970650614687973
0.429000000000000270,2.898217889356115240
0.430000000000000271,2.871836840374812017
0.431000000000000272,2.845817927809380699
0.432000000000000273,2.820151802647617334
0.433000000000000274,2.794829340864333211
0.434000000000000274,2.769841641408534727
0.435000000000000275,2.745180024049682199
0.436000000000000276,2.720836027092438325
0.437000000000000277,2.696801404969031868
0.438000000000000278,2.673068125718033095
0.439000000000000279,2.649628368358035946
0.440000000000000280,2.626474520164464366
0.441000000000000281,2.603599173857422677
0.442000000000000282,2.580995124708131971
0.443000000000000282,2.558655367571407435
0.444000000000000283,2.536573093851086202
0.445000000000000284,2.514741688405274900
0.446000000000000285,2.493154726397880161
0.447000000000000286,2.471805970102607386
0.448000000000000287,2.450689365665488673
0.449000000000000288,2.429799039831553209
0.450000000000000289,2.409129296641174811
0.451000000000000290,2.388674614101279570
0.452000000000000290,2.368429640836385630
0.453000000000000291,2.348389192724253061
0.454000000000000292,2.328548249520636659
0.455000000000000293,2.308901951477441372
0.456000000000000294,2.289445595958399249
0.457000000000000295,2.270174634056082219
0.458000000000000296,2.251084667213997470
0.459000000000000297,2.232171443857189796
0.460000000000000298,2.213430856034660721
0.461000000000000298,2.194858936076708567
0.462000000000000299,2.176451853270099157
0.463000000000000300,2.158205910553854245
0.464000000000000301,2.140117541238189425
0.465000000000000302,2.122183305749080429
0.466000000000000303,2.104399888400691587
0.467000000000000304,2.086764094197778974
0.468000000000000305,2.069272845670087069
0.469000000000000306,2.051923179740518854
0.470000000000000306,2.034712244628791744
0.471000000000000307,2.017637296792185175
0.472000000000000308,2.000695697904785852
0.473000000000000309,1.983884911876553137
0.474000000000000310,1.967202501913459800
0.475000000000000311,1.950646127619760417
0.476000000000000312,1.934213542143425446
0.477000000000000313,1.917902589365590327
0.478000000000000314,1.901711201134879348
0.479000000000000314,1.885637394547244883
0.480000000000000315,1.869679269271999456
0.481000000000000316,1.853835004924528906
0.482000000000000317,1.838102858486184044
0.483000000000000318,1.822481161771679847
0.484000000000000319,1.806968318944351282
0.485000000000000320,1.791562804079490423
0.486000000000000321,1.776263158775905682
0.487000000000000322,1.761067989815848334
0.488000000000000322,1.745975966873354324
0.489000000000000323,1.730985820270952713
0.490000000000000324,1.716096338784727227
0.491000000000000325,1.701306367497596783
0.492000000000000326,1.686614805700665354
0.493000000000000327,1.672020604842430203
0.494000000000000328,1.657522766525613367
0.495000000000000329,1.643120340551326164
0.496000000000000330,1.628812423010268962
0.497000000000000330,1.614598154420547882
0.498000000000000331,1.600476717911827551
0.499000000000000332,1.586447337455291873
0.500000000000000333,1.572509276139028911
0.501000000000000334,1.558661834488384468
0.502000000000000335,1.544904348830718366
0.503000000000000336,1.531236189704127781
0.504000000000000337,1.517656760309538999
0.505000000000000338,1.504165495005645781
0.506000000000000338,1.490761857846109262
0.507000000000000339,1.477445341158416747
0.508000000000000340,1.464215464163843627
0.509000000000000341,1.451071771637825636
0.510000000000000342,1.438013832610206766
0.511000000000000343,1.425041239104633872
0.512000000000000344,1.412153604916537519
0.513000000000000345,1.399350564428990085
0.514000000000000346,1.386631771465784535
0.515000000000000346,1.373996898181114368
0.516000000000000347,1.361445633985136849
0.517000000000000348,1.348977684504769403
0.518000000000000349,1.336592770579047684
0.519000000000000350,1.324290627288353006
0.520000000000000351,1.312071003016870074
0.521000000000000352,1.299933658547527404
0.522000000000000353,1.287878366188849766
0.523000000000000353,1.275904908932927073
0.524000000000000354,1.264013079643937276
0.525000000000000355,1.252202680276472524
0.526000000000000356,1.240473521123067968
0.527000000000000357,1.228825420090210008
0.528000000000000358,1.217258202002211132
0.529000000000000359,1.205771697932273456
0.530000000000000360,1.194365744560126341
0.531000000000000361,1.183040183555538638
0.532000000000000361,1.171794860987132481
0.533000000000000362,1.160629626755819599
0.534000000000000363,1.149544334052283290
0.535000000000000364,1.138538838837832357
0.536000000000000365,1.127612999348091005
0.537000000000000366,1.116766675618846794
0.538000000000000367,1.105999729033542156
0.539000000000000368,1.095312021891745591
0.540000000000000369,1.084703416998101355
0.541000000000000369,1.074173777271112185
0.542000000000000370,1.063722965371289852
0.543000000000000371,1.053350843348018540
0.544000000000000372,1.043057272304670047
0.545000000000000373,1.032842112081402863
0.546000000000000374,1.022705220955105077
0.547000000000000375,1.012646455356019493
0.548000000000000376,1.002665669600480092
0.549000000000000377,0.992762715639321391
0.550000000000000377,0.982937442821407048
0.551000000000000378,0.973189697671885012
0.552000000000000379,0.963519323684613460
0.553000000000000380,0.953926161128349159
0.554000000000000381,0.944410046866248742
0.555000000000000382,0.934970814188190280
0.556000000000000383,0.925608292655564546
0.557000000000000384,0.916322307958011506
0.558000000000000385,0.907112681781799046
0.559000000000000385,0.897979231689341240
0.560000000000000386,0.888921771009506978
0.561000000000000387,0.879940108738335725
0.562000000000000388,0.871034049449768588
0.563000000000000389,0.862203393216004699
0.564000000000000390,0.853447935537168689
0.565000000000000391,0.844767467279892381
0.566000000000000392,0.836161774624502585
0.567000000000000393,0.827630639020426218
0.568000000000000393,0.819173837149561712
0.569000000000000394,0.810791140897222595
0.570000000000000395,0.802482317330385997
0.571000000000000396,0.794247128682939008
0.572000000000000397,0.786085332347591481
0.573000000000000398,0.777996680874231017
0.574000000000000399,0.769980921974370736
0.575000000000000400,0.762037798531471244
0.576000000000000401,0.754167048616849356
0.577000000000000401,0.746368405510900335
0.578000000000000402,0.738641597729411625
0.579000000000000403,0.730986349054727702
0.580000000000000404,0.723402378571471494
0.581000000000000405,0.715889400706684387
0.582000000000000406,0.708447125274071832
0.583000000000000407,0.701075257522203676
0.584000000000000408,0.693773498186424087
0.585000000000000409,0.686541543544268107
0.586000000000000409,0.679379085474224653
0.587000000000000410,0.672285811517578935
0.588000000000000411,0.665261404943251700
0.589000000000000412,0.658305544815342869
0.590000000000000413,0.651417906063307073
0.591000000000000414,0.644598159554521599
0.592000000000000415,0.637845972169118092
0.593000000000000416,0.631161006876912900
0.594000000000000417,0.624542922816285873
0.595000000000000417,0.617991375374837948
0.596000000000000418,0.611506016271741615
0.597000000000000419,0.605086493641569412
0.598000000000000420,0.598732452119544512
0.599000000000000421,0.592443532928023542
0.600000000000000422,0.586219373964122603
0.601000000000000423,0.580059609888383121
0.602000000000000424,0.573963872214301118
0.603000000000000425,0.567931789398667064
0.604000000000000425,0.561962986932609376
0.605000000000000426,0.556057087433194375
0.606000000000000427,0.550213710735516393
0.607000000000000428,0.544432473985217658
0.608000000000000429,0.538712991731237323
0.609000000000000430,0.533054876018858814
0.610000000000000431,0.527457736482823569
0.611000000000000432,0.521921180440528376
0.612000000000000433,0.516444812985198176
0.613000000000000433,0.511028237078943293
0.614000000000000434,0.505671053645663671
0.615000000000000435,0.500372861663716861
0.616000000000000436,0.495133258258293574
0.617000000000000437,0.489951838793406036
0.618000000000000438,0.484828196963491276
0.619000000000000439,0.479761924884530067
