# TricalciumAluminate-Wet-010_CS-218-AC
# h[nm],U(h)[kJ/mol]
0.149999999999999994,41.372105870855556020
0.150999999999999995,40.727704226957143874
0.151999999999999996,39.844607424230659376
0.152999999999999997,38.900504651415502622
0.153999999999999998,37.964399253957473945
0.154999999999999999,37.055543825532957669
0.156000000000000000,36.173891328234283549
0.157000000000000001,35.314459623217047124
0.158000000000000002,34.473077522088054536
0.159000000000000002,33.647868937558627067
0.160000000000000003,32.838907458951410945
0.161000000000000004,32.047314418388062052
0.162000000000000005,31.274399027664816941
0.163000000000000006,30.521065553005701787
0.164000000000000007,29.787520661295996405
0.165000000000000008,29.073228141250801571
0.166000000000000009,28.377030817891427006
0.167000000000000010,27.697361859163883935
0.168000000000000010,27.032482955854924001
0.169000000000000011,26.380705669578020434
0.170000000000000012,25.740569810365826697
0.171000000000000013,25.110966964905536258
0.172000000000000014,24.491207716658184523
0.173000000000000015,23.881037939651179158
0.174000000000000016,23.280613418226089095
0.175000000000000017,22.690443652287111576
0.176000000000000018,22.111315721401783918
0.177000000000000018,21.544208072006423293
0.178000000000000019,20.990202511231281335
0.179000000000000020,20.450400873467579288
0.180000000000000021,19.925851004754161266
0.181000000000000022,19.417485034937168820
0.182000000000000023,18.926071463355370383
0.183000000000000024,18.452181408036008037
0.184000000000000025,17.996168465500883116
0.185000000000000026,17.558160981237517007
0.186000000000000026,17.138065110026371229
0.187000000000000027,16.735576814878871943
0.188000000000000028,16.350200876059950872
0.189000000000000029,15.981275021783730494
0.190000000000000030,15.627997417282438519
0.191000000000000031,15.289455930992124522
0.192000000000000032,14.964657812201881626
0.193000000000000033,14.652558644930584464
0.194000000000000034,14.352089673585476604
0.195000000000000034,14.062182816499429805
0.196000000000000035,13.781792886396321052
0.197000000000000036,13.509916717572320266
0.198000000000000037,13.245609055662976417
0.199000000000000038,12.987995196547505117
0.200000000000000039,12.736280466747176732
0.201000000000000040,12.489756720029848935
0.202000000000000041,12.247806085867058101
0.203000000000000042,12.009902247287040922
0.204000000000000042,11.775609551077087289
0.205000000000000043,11.544580264780378798
0.206000000000000044,11.316550294989502490
0.207000000000000045,11.091333672382262421
0.208000000000000046,10.868816092890547509
0.209000000000000047,10.648947783218826402
0.210000000000000048,10.431735934270244925
0.211000000000000049,10.217236919286554198
0.212000000000000050,10.005548485820490612
0.213000000000000050,9.796802082976688197
0.214000000000000051,9.591155458421711799
0.215000000000000052,9.388785634042339012
0.216000000000000053,9.189882345236378924
0.217000000000000054,8.994642006932711098
0.218000000000000055,8.803262249727115574
0.219000000000000056,8.615937052065795854
0.220000000000000057,8.432852479213744701
0.221000000000000058,8.254183026757187847
0.222000000000000058,8.080088555509385984
0.223000000000000059,7.910711795788238021
0.224000000000000060,7.746176391959400220
0.225000000000000061,7.586585452724355250
0.226000000000000062,7.432020568707073949
0.227000000000000063,7.282541256281447772
0.228000000000000064,7.138184785115187836
0.229000000000000065,6.998966346420068874
0.230000000000000066,6.864879519239863725
0.231000000000000066,6.735896993131984978
0.232000000000000067,6.611971507175612217
0.233000000000000068,6.493036967248734470
0.234000000000000069,6.379009705852906720
0.235000000000000070,6.269789851333544384
0.236000000000000071,6.165262776063721972
0.237000000000000072,6.065300595959739915
0.238000000000000073,5.969763696518307405
0.239000000000000073,5.878502263357511914
0.240000000000000074,5.791357797966318444
0.241000000000000075,5.708164601987768094
0.242000000000000076,5.628751215853454504
0.243000000000000077,5.552941799932814781
0.244000000000000078,5.480557448546344190
0.245000000000000079,5.411417429209329555
0.246000000000000080,5.345340341316714650
0.247000000000000081,5.282145190150265179
0.248000000000000081,5.221652373587611251
0.249000000000000082,5.163684580223708132
0.250000000000000111,5.108067598784638008
0.251000000000000112,5.054631039729379438
0.252000000000000113,5.003208970805474998
0.253000000000000114,4.953640469059415352
0.254000000000000115,4.905770092411212424
0.255000000000000115,4.859448274395892220
0.256000000000000116,4.814531646062098602
0.257000000000000117,4.770883289310103414
0.258000000000000118,4.728372926157992318
0.259000000000000119,4.686877048554917380
0.260000000000000120,4.646278993423392123
0.261000000000000121,4.606468967617042942
0.262000000000000122,4.567344027434091736
0.263000000000000123,4.528808017237592409
0.264000000000000123,4.490771471607925669
0.265000000000000124,4.453151485297788703
0.266000000000000125,4.415871555080354227
0.267000000000000126,4.378861397382999066
0.268000000000000127,4.342056745386321026
0.269000000000000128,4.305399129045637707
0.270000000000000129,4.268835641263055258
0.271000000000000130,4.232318693206229554
0.272000000000000131,4.195805761537348744
0.273000000000000131,4.159259130085709799
0.274000000000000132,4.122645628270971585
0.275000000000000133,4.085936368363955573
0.276000000000000134,4.049106483458759342
0.277000000000000135,4.012134867825459139
0.278000000000000136,3.975003921117355787
0.279000000000000137,3.937699297721425129
0.280000000000000138,3.900209662365900165
0.281000000000000139,3.862526452934827326
0.282000000000000139,3.824643651286427026
0.283000000000000140,3.786557562729864657
0.284000000000000141,3.748266604683960335
0.285000000000000142,3.709771104920652984
0.286000000000000143,3.671073109686113778
0.287000000000000144,3.632176201892279188
0.288000000000000145,3.593085329481476187
0.289000000000000146,3.553806643985846225
0.290000000000000147,3.514347349231254469
0.291000000000000147,3.474715560071825138
0.292000000000000148,3.434920170985454213
0.293000000000000149,3.394970734312512839
0.294000000000000150,3.354877347878554961
0.295000000000000151,3.314650551706974202
0.296000000000000152,3.274301233498673191
0.297000000000000153,3.233840542532296247
0.298000000000000154,3.193279811620263864
0.299000000000000155,3.152630486741836879
0.300000000000000155,3.111904063964904044
0.301000000000000156,3.071112033262129337
0.302000000000000157,3.030265828824482810
0.303000000000000158,2.989376785475588605
0.304000000000000159,2.948456100793311663
0.305000000000000160,2.907514802550331900
0.306000000000000161,2.866563721092784789
0.307000000000000162,2.825613466285111564
0.308000000000000163,2.784674408659835620
0.309000000000000163,2.743756664422666525
0.310000000000000164,2.702870083976240956
0.311000000000000165,2.662024243639222298
0.312000000000000166,2.621228440251880176
0.313000000000000167,2.580491688373775183
0.314000000000000168,2.539822719794278427
0.315000000000000169,2.499229985091714124
0.316000000000000170,2.458721656992197691
0.317000000000000171,2.418305635294335953
0.318000000000000171,2.377989553141032442
0.319000000000000172,2.337780784434342785
0.320000000000000173,2.297686452203909102
0.321000000000000174,2.257713437753579466
0.322000000000000175,2.217868390424529768
0.323000000000000176,2.178157737826543094
0.324000000000000177,2.138587696401828886
0.325000000000000178,2.099164282198079157
0.326000000000000179,2.059893321739183047
0.327000000000000179,2.020780462893257745
0.328000000000000180,1.981831185648224691
0.329000000000000181,1.943050812715313658
0.330000000000000182,1.904444519890347909
0.331000000000000183,1.866017346111598751
0.332000000000000184,1.827774203161456112
0.333000000000000185,1.789719884966948005
0.334000000000000186,1.751859076461499187
0.335000000000000187,1.714196361977091909
0.336000000000000187,1.676736233142267052
0.337000000000000188,1.639483096267249307
0.338000000000000189,1.602441279202732716
0.339000000000000190,1.565615037663755427
0.340000000000000191,1.529008561014579382
0.341000000000000192,1.492625977514386637
0.342000000000000193,1.456471359027338597
0.343000000000000194,1.420548725203692353
0.344000000000000195,1.384862047141657504
0.345000000000000195,1.349415250542083555
0.346000000000000196,1.314212218370454321
0.347000000000000197,1.279256793042476970
0.348000000000000198,1.244552778151293948
0.349000000000000199,1.210103939755705627
0.350000000000000200,1.175914007249942106
0.351000000000000201,1.141986673836495658
0.352000000000000202,1.108325596624217591
0.353000000000000203,1.074934396374439105
0.354000000000000203,1.041816656918222339
0.355000000000000204,1.008975924268088464
0.356000000000000205,0.976415705447592819
0.357000000000000206,0.944139467062027116
0.358000000000000207,0.912150633633424412
0.359000000000000208,0.880452585722652947
0.360000000000000209,0.849048657860998923
0.361000000000000210,0.817942136313268064
0.362000000000000210,0.787136256693726666
0.363000000000000211,0.756634201455725242
0.364000000000000212,0.726439097275092704
0.365000000000000213,0.696554012346721096
0.366000000000000214,0.666981953612977962
0.367000000000000215,0.637725863941828841
0.368000000000000216,0.608788619271669051
0.369000000000000217,0.580173025739150638
0.370000000000000218,0.551881816805317449
0.371000000000000218,0.523917650394612133
0.372000000000000219,0.496283106060398882
0.373000000000000220,0.468980682189793441
0.374000000000000221,0.442012793259805803
0.375000000000000222,0.415381767155882098
0.376000000000000223,0.389089842563107469
0.377000000000000224,0.363139166439585215
0.378000000000000225,0.337531791580613583
0.379000000000000226,0.312269674281587251
0.380000000000000226,0.287354672106675868
0.381000000000000227,0.262788541769749973
0.382000000000000228,0.238572937133129687
0.383000000000000229,0.214709407329188695
0.384000000000000230,0.191199395009106349
0.385000000000000231,0.168044234722396185
0.386000000000000232,0.145245151430331149
0.387000000000000233,0.122803259155654348
0.388000000000000234,0.100719559770558395
0.389000000000000234,0.078994941924238796
0.390000000000000235,0.057630180110948073
0.391000000000000236,0.036625933878925696
0.392000000000000237,0.015982747180144162
0.393000000000000238,-0.004298952139594947
0.394000000000000239,-0.024218852711075066
0.395000000000000240,-0.043776759873846396
0.396000000000000241,-0.062972595771751586
0.397000000000000242,-0.081806399313690381
0.398000000000000242,-0.100278326001842860
0.399000000000000243,-0.118388647629783961
0.400000000000000244,-0.136137751853248889
0.401000000000000245,-0.153526141636475350
0.402000000000000246,-0.170554434577248476
0.403000000000000247,-0.187223362114028069
0.404000000000000248,-0.203533768618624572
0.405000000000000249,-0.219486610378080232
0.406000000000000250,-0.235082954469517796
0.407000000000000250,-0.250323977531854591
0.408000000000000251,-0.265210964438347074
0.409000000000000252,-0.279745306874018662
0.410000000000000253,-0.293928501822098842
0.411000000000000254,-0.307762149963629272
0.412000000000000255,-0.321247953994432178
0.413000000000000256,-0.334387716863696727
0.414000000000000257,-0.347183339938364866
0.415000000000000258,-0.359636821097613857
0.416000000000000258,-0.371750252761603006
0.417000000000000259,-0.383525819858725914
0.418000000000000260,-0.394965797735522539
0.419000000000000261,-0.406072550013397759
0.420000000000000262,-0.416848526396217722
0.421000000000000263,-0.427296260432861896
0.422000000000000264,-0.437418367238637640
0.423000000000000265,-0.447217541179544653
0.424000000000000266,-0.456696553523177395
0.425000000000000266,-0.465858250060044832
0.426000000000000267,-0.474705548698990565
0.427000000000000268,-0.483241437040310362
0.428000000000000269,-0.491468969930068833
0.429000000000000270,-0.499391266999042460
0.430000000000000271,-0.507011510189597114
0.431000000000000272,-0.514332941273748290
0.432000000000000273,-0.521358859365498639
0.433000000000000274,-0.528092618430509808
0.434000000000000274,-0.534537624796017741
0.435000000000000275,-0.540697334663807538
0.436000000000000276,-0.546575251628991010
0.437000000000000277,-0.552174924207167406
0.438000000000000278,-0.557499943372503637
0.439000000000000279,-0.562553940109140949
0.440000000000000280,-0.567340582978209107
0.441000000000000281,-0.571863575702667437
0.442000000000000282,-0.576126654772075808
0.443000000000000282,-0.580133587069268208
0.444000000000000283,-0.583888167520848267
0.445000000000000284,-0.587394216773289068
0.446000000000000285,-0.590655578896339462
0.447000000000000286,-0.593676119115359224
0.448000000000000287,-0.596459721574044144
0.449000000000000288,-0.599010287129016161
0.450000000000000289,-0.601331731177550122
0.451000000000000290,-0.603427981519700118
0.452000000000000290,-0.605302976255974512
0.453000000000000291,-0.606960661721594685
0.454000000000000292,-0.608404990458352390
0.455000000000000293,-0.609639919224928883
0.456000000000000294,-0.610669407046517732
0.457000000000000295,-0.611497413304481374
0.458000000000000296,-0.612127895866709792
0.459000000000000297,-0.612564809259280474
0.460000000000000298,-0.612812102879932818
0.461000000000000298,-0.612873719253828275
0.462000000000000299,-0.612753592331976571
0.463000000000000300,-0.612455645832653994
0.464000000000000301,-0.611983791626094620
0.465000000000000302,-0.611341928162640658
0.466000000000000303,-0.610533938944523791
0.467000000000000304,-0.609563691041367539
0.468000000000000305,-0.608435033649439960
0.469000000000000306,-0.607151796694675783
0.470000000000000306,-0.605717789479414681
0.471000000000000307,-0.604136799372717137
0.472000000000000308,-0.602412590544174398
0.473000000000000309,-0.600548902740988599
0.474000000000000310,-0.598549450108106673
0.475000000000000311,-0.596417920051157013
0.476000000000000312,-0.594157972141887258
0.477000000000000313,-0.591773237065773117
0.478000000000000314,-0.589267315611425313
0.479000000000000314,-0.586643777701431612
0.480000000000000315,-0.583906161464174844
0.481000000000000316,-0.581057972346214036
0.482000000000000317,-0.578102682264732604
0.483000000000000318,-0.575043728799574327
0.484000000000000319,-0.571884514424338630
0.485000000000000320,-0.568628405776003154
0.486000000000000321,-0.565278732962522512
0.487000000000000322,-0.561838788907823461
0.488000000000000322,-0.558311828733595861
0.489000000000000323,-0.554701069177311878
0.490000000000000324,-0.551009688045817514
0.491000000000000325,-0.547240823703892043
0.492000000000000326,-0.543397574597121236
0.493000000000000327,-0.539482998808457070
0.494000000000000328,-0.535500113647775389
0.495000000000000329,-0.531451895273804764
0.496000000000000330,-0.527341278347711606
0.497000000000000330,-0.523171155717723324
0.498000000000000331,-0.518944378134037265
0.499000000000000332,-0.514663753993406914
0.500000000000000333,-0.510332049112665054
0.501000000000000334,-0.505951986530513986
0.502000000000000335,-0.501526246336906900
0.503000000000000336,-0.497057465529311293
0.504000000000000337,-0.492548237895184982
0.505000000000000338,-0.488001113919961427
0.506000000000000338,-0.483418600719875968
0.507000000000000339,-0.478803161998943849
0.508000000000000340,-0.474157218029402749
0.509000000000000341,-0.469483145654975398
0.510000000000000342,-0.464783278316240722
0.511000000000000343,-0.460059906097487148
0.512000000000000344,-0.455315275794360375
0.513000000000000345,-0.450551591001665308
0.514000000000000346,-0.445771012220678053
0.515000000000000346,-0.440975656985315656
0.516000000000000347,-0.436167600006529377
0.517000000000000348,-0.431348873334318594
0.518000000000000349,-0.426521466536701865
0.519000000000000350,-0.421687326895089032
0.520000000000000351,-0.416848359615392794
0.521000000000000352,-0.412006428054347063
0.522000000000000353,-0.407163353960382390
0.523000000000000353,-0.402320917728536120
0.524000000000000354,-0.397480858668801229
0.525000000000000355,-0.392644875287354256
0.526000000000000356,-0.387814625580126027
0.527000000000000357,-0.382991727338169663
0.528000000000000358,-0.378177758464289859
0.529000000000000359,-0.373374257300426227
0.530000000000000360,-0.368582722965264231
0.531000000000000361,-0.363804615701589118
0.532000000000000361,-0.359041357232879998
0.533000000000000362,-0.354294331128669537
0.534000000000000363,-0.349564883178196506
0.535000000000000364,-0.344854321771896122
0.536000000000000365,-0.340163918290262213
0.537000000000000366,-0.335494907499669093
0.538000000000000367,-0.330848487954681081
0.539000000000000368,-0.326225822406481847
0.540000000000000369,-0.321628038216957568
0.541000000000000369,-0.317056227778088118
0.542000000000000370,-0.312511448936201641
0.543000000000000371,-0.307994725420761006
0.544000000000000372,-0.303507047277275177
0.545000000000000373,-0.299049371303997058
0.546000000000000374,-0.294622621492044878
0.547000000000000375,-0.290227689468602779
0.548000000000000376,-0.285865434942883245
0.549000000000000377,-0.281536686154509996
0.550000000000000377,-0.277242240324024558
0.551000000000000378,-0.272982864105187684
0.552000000000000379,-0.268759294038820040
0.553000000000000380,-0.264572237007846156
0.554000000000000381,-0.260422370693299043
0.555000000000000382,-0.256310344031018100
0.556000000000000383,-0.252236777668738532
0.557000000000000384,-0.248202264423384555
0.558000000000000385,-0.244207369738255936
0.559000000000000385,-0.240252632139922151
0.560000000000000386,-0.236338563694576009
0.561000000000000387,-0.232465650463625190
0.562000000000000388,-0.228634352958314579
0.563000000000000389,-0.224845106593179883
0.564000000000000390,-0.221098322138127801
0.565000000000000391,-0.217394386168956816
0.566000000000000392,-0.213733661516135293
0.567000000000000393,-0.210116487711675237
0.568000000000000393,-0.206543181433905682
0.569000000000000394,-0.203014036950010690
0.570000000000000395,-0.199529326556176834
0.571000000000000396,-0.196089301015173356
0.572000000000000397,-0.192694189991268444
0.573000000000000398,-0.189344202482305102
0.574000000000000399,-0.186039527248838710
0.575000000000000400,-0.182780333240192050
0.576000000000000401,-0.179566770017317912
0.577000000000000401,-0.176398968172374493
0.578000000000000402,-0.173277039744875599
0.579000000000000403,-0.170201078634337533
0.580000000000000404,-0.167171161009334546
0.581000000000000405,-0.164187345712845656
0.582000000000000406,-0.161249674663837245
0.583000000000000407,-0.158358173254980861
0.584000000000000408,-0.155512850746445330
0.585000000000000409,-0.152713700655687429
0.586000000000000409,-0.149960701143166147
0.587000000000000410,-0.147253815393947080
0.588000000000000411,-0.144592991995101255
0.589000000000000412,-0.141978165308884324
0.590000000000000413,-0.139409255841616286
0.591000000000000414,-0.136886170608237934
0.592000000000000415,-0.134408803492495593
0.593000000000000416,-0.131977035602713511
0.594000000000000417,-0.129590735623122399
0.595000000000000417,-0.127249760160731862
0.596000000000000418,-0.124953954087676428
0.597000000000000419,-0.122703150879071160
0.598000000000000420,-0.120497172946296777
0.599000000000000421,-0.118335831965749233
0.600000000000000422,-0.116218929203002877
0.601000000000000423,-0.114146255832389132
0.602000000000000424,-0.112117593251992748
0.603000000000000425,-0.110132713394043291
0.604000000000000425,-0.108191379030701265
0.605000000000000426,-0.106293344075251775
0.606000000000000427,-0.104438353878696863
0.607000000000000428,-0.102626145521738363
0.608000000000000429,-0.100856448102196433
0.609000000000000430,-0.099128983017819403
0.610000000000000431,-0.097443464244547057
0.611000000000000432,-0.095799598610200931
0.612000000000000433,-0.094197086063636831
0.613000000000000433,-0.092635619939371902
0.614000000000000434,-0.091114887217701557
0.615000000000000435,-0.089634568780326523
0.616000000000000436,-0.088194339661508470
