# TricalciumAluminate-Wet-010_CS-949-AC
# h[nm],U(h)[kJ/mol]
0.149999999999999994,88.722344966769739472
0.150999999999999995,87.133901126027168971
0.151999999999999996,85.312881201967329048
0.152999999999999997,83.462266193512419932
0.153999999999999998,81.661861153540684199
0.154999999999999999,79.930287709936891360
0.156000000000000000,78.260115085023315373
0.157000000000000001,76.636445955475821279
0.158000000000000002,75.045674551959976384
0.159000000000000002,73.478699182712333027
0.160000000000000003,71.931245364598282777
0.161000000000000004,70.402887523110635470
0.162000000000000005,68.895669519098944988
0.163000000000000006,67.412792967069890437
0.164000000000000007,65.957581226884457237
0.165000000000000008,64.532776764730144237
0.166000000000000009,63.140149931422321572
0.167000000000000010,61.780361002912783874
0.168000000000000010,60.453006682612851819
0.169000000000000011,59.156785617754465534
0.170000000000000012,57.889727568644048006
0.171000000000000013,56.649443301379605487
0.172000000000000014,55.433364551402029008
0.173000000000000015,54.238954238956935683
0.174000000000000016,53.063875972679852566
0.175000000000000017,51.906118664785211081
0.176000000000000018,50.764076956972118637
0.177000000000000018,49.636591394007552935
0.178000000000000019,48.522954194814069240
0.179000000000000020,47.422887364720608616
0.180000000000000021,46.336500042064940885
0.181000000000000022,45.264231610328899080
0.182000000000000023,44.206786421794916464
0.183000000000000024,43.165065116600260353
0.184000000000000025,42.140096590985145042
0.185000000000000026,41.132973747903619710
0.186000000000000026,40.144795303767757844
0.187000000000000027,39.176615158552884566
0.188000000000000028,38.229400179128951720
0.189000000000000029,37.303996702629504512
0.190000000000000030,36.401105635220496026
0.191000000000000031,35.521265693919254147
0.192000000000000032,34.664844104183025308
0.193000000000000033,33.832033911329958187
0.194000000000000034,33.022856976553754293
0.195000000000000034,32.237171695778911840
0.196000000000000035,31.474684490188604258
0.197000000000000036,30.734964160423167812
0.198000000000000037,30.017458263007576136
0.199000000000000038,29.321510749702333953
0.200000000000000039,28.646380201697247969
0.201000000000000040,27.991258085637934272
0.202000000000000041,27.355286553279643869
0.203000000000000042,26.737575397980727132
0.204000000000000042,26.137217867017739081
0.205000000000000043,25.553305107289951081
0.206000000000000044,24.984939092438345654
0.207000000000000045,24.431243941277188014
0.208000000000000046,23.891375590642198290
0.209000000000000047,23.364529830507443364
0.210000000000000048,22.849948745934433703
0.211000000000000049,22.346925639662096330
0.212000000000000050,21.854808531586805032
0.213000000000000050,21.373002347739280538
0.214000000000000051,20.900969922370769893
0.215000000000000052,20.438231943145918734
0.216000000000000053,19.984365971904139769
0.217000000000000054,19.539004672655366335
0.218000000000000055,19.101833375030579987
0.219000000000000056,18.672587095867221763
0.220000000000000057,18.251047134468723954
0.221000000000000058,17.837037348776881629
0.222000000000000058,17.430420210610130027
0.223000000000000059,17.031092728579828588
0.224000000000000060,16.638982317570107483
0.225000000000000061,16.254042683981889894
0.226000000000000062,15.876249786481377413
0.227000000000000063,15.505597922901060315
0.228000000000000064,15.142095985328461794
0.229000000000000065,14.785763917363166087
0.230000000000000066,14.436629400083280217
0.231000000000000066,14.094724786468987077
0.232000000000000067,13.760084297899968675
0.233000000000000068,13.432741490873709722
0.234000000000000069,13.112726997271270335
0.235000000000000070,12.800066537303454339
0.236000000000000071,12.494779200674717146
0.237000000000000072,12.196875988468516283
0.238000000000000073,11.906358605748676993
0.239000000000000073,11.623218492845325045
0.240000000000000074,11.347436081707694910
0.241000000000000075,11.078980262519198874
0.242000000000000076,10.817808044938889367
0.243000000000000077,10.563864397817900098
0.244000000000000078,10.317082251000799786
0.245000000000000079,10.077382642822305669
0.246000000000000080,9.844674997115971493
0.247000000000000081,9.618857513929375713
0.248000000000000081,9.399817658662104947
0.249000000000000082,9.187432734980189863
0.250000000000000111,8.981570527589346042
0.251000000000000112,8.782090001747690167
0.252000000000000113,8.588842047246254552
0.253000000000000114,8.401670255466637371
0.254000000000000115,8.220411719022418850
0.255000000000000115,8.044897844393641861
0.256000000000000116,7.874955168858788213
0.257000000000000117,7.710406173907673022
0.258000000000000118,7.551070088174019368
0.259000000000000119,7.396763673750690771
0.260000000000000120,7.247301990539369854
0.261000000000000121,7.102499134036170503
0.262000000000000122,6.962168942661222104
0.263000000000000123,6.826125671403114659
0.264000000000000123,6.694184629165716771
0.265000000000000124,6.566162777775931936
0.266000000000000125,6.441879291135444774
0.267000000000000126,6.321156073478959136
0.268000000000000127,6.203818236136005027
0.269000000000000128,6.089694532585142817
0.270000000000000129,5.978617751939337310
0.271000000000000130,5.870425071311513143
0.272000000000000131,5.764958367781884974
0.273000000000000131,5.662064490925438065
0.274000000000000132,5.561595497061332161
0.275000000000000133,5.463408846557977760
0.276000000000000134,5.367367565670575935
0.277000000000000135,5.273340374504165595
0.278000000000000136,5.181201782786598820
0.279000000000000137,5.090832155204911835
0.280000000000000138,5.002117748107144379
0.281000000000000139,4.914950719401566026
0.282000000000000139,4.829229113498855419
0.283000000000000140,4.744856823141335056
0.284000000000000141,4.661743529949062825
0.285000000000000142,4.579804625486616487
0.286000000000000143,4.498961114618583501
0.287000000000000144,4.419139502877446724
0.288000000000000145,4.340271669515634478
0.289000000000000146,4.262294727856071219
0.290000000000000147,4.185150874492438611
0.291000000000000147,4.108787228824051674
0.292000000000000148,4.033155664340108970
0.293000000000000149,3.958212632996410463
0.294000000000000150,3.883918983954021797
0.295000000000000151,3.810239777875080058
0.296000000000000152,3.737144097896607953
0.297000000000000153,3.664604858328895709
0.298000000000000154,3.592598612051748574
0.299000000000000155,3.521105357509644485
0.300000000000000155,3.450108346136167903
0.301000000000000156,3.379593890969373682
0.302000000000000157,3.309551177152748380
0.303000000000000158,3.239972074952179870
0.304000000000000159,3.170850955857095865
0.305000000000000160,3.102184512274625217
0.306000000000000161,3.033971581268731565
0.307000000000000162,2.966212972742213072
0.308000000000000163,2.898911302408251345
0.309000000000000163,2.832070829849652416
0.310000000000000164,2.765697301918292883
0.311000000000000165,2.699797801684364451
0.312000000000000166,2.634380603104917284
0.313000000000000167,2.569455031543714352
0.314000000000000168,2.505031330239708254
0.315000000000000169,2.441120532789144981
0.316000000000000170,2.377734341676629892
0.317000000000000171,2.314885012863176605
0.318000000000000171,2.252585246414349207
0.319000000000000172,2.190848083128686064
0.320000000000000173,2.129686807106190294
0.321000000000000174,2.069114854177951823
0.322000000000000175,2.009145726101375651
0.323000000000000176,1.949792910410653501
0.324000000000000177,1.891069805799088455
0.325000000000000178,1.832989652898418642
0.326000000000000179,1.775565470310339622
0.327000000000000179,1.718809995737074603
0.328000000000000180,1.662735632050640122
0.329000000000000181,1.607354398134605677
0.330000000000000182,1.552677884327557267
0.331000000000000183,1.498717212293697143
0.332000000000000184,1.445482999143575809
0.333000000000000185,1.392985325626181492
0.334000000000000186,1.341233708212740350
0.335000000000000187,1.290237074892607749
0.336000000000000187,1.240003744502088168
0.337000000000000188,1.190541409408538254
0.338000000000000189,1.141857121373659023
0.339000000000000190,1.093957280422386935
0.340000000000000191,1.046847626546674181
0.341000000000000192,1.000533234076404154
0.342000000000000193,0.955018508553548529
0.343000000000000194,0.910307185949275066
0.344000000000000195,0.866402334068154367
0.345000000000000195,0.823306355987645233
0.346000000000000196,0.781020995385904748
0.347000000000000197,0.739547343615491570
0.348000000000000198,0.698885848385428110
0.349000000000000199,0.659036323919057976
0.350000000000000200,0.619997962460024143
0.351000000000000201,0.581769347003852411
0.352000000000000202,0.544348465137616144
0.353000000000000203,0.507732723875197745
0.354000000000000203,0.471918965380727973
0.355000000000000204,0.436903483477817711
0.356000000000000205,0.402682040847066935
0.357000000000000206,0.369249886819181306
0.358000000000000207,0.336601775676040771
0.359000000000000208,0.304731985376502534
0.360000000000000209,0.273634336628468866
0.361000000000000210,0.243302212233332010
0.362000000000000210,0.213728576633114814
0.363000000000000211,0.184905995595087497
0.364000000000000212,0.156826655972637091
0.365000000000000213,0.129482385485337553
0.366000000000000214,0.102864672464931473
0.367000000000000215,0.076964685517806830
0.368000000000000216,0.051773293058039925
0.369000000000000217,0.027281082668779398
0.370000000000000218,0.003478380252830782
0.371000000000000218,-0.019644731063204034
0.372000000000000219,-0.042098392304015464
0.373000000000000220,-0.063892950329631340
0.374000000000000221,-0.085038939855325985
0.375000000000000222,-0.105547065831610304
0.376000000000000223,-0.125428186206080483
0.377000000000000224,-0.144693295086283286
0.378000000000000225,-0.163353506320601805
0.379000000000000226,-0.181420037511875520
0.380000000000000226,-0.198904194476548779
0.381000000000000227,-0.215817356159950957
0.382000000000000228,-0.232170960016750583
0.383000000000000229,-0.247976487863674627
0.384000000000000230,-0.263245452210040587
0.385000000000000231,-0.277989383070208651
0.386000000000000232,-0.292219815260428561
0.387000000000000233,-0.305948276181477463
0.388000000000000234,-0.319186274086993182
0.389000000000000234,-0.331945286836501097
0.390000000000000235,-0.344236751130843233
0.391000000000000236,-0.356072052226895364
0.392000000000000237,-0.367462514127453843
0.393000000000000238,-0.378419390241402309
0.394000000000000239,-0.388953854508419627
0.395000000000000240,-0.399076992981902301
0.396000000000000241,-0.408799795863059756
0.397000000000000242,-0.418133149978566265
0.398000000000000242,-0.427087831693739095
0.399000000000000243,-0.435674500252594299
0.400000000000000244,-0.443903691535865286
0.401000000000000245,-0.451785812227670724
0.402000000000000246,-0.459331134381125938
0.403000000000000247,-0.466549790373059547
0.404000000000000248,-0.473451768237669213
0.405000000000000249,-0.480046907368813447
0.406000000000000250,-0.486344894580447107
0.407000000000000250,-0.492355260514641180
0.408000000000000251,-0.498087376386492031
0.409000000000000252,-0.503550451055210790
0.410000000000000253,-0.508753528410622158
0.411000000000000254,-0.513705485064335998
0.412000000000000255,-0.518415028334825001
0.413000000000000256,-0.522890694515786070
0.414000000000000257,-0.527140847417053471
0.415000000000000258,-0.531173677167658398
0.416000000000000258,-0.534997199270470847
0.417000000000000259,-0.538619253898185102
0.418000000000000260,-0.542047505420423903
0.419000000000000261,-0.545289442151921877
0.420000000000000262,-0.548352376311886713
0.421000000000000263,-0.551243444184859155
0.422000000000000264,-0.553969606473444176
0.423000000000000265,-0.556537648833628440
0.424000000000000266,-0.558954182583485837
0.425000000000000266,-0.561225645576271304
0.426000000000000267,-0.563358303229187785
0.427000000000000268,-0.565358249699218329
0.428000000000000269,-0.567231409197699543
0.429000000000000270,-0.568983537435515885
0.430000000000000271,-0.570620223190968057
0.431000000000000272,-0.572146889992662167
0.432000000000000273,-0.573568797909908668
0.433000000000000274,-0.574891045443419402
0.434000000000000274,-0.576118571509249611
0.435000000000000275,-0.577256157509179024
0.436000000000000276,-0.578308429480977049
0.437000000000000277,-0.579279860322143181
0.438000000000000278,-0.580174772081008205
0.439000000000000279,-0.580997338309263256
0.440000000000000280,-0.581751586470190651
0.441000000000000281,-0.582441400397077147
0.442000000000000282,-0.583070522796580892
0.443000000000000282,-0.583642557791862693
0.444000000000000283,-0.584160973500686742
0.445000000000000284,-0.584629104643757058
0.446000000000000285,-0.585050155178774234
0.447000000000000286,-0.585427200956015303
0.448000000000000287,-0.585763192391171583
0.449000000000000288,-0.586060957151673501
0.450000000000000289,-0.586323202852637615
0.451000000000000290,-0.586552519758919533
0.452000000000000290,-0.586751383489886758
0.453000000000000291,-0.586922157723617777
0.454000000000000292,-0.587067096897531671
0.455000000000000293,-0.587188348902480728
0.456000000000000294,-0.587287957767582691
0.457000000000000295,-0.587367866333179500
0.458000000000000296,-0.587429918909450177
0.459000000000000297,-0.587475863918382357
0.460000000000000298,-0.587507356516901447
0.461000000000000298,-0.587525961199112046
0.462000000000000299,-0.587533154375752709
0.463000000000000300,-0.587530326929022184
0.464000000000000301,-0.587518786741158872
0.465000000000000302,-0.587499761195166670
0.466000000000000303,-0.587474399646264023
0.467000000000000304,-0.587443775862708129
0.468000000000000305,-0.587408890434759412
0.469000000000000306,-0.587370673150640288
0.470000000000000306,-0.587329985338491345
0.471000000000000307,-0.587287622173289114
0.472000000000000308,-0.587244314947970802
0.473000000000000309,-0.587200733307926215
0.474000000000000310,-0.587157487448164317
0.475000000000000311,-0.587115130272586661
0.476000000000000312,-0.587074159514779259
0.477000000000000313,-0.587035019819892034
0.478000000000000314,-0.586998104787172403
0.479000000000000314,-0.586963758972861904
0.480000000000000315,-0.586932279853136896
0.481000000000000316,-0.586903919746927127
0.482000000000000317,-0.586878887698416341
0.483000000000000318,-0.586857351319157394
0.484000000000000319,-0.586839438589717211
0.485000000000000320,-0.586825239620879069
0.486000000000000321,-0.586814808374428010
0.487000000000000322,-0.586808164343616268
0.488000000000000322,-0.586805294193402993
0.489000000000000323,-0.586806153360696969
0.490000000000000324,-0.586810667614737658
0.491000000000000325,-0.586818734577903678
0.492000000000000326,-0.586830225207166101
0.493000000000000327,-0.586844985236543382
0.494000000000000328,-0.586862836580825498
0.495000000000000329,-0.586883578700979291
0.496000000000000330,-0.586906989931540002
0.497000000000000330,-0.586932828770488357
0.498000000000000331,-0.586960835131912995
0.499000000000000332,-0.586990731562013091
0.500000000000000333,-0.587022224418836114
0.501000000000000334,-0.587055005016221543
0.502000000000000335,-0.587088750732488007
0.503000000000000336,-0.587123126084320823
0.504000000000000337,-0.587157783766407260
0.505000000000000338,-0.587192365657325355
0.506000000000000338,-0.587226503792242505
0.507000000000000339,-0.587259821302963947
0.508000000000000340,-0.587291933325869930
0.509000000000000341,-0.587322447878341980
0.510000000000000342,-0.587350966704194510
0.511000000000000343,-0.587377086088735512
0.512000000000000344,-0.587400397643982553
0.513000000000000345,-0.587420489064648388
0.514000000000000346,-0.587436944855476262
0.515000000000000346,-0.587449347030480795
0.516000000000000347,-0.587457275784693977
0.517000000000000348,-0.587460310139026776
0.518000000000000349,-0.587458028558763945
0.519000000000000350,-0.587450009546354068
0.520000000000000351,-0.587435832208996644
0.521000000000000352,-0.587415076801681146
0.522000000000000353,-0.587387325246174319
0.523000000000000353,-0.587352161626600089
0.524000000000000354,-0.587309172662130674
0.525000000000000355,-0.587257948157377863
0.526000000000000356,-0.587198081431025254
0.527000000000000357,-0.587129169723282773
0.528000000000000358,-0.587050814582683489
0.529000000000000359,-0.586962622232792830
0.530000000000000360,-0.586864203919337024
0.531000000000000361,-0.586755176238322074
0.532000000000000361,-0.586635161445631881
0.533000000000000362,-0.586503787748649641
0.534000000000000363,-0.586360689580393002
0.535000000000000364,-0.586205507856700114
0.536000000000000365,-0.586037890216916324
0.537000000000000366,-0.585857491248627738
0.538000000000000367,-0.585663972696866653
0.539000000000000368,-0.585457003658325759
0.540000000000000369,-0.585236260760984006
0.541000000000000369,-0.585001428329671058
0.542000000000000370,-0.584752198537950241
0.543000000000000371,-0.584488271546832472
0.544000000000000372,-0.584209355630705418
0.545000000000000373,-0.583915167290939396
0.546000000000000374,-0.583605431357570703
0.547000000000000375,-0.583279881079470708
0.548000000000000376,-0.582938258203433479
0.549000000000000377,-0.582580313042535214
0.550000000000000377,-0.582205804534194571
0.551000000000000378,-0.581814500288269754
0.552000000000000379,-0.581406176625613891
0.553000000000000380,-0.580980618607398802
0.554000000000000381,-0.580537620055597170
0.555000000000000382,-0.580076983564976056
0.556000000000000383,-0.579598520506888981
0.557000000000000384,-0.579102051025279341
0.558000000000000385,-0.578587404025129759
0.559000000000000385,-0.578054417153748279
0.560000000000000386,-0.577502936775153408
0.561000000000000387,-0.576932817937874765
0.562000000000000388,-0.576343924336457980
0.563000000000000389,-0.575736128266969294
0.564000000000000390,-0.575109310576761179
0.565000000000000391,-0.574463360608784002
0.566000000000000392,-0.573798176140694838
0.567000000000000393,-0.573113663319047006
0.568000000000000393,-0.572409736588760154
0.569000000000000394,-0.571686318618169542
0.570000000000000395,-0.570943340219857154
0.571000000000000396,-0.570180740267488995
0.572000000000000397,-0.569398465608918380
0.573000000000000398,-0.568596470975723634
0.574000000000000399,-0.567774718889432650
0.575000000000000400,-0.566933179564604761
0.576000000000000401,-0.566071830808981047
0.577000000000000401,-0.565190657920917494
0.578000000000000402,-0.564289653584239437
0.579000000000000403,-0.563368817760723894
0.580000000000000404,-0.562428157580406984
0.581000000000000405,-0.561467687229827095
0.582000000000000406,-0.560487427838427976
0.583000000000000407,-0.559487407363227884
0.584000000000000408,-0.558467660471951954
0.585000000000000409,-0.557428228424739491
0.586000000000000409,-0.556369158954579168
0.587000000000000410,-0.555290506146640550
0.588000000000000411,-0.554192330316561899
0.589000000000000412,-0.553074697887914413
0.590000000000000413,-0.551937681268881319
0.591000000000000414,-0.550781358728326564
0.592000000000000415,-0.549605814271347692
0.593000000000000416,-0.548411137514413394
0.594000000000000417,-0.547197423560204843
0.595000000000000417,-0.545964772872276627
0.596000000000000418,-0.544713291149579559
0.597000000000000419,-0.543443089201021579
0.598000000000000420,-0.542154282820067168
0.599000000000000421,-0.540846992659543502
0.600000000000000422,-0.539521344106678957
0.601000000000000423,-0.538177467158463818
0.602000000000000424,-0.536815496297439299
0.603000000000000425,-0.535435570367955860
0.604000000000000425,-0.534037832452964656
0.605000000000000426,-0.532622429751440252
0.606000000000000427,-0.531189513456482465
0.607000000000000428,-0.529739238634117204
0.608000000000000429,-0.528271764102950070
0.609000000000000430,-0.526787252314597443
0.610000000000000431,-0.525285869235076586
0.611000000000000432,-0.523767784227100242
0.612000000000000433,-0.522233169933375874
0.613000000000000433,-0.520682202160948515
0.614000000000000434,-0.519115059766610543
0.615000000000000435,-0.517531924543427002
