# TricalciumAluminate-Wet-010_CS-5439-AC
# h[nm],U(h)[kJ/mol]
0.149999999999999994,100.134394993349275182
0.150999999999999995,98.761542111674913258
0.151999999999999996,96.837831452009794475
0.152999999999999997,94.832095239475307835
0.153999999999999998,92.924667484441414445
0.154999999999999999,91.154114616178588903
0.156000000000000000,89.499463489692558937
0.157000000000000001,87.923215317947011727
0.158000000000000002,86.391371548469422237
0.159000000000000002,84.880662549714301690
0.160000000000000003,83.379204683273499654
0.161000000000000004,81.884248710368808588
0.162000000000000005,80.399060411295366180
0.163000000000000006,78.929974972071690331
0.164000000000000007,77.484073326500080725
0.165000000000000008,76.067594790452943698
0.166000000000000009,74.685028211747720661
0.167000000000000010,73.338749126055304828
0.168000000000000010,72.029051446621380705
0.169000000000000011,70.754432733203017847
0.170000000000000012,69.512015980193680775
0.171000000000000013,68.298018698027334494
0.172000000000000014,67.108206672329217213
0.173000000000000015,65.938292676154489413
0.174000000000000016,64.784258689677471921
0.175000000000000017,63.642593867447502021
0.176000000000000018,62.510450074915254959
0.177000000000000018,61.385722981505104201
0.178000000000000019,60.267070174297749929
0.179000000000000020,59.153879222921304404
0.180000000000000021,58.046198670173410505
0.181000000000000022,56.944644026497769573
0.182000000000000023,55.850289388240092592
0.183000000000000024,54.764553564402888242
0.184000000000000025,53.689087789251459526
0.185000000000000026,52.625670358138506799
0.186000000000000026,51.576111939464738043
0.187000000000000027,50.542173935895718273
0.188000000000000028,49.525501113341647397
0.189000000000000029,48.527568787279207640
0.190000000000000030,47.549644139973437973
0.191000000000000031,46.592760718180613821
0.192000000000000032,45.657704803896507428
0.193000000000000033,44.745012134128721470
0.194000000000000034,43.854973343468394376
0.195000000000000034,42.987646491072034394
0.196000000000000035,42.142875089660051913
0.197000000000000036,41.320310159222856328
0.198000000000000037,40.519434966149340482
0.199000000000000038,39.739591266135214198
0.200000000000000039,38.980006035811314291
0.201000000000000040,38.239817845239024052
0.202000000000000041,37.518102185018918249
0.203000000000000042,36.813895213281433882
0.204000000000000042,36.126215526284724433
0.205000000000000043,35.454083679952596242
0.206000000000000044,34.796539297611111863
0.207000000000000045,34.152655691344484978
0.208000000000000046,33.521552001251009756
0.209000000000000047,32.902402919307654372
0.210000000000000048,32.294446113676272603
0.211000000000000049,31.696987506405804425
0.212000000000000050,31.109404583974473724
0.213000000000000050,30.531147937370729295
0.214000000000000051,29.961741237786338132
0.215000000000000052,29.400779856783593402
0.216000000000000053,28.847928337202233706
0.217000000000000054,28.302916914182834063
0.218000000000000055,27.765537275485559832
0.219000000000000056,27.235637737639841305
0.220000000000000057,26.713118000121347961
0.221000000000000058,26.197923624362033479
0.222000000000000058,25.690040368489313494
0.223000000000000059,25.189488492711824108
0.224000000000000060,24.696317134573920526
0.225000000000000061,24.210598838174202996
0.226000000000000062,23.732424307096973592
0.227000000000000063,23.261897437396385158
0.228000000000000064,22.799130674607205549
0.229000000000000065,22.344240727495058962
0.230000000000000066,21.897344661134685140
0.231000000000000066,21.458556382913378968
0.232000000000000067,21.027983527178452761
0.233000000000000068,20.605724737439054195
0.234000000000000069,20.191867339241401424
0.235000000000000070,19.786485391997537420
0.236000000000000071,19.389638104090956006
0.237000000000000072,19.001368592433088622
0.238000000000000073,18.621702965227125759
0.239000000000000073,18.250649704934907902
0.240000000000000074,17.888199327261549598
0.241000000000000075,17.534324291303796883
0.242000000000000076,17.188979135779668184
0.243000000000000077,16.852100816407649120
0.244000000000000078,16.523609219972097861
0.245000000000000079,16.203407831344687651
0.246000000000000080,15.891384530678015707
0.247000000000000081,15.587412499103052710
0.248000000000000081,15.291351212505869483
0.249000000000000082,15.003047504295926373
0.250000000000000111,14.722336679475665377
0.251000000000000112,14.449043663753093014
0.252000000000000113,14.182984172880384932
0.253000000000000114,13.923965888834562321
0.254000000000000115,13.671789630861283626
0.255000000000000115,13.426250510768820590
0.256000000000000116,13.187139063173040299
0.257000000000000117,12.954242342648182529
0.258000000000000118,12.727344980925373363
0.259000000000000119,12.506230198396091069
0.260000000000000120,12.290680765218317205
0.261000000000000121,12.080479908287315993
0.262000000000000122,11.875412161219557561
0.263000000000000123,11.675264155308896719
0.264000000000000123,11.479825350148418650
0.265000000000000124,11.288888703273352476
0.266000000000000125,11.102251278770737031
0.267000000000000126,10.919714795324725998
0.268000000000000127,10.741086114624645020
0.269000000000000128,10.566177671460964760
0.270000000000000129,10.394807847174831750
0.271000000000000130,10.226801288414231195
0.272000000000000131,10.061989173388308672
0.273000000000000131,9.900209428003986289
0.274000000000000132,9.741306894420347362
0.275000000000000133,9.585133454669604092
0.276000000000000134,9.431548112072466239
0.277000000000000135,9.280417033224356516
0.278000000000000136,9.131613553349342993
0.279000000000000137,8.985018147815424072
0.280000000000000138,8.840518372579866835
0.281000000000000139,8.698008776289523070
0.282000000000000139,8.557390786701676078
0.283000000000000140,8.418572574017506582
0.284000000000000141,8.281468893635592465
0.285000000000000142,8.146000910738653289
0.286000000000000143,8.012096009024897825
0.287000000000000144,7.879687585787881865
0.288000000000000145,7.748714835436294024
0.289000000000000146,7.619122523430578831
0.290000000000000147,7.490860752495862585
0.291000000000000147,7.363884722853479836
0.292000000000000148,7.238154488095728922
0.293000000000000149,7.113634708212454250
0.294000000000000150,6.990294401163393623
0.295000000000000151,6.868106694278216295
0.296000000000000152,6.747048576657084240
0.297000000000000153,6.627100653638770211
0.298000000000000154,6.508246904301421054
0.299000000000000155,6.390474442863075311
0.300000000000000155,6.273773284755256086
0.301000000000000156,6.158136118053919361
0.302000000000000157,6.043558080866924698
0.303000000000000158,5.930036545197454600
0.304000000000000159,5.817570907726944185
0.305000000000000160,5.706162387890524990
0.306000000000000161,5.595813833551398275
0.307000000000000162,5.486529534518968632
0.308000000000000163,5.378315044098103570
0.309000000000000163,5.271177008803907604
0.310000000000000164,5.165123006327450028
0.311000000000000165,5.060161391793156938
0.312000000000000166,4.956301152307593938
0.313000000000000167,4.853551769762217916
0.314000000000000168,4.751923091819074685
0.315000000000000169,4.651425210978157310
0.316000000000000170,4.552068351598192564
0.317000000000000171,4.453862764718678591
0.318000000000000171,4.356818630510034041
0.319000000000000172,4.260945968160172015
0.320000000000000173,4.166254552990270810
0.321000000000000174,4.072753840578950069
0.322000000000000175,3.980452897662844602
0.323000000000000176,3.889360339572483838
0.324000000000000177,3.799484273955100466
0.325000000000000178,3.710832250530498477
0.326000000000000179,3.623411216622180575
0.327000000000000179,3.537227478203667008
0.328000000000000180,3.452286666198705056
0.329000000000000181,3.368593707774341084
0.330000000000000182,3.286152802367136694
0.331000000000000183,3.204967402184926151
0.332000000000000184,3.125040196929829150
0.333000000000000185,3.046373102492154317
0.334000000000000186,2.968967253369387382
0.335000000000000187,2.892822998569875903
0.336000000000000187,2.817939900766440520
0.337000000000000188,2.744316738471638040
0.338000000000000189,2.671951511012806257
0.339000000000000190,2.600841446092081011
0.340000000000000191,2.530983009723914101
0.341000000000000192,2.462371918349828270
0.342000000000000193,2.395003152937930757
0.343000000000000194,2.328870974882220057
0.344000000000000195,2.263968943524763411
0.345000000000000195,2.200289935131197971
0.346000000000000196,2.137826163158191850
0.347000000000000197,2.076569199659004106
0.348000000000000198,2.016509997681010358
0.349000000000000199,1.957638914516695916
0.350000000000000200,1.899945735676994873
0.351000000000000201,1.843419699463260786
0.352000000000000202,1.788049522021318394
0.353000000000000203,1.733823422768025369
0.354000000000000203,1.680729150087611812
0.355000000000000204,1.628754007201821619
0.356000000000000205,1.577884878124146795
0.357000000000000206,1.528108253614766099
0.358000000000000207,1.479410257058942246
0.359000000000000208,1.431776670197247858
0.360000000000000209,1.385192958641666916
0.361000000000000210,1.339644297117099203
0.362000000000000210,1.295115594372735490
0.363000000000000211,1.251591517712905333
0.364000000000000212,1.209056517101551931
0.365000000000000213,1.167494848799100371
0.366000000000000214,1.126890598494682871
0.367000000000000215,1.087227703900809805
0.368000000000000216,1.048489976781324495
0.369000000000000217,1.010661124387315812
0.370000000000000218,0.973724770278886043
0.371000000000000218,0.937664474514152468
0.372000000000000219,0.902463753189737039
0.373000000000000220,0.868106097319973125
0.374000000000000221,0.834574991044776615
0.375000000000000222,0.801853929158655832
0.376000000000000223,0.769926433955543721
0.377000000000000224,0.738776071386615052
0.378000000000000225,0.708386466530032677
0.379000000000000226,0.678741318373663916
0.380000000000000226,0.649824413913350996
0.381000000000000227,0.621619641571208525
0.382000000000000228,0.594111003939607252
0.383000000000000229,0.567282629858109066
0.384000000000000230,0.541118785831731453
0.385000000000000231,0.515603886800024336
0.386000000000000232,0.490722506267604275
0.387000000000000233,0.466459385807500904
0.388000000000000234,0.442799443949716320
0.389000000000000234,0.419727784467896270
0.390000000000000235,0.397229704077851520
0.391000000000000236,0.375290699562083774
0.392000000000000237,0.353896474335040623
0.393000000000000238,0.333032944464147274
0.394000000000000239,0.312686244162123872
0.395000000000000240,0.292842730766222137
0.396000000000000241,0.273488989220355749
0.397000000000000242,0.254611836076218179
0.398000000000000242,0.236198323029524315
0.399000000000000243,0.218235740007722001
0.400000000000000244,0.200711617825372668
0.401000000000000245,0.183613730423447308
0.402000000000000246,0.166930096708798409
0.403000000000000247,0.150648982009782828
0.404000000000000248,0.134758899164063278
0.405000000000000249,0.119248609254332921
0.406000000000000250,0.104107122007609257
0.407000000000000250,0.089323695873432668
0.408000000000000251,0.074887837796174528
0.409000000000000252,0.060789302696324418
0.410000000000000253,0.047018092675402225
0.411000000000000254,0.033564455958827767
0.412000000000000255,0.020418885590826864
0.413000000000000256,0.007572117895018504
0.414000000000000257,-0.004984869285779769
0.415000000000000258,-0.017260858557594537
0.416000000000000258,-0.029264395138333111
0.417000000000000259,-0.041003789203497579
0.418000000000000260,-0.052487118402493982
0.419000000000000261,-0.063722230533878502
0.420000000000000262,-0.074716746368163819
0.421000000000000263,-0.085478062607286048
0.422000000000000264,-0.096013354970005585
0.423000000000000265,-0.106329581393070985
0.424000000000000266,-0.116433485338224202
0.425000000000000266,-0.126331599195435629
0.426000000000000267,-0.136030247773246737
0.427000000000000268,-0.145535551867313817
0.428000000000000269,-0.154853431898654886
0.429000000000000270,-0.163989611613450575
0.430000000000000271,-0.172949621836521711
0.431000000000000272,-0.181738804271029147
0.432000000000000273,-0.190362315337158250
0.433000000000000274,-0.198825130042967479
0.434000000000000274,-0.207132045880832338
0.435000000000000275,-0.215287686743222295
0.436000000000000276,-0.223296506851891341
0.437000000000000277,-0.231162794694796336
0.438000000000000278,-0.238890676965382159
0.439000000000000279,-0.246484122499153108
0.440000000000000280,-0.253946946202673329
0.441000000000000281,-0.261282812970443312
0.442000000000000282,-0.268495241585392397
0.443000000000000282,-0.275587608598832579
0.444000000000000283,-0.282563152186161293
0.445000000000000284,-0.289424975974647725
0.446000000000000285,-0.296176052839965454
0.447000000000000286,-0.302819228668382623
0.448000000000000287,-0.309357226081570791
0.449000000000000288,-0.315792648121428654
0.450000000000000289,-0.322127981892290749
0.451000000000000290,-0.328365602158231851
0.452000000000000290,-0.334507774893318288
0.453000000000000291,-0.340556660782771803
0.454000000000000292,-0.346514318673290245
0.455000000000000293,-0.352382708970836345
0.456000000000000294,-0.358163696984407254
0.457000000000000295,-0.363859056214454246
0.458000000000000296,-0.369470471584717852
0.459000000000000297,-0.374999542616436643
0.460000000000000298,-0.380447786543982591
0.461000000000000298,-0.385816641371108993
0.462000000000000299,-0.391107468867128272
0.463000000000000300,-0.396321557502409327
0.464000000000000301,-0.401460125322774197
0.465000000000000302,-0.406524322762370272
0.466000000000000303,-0.411515235394781076
0.467000000000000304,-0.416433886622188276
0.468000000000000305,-0.421281240302477766
0.469000000000000306,-0.426058203314298389
0.470000000000000306,-0.430765628060158168
0.471000000000000307,-0.435404314907637757
0.472000000000000308,-0.439975014569012779
0.473000000000000309,-0.444478430419524506
0.474000000000000310,-0.448915220754616429
0.475000000000000311,-0.453286000986597049
0.476000000000000312,-0.457591345781113656
0.477000000000000313,-0.461831791134000802
0.478000000000000314,-0.466007836388989793
0.479000000000000314,-0.470119946196938532
0.480000000000000315,-0.474168552417158717
0.481000000000000316,-0.478154055961556135
0.482000000000000317,-0.482076828582251260
0.483000000000000318,-0.485937214603455625
0.484000000000000319,-0.489735532598338796
0.485000000000000320,-0.493472077011695709
0.486000000000000321,-0.497147119729236864
0.487000000000000322,-0.500760911594331448
0.488000000000000322,-0.504313683873042984
0.489000000000000323,-0.507805649668382708
0.490000000000000324,-0.511237005284625790
0.491000000000000325,-0.514607931542615638
0.492000000000000326,-0.517918595046960140
0.493000000000000327,-0.521169149406064736
0.494000000000000328,-0.524359736405908494
0.495000000000000329,-0.527490487138537190
0.496000000000000330,-0.530561523086162445
0.497000000000000330,-0.533572957161903227
0.498000000000000331,-0.536524894708001687
0.499000000000000332,-0.539417434452576283
0.500000000000000333,-0.542250669425804133
0.501000000000000334,-0.545024687836462296
0.502000000000000335,-0.547739573909838962
0.503000000000000336,-0.550395408687888832
0.504000000000000337,-0.552992270792623142
0.505000000000000338,-0.555530237153622153
0.506000000000000338,-0.558009383700628581
0.507000000000000339,-0.560429786022128340
0.508000000000000340,-0.562791519990806899
0.509000000000000341,-0.565094662356842581
0.510000000000000342,-0.567339291309844396
0.511000000000000343,-0.569525487010410392
0.512000000000000344,-0.571653332092089572
0.513000000000000345,-0.573722912134673191
0.514000000000000346,-0.575734316109653532
0.515000000000000346,-0.577687636798659199
0.516000000000000347,-0.579582971185720330
0.517000000000000348,-0.581420420824188544
0.518000000000000349,-0.583200092179074758
0.519000000000000350,-0.584922096945641457
0.520000000000000351,-0.586586552344972145
0.521000000000000352,-0.588193581397350118
0.522000000000000353,-0.589743313174110773
0.523000000000000353,-0.591235883028784825
0.524000000000000354,-0.592671432808199672
0.525000000000000355,-0.594050111044272855
0.526000000000000356,-0.595372073127170331
0.527000000000000357,-0.596637481460542629
0.528000000000000358,-0.597846505599471167
0.529000000000000359,-0.598999322371801535
0.530000000000000360,-0.600096115983472567
0.531000000000000361,-0.601137078108507028
0.532000000000000361,-0.602122407964232997
0.533000000000000362,-0.603052312372357457
0.534000000000000363,-0.603927005806453421
0.535000000000000364,-0.604746710426465439
0.536000000000000365,-0.605511656100725992
0.537000000000000366,-0.606222080416102815
0.538000000000000367,-0.606878228676712372
0.539000000000000368,-0.607480353891814984
0.540000000000000369,-0.608028716753291731
0.541000000000000369,-0.608523585603282346
0.542000000000000370,-0.608965236392367881
0.543000000000000371,-0.609353952628841622
0.544000000000000372,-0.609690025319463147
0.545000000000000373,-0.609973752902154054
0.546000000000000374,-0.610205441171054241
0.547000000000000375,-0.610385403194340648
0.548000000000000376,-0.610513959225234659
0.549000000000000377,-0.610591436606548243
0.550000000000000377,-0.610618169669186139
0.551000000000000378,-0.610594499624919851
0.552000000000000379,-0.610520774453845561
0.553000000000000380,-0.610397348786812066
0.554000000000000381,-0.610224583783175234
0.555000000000000382,-0.610002847004225024
0.556000000000000383,-0.609732512282525563
0.557000000000000384,-0.609413959587561171
0.558000000000000385,-0.609047574887878307
0.559000000000000385,-0.608633750010092012
0.560000000000000386,-0.608172882494970035
0.561000000000000387,-0.607665375450877177
0.562000000000000388,-0.607111637404819438
0.563000000000000389,-0.606512082151360654
0.564000000000000390,-0.605867128599596905
0.565000000000000391,-0.605177200618457811
0.566000000000000392,-0.604442726880517700
0.567000000000000393,-0.603664140704564867
0.568000000000000393,-0.602841879897070276
0.569000000000000394,-0.601976386592807389
0.570000000000000395,-0.601068107094778648
0.571000000000000396,-0.600117491713604623
0.572000000000000397,-0.599124994606611061
0.573000000000000398,-0.598091073616692226
0.574000000000000399,-0.597016190111182010
0.575000000000000400,-0.595900808820825745
0.576000000000000401,-0.594745397679017795
0.577000000000000401,-0.593550427661466373
0.578000000000000402,-0.592316372626357168
0.579000000000000403,-0.591043709155174346
0.580000000000000404,-0.589732916394325124
0.581000000000000405,-0.588384475897602788
0.582000000000000406,-0.586998871469676331
0.583000000000000407,-0.585576589010644577
0.584000000000000408,-0.584118116361792561
0.585000000000000409,-0.582623943152624002
0.586000000000000409,-0.581094560649232816
0.587000000000000410,-0.579530461604166880
0.588000000000000411,-0.577932140107747738
0.589000000000000412,-0.576300091441042550
0.590000000000000413,-0.574634811930449962
0.591000000000000414,-0.572936798804027925
0.592000000000000415,-0.571206550049607853
0.593000000000000416,-0.569444564274723897
0.594000000000000417,-0.567651340568440355
0.595000000000000417,-0.565827378365136302
0.596000000000000418,-0.563973177310216012
0.597000000000000419,-0.562089237127904595
0.598000000000000420,-0.560176057491039159
0.599000000000000421,-0.558234137892999582
0.600000000000000422,-0.556263977521736286
0.601000000000000423,-0.554266075135946057
0.602000000000000424,-0.552240928943439568
0.603000000000000425,-0.550189036481705585
0.604000000000000425,-0.548110894500670409
0.605000000000000426,-0.546006998847717417
0.606000000000000427,-0.543877844354962559
0.607000000000000428,-0.541723924728743311
0.608000000000000429,-0.539545732441459758
0.609000000000000430,-0.537343758625610901
0.610000000000000431,-0.535118492970188653
0.611000000000000432,-0.532870423619321687
0.612000000000000433,-0.530600037073217345
0.613000000000000433,-0.528307818091414583
0.614000000000000434,-0.525994249598313646
0.615000000000000435,-0.523659812590992257
