# TricalciumAluminate-Wet-010_CS-6110-AC
# h[nm],U(h)[kJ/mol]
0.149999999999999994,62.098792622388749862
0.150999999999999995,60.875799067289015909
0.151999999999999996,59.627877960991170880
0.152999999999999997,58.393977597886745912
0.153999999999999998,57.192351865816533518
0.154999999999999999,56.028972893140164047
0.156000000000000000,54.903242921669367149
0.157000000000000001,53.811643124243936143
0.158000000000000002,52.749890513363673961
0.159000000000000002,51.714072398067095548
0.160000000000000003,50.701121110320194418
0.161000000000000004,49.708894957477710363
0.162000000000000005,48.736050727598339449
0.163000000000000006,47.781829795359463731
0.164000000000000007,46.845832621372906601
0.165000000000000008,45.927822772787997962
0.166000000000000009,45.027578794590873201
0.167000000000000010,44.144797749397554298
0.168000000000000010,43.279045784080039994
0.169000000000000011,42.429746849902187478
0.170000000000000012,41.596199276447748616
0.171000000000000013,40.777610212892270170
0.172000000000000014,39.973139235528307722
0.173000000000000015,39.181944148038581943
0.174000000000000016,38.403223823482299792
0.175000000000000017,37.636254642271254056
0.176000000000000018,36.880418553254067149
0.177000000000000018,36.135221976519609655
0.178000000000000019,35.400305671164026933
0.179000000000000020,34.675446329882461782
0.180000000000000021,33.960551069928314405
0.181000000000000022,33.255646207705652273
0.182000000000000023,32.560861773452856482
0.183000000000000024,31.876413181676099384
0.184000000000000025,31.202581356034318816
0.185000000000000026,30.539692442605211653
0.186000000000000026,29.888098055645336615
0.187000000000000027,29.248156802621366523
0.188000000000000028,28.620217643296427923
0.189000000000000029,28.004605459885898000
0.190000000000000030,27.401609057356221655
0.191000000000000031,26.811471677834894933
0.192000000000000032,26.234384001845306500
0.193000000000000033,25.670479521228276809
0.194000000000000034,25.119832102704172883
0.195000000000000034,24.582455514945085184
0.196000000000000035,24.058304663283696101
0.197000000000000036,23.547278262151632333
0.198000000000000037,23.049222673395330929
0.199000000000000038,22.563936646271677944
0.200000000000000039,22.091176709891197305
0.201000000000000040,21.630662989112160233
0.202000000000000041,21.182085238624704715
0.203000000000000042,20.745108915700669172
0.204000000000000042,20.319381138586518176
0.205000000000000043,19.904536403796591060
0.206000000000000044,19.500201960853097205
0.207000000000000045,19.106002766752972377
0.208000000000000046,18.721565964220761913
0.209000000000000047,18.346524847380141665
0.210000000000000048,17.980522295712514591
0.211000000000000049,17.623213672034200528
0.212000000000000050,17.274269192754701407
0.213000000000000050,16.933375788978423770
0.214000000000000051,16.600238485220323525
0.215000000000000052,16.274581328793985335
0.216000000000000053,15.956147907486320392
0.217000000000000054,15.644701496151821374
0.218000000000000055,15.340024874539878397
0.219000000000000056,15.041919859203764176
0.220000000000000057,14.750206591913116227
0.221000000000000058,14.464722625778128062
0.222000000000000058,14.185321848449472526
0.223000000000000059,13.911873279429816108
0.224000000000000060,13.644259775847718430
0.225000000000000061,13.382376678116552071
0.226000000000000062,13.126130423827651938
0.227000000000000063,12.875437155091521646
0.228000000000000064,12.630221341414479497
0.229000000000000065,12.390414437136417547
0.230000000000000066,12.155953589506612644
0.231000000000000066,11.926780410672835231
0.232000000000000067,11.702839824232388111
0.233000000000000068,11.484078994560555032
0.234000000000000069,11.270446344904437197
0.235000000000000070,11.061890668214729772
0.236000000000000071,10.858360332885940380
0.237000000000000072,10.659802583983992719
0.238000000000000073,10.466162939153505818
0.239000000000000073,10.277384677207004771
0.240000000000000074,10.093408416393552685
0.241000000000000075,9.914171778514276667
0.242000000000000076,9.739609134383206523
0.243000000000000077,9.569651425610645745
0.244000000000000078,9.404226057299776897
0.245000000000000079,9.243256855981019982
0.246000000000000080,9.086664086950406727
0.247000000000000081,8.934364525114100175
0.248000000000000081,8.786271573459710993
0.249000000000000082,8.642295423364091178
0.250000000000000111,8.502343251095908272
0.251000000000000112,8.366319445070022454
0.252000000000000113,8.234125858649008478
0.253000000000000114,8.105662083558438979
0.254000000000000115,7.980825739276933284
0.255000000000000115,7.859512774074794095
0.256000000000000116,7.741617773698374450
0.257000000000000117,7.627034274027094440
0.258000000000000118,7.515655074361182741
0.259000000000000119,7.407372548326212502
0.260000000000000120,7.302078949702921484
0.261000000000000121,7.199666710804079273
0.262000000000000122,7.100028731322129083
0.263000000000000123,7.003058655860305848
0.264000000000000123,6.908651138634181343
0.265000000000000124,6.816702094089215791
0.266000000000000125,6.727108932421993259
0.267000000000000126,6.639770779218193475
0.268000000000000127,6.554588678628185505
0.269000000000000128,6.471465779692349152
0.270000000000000129,6.390307505602077498
0.271000000000000130,6.311021705839719331
0.272000000000000131,6.233518791282092408
0.273000000000000131,6.157711852477800285
0.274000000000000132,6.083516761419255126
0.275000000000000133,6.010852257227059070
0.276000000000000134,5.939640016247374810
0.277000000000000135,5.869804707133688737
0.278000000000000136,5.801274031543050214
0.279000000000000137,5.733978751124817919
0.280000000000000138,5.667852701517713143
0.281000000000000139,5.602832794099513514
0.282000000000000139,5.538859006253746387
0.283000000000000140,5.475874360930092166
0.284000000000000141,5.413824896280686083
0.285000000000000142,5.352659626153696060
0.286000000000000143,5.292330492219221583
0.287000000000000144,5.232792308491584166
0.288000000000000145,5.174002698996409855
0.289000000000000146,5.115922029312157449
0.290000000000000147,5.058513332693305387
0.291000000000000147,5.001742231457788179
0.292000000000000148,4.945576854294165159
0.293000000000000149,4.889987750115418308
0.294000000000000150,4.834947799056163120
0.295000000000000151,4.780432121179010174
0.296000000000000152,4.726417983424164859
0.297000000000000153,4.672884705304177544
0.298000000000000154,4.619813563813663038
0.299000000000000155,4.567187697991571760
0.300000000000000155,4.514992013541885285
0.301000000000000156,4.463213087887345054
0.302000000000000157,4.411839076000035220
0.303000000000000158,4.360859617322888404
0.304000000000000159,4.310265744067094396
0.305000000000000160,4.260049791142458631
0.306000000000000161,4.210205307950713127
0.307000000000000162,4.160726972245991639
0.308000000000000163,4.111610506242004526
0.309000000000000163,4.062852595121931643
0.310000000000000164,4.014450808084829347
0.311000000000000165,3.966403522041255236
0.312000000000000166,3.918709848051089129
0.313000000000000167,3.871369560577863744
0.314000000000000168,3.824383029616638563
0.315000000000000169,3.777751155736225996
0.316000000000000170,3.731475308061579454
0.317000000000000171,3.685557265208323940
0.318000000000000171,3.639999159168659126
0.319000000000000172,3.594803422136110704
0.320000000000000173,3.549972736246053806
0.321000000000000174,3.505509986199216943
0.322000000000000175,3.461418214726658338
0.323000000000000176,3.417700580846950054
0.324000000000000177,3.374360320859285167
0.325000000000000178,3.331400712010201826
0.326000000000000179,3.288825038766137077
0.327000000000000179,3.246636561619514971
0.328000000000000180,3.204838488352045545
0.329000000000000181,3.163433947675648561
0.330000000000000182,3.122425965168711848
0.331000000000000183,3.081817441423218007
0.332000000000000184,3.041611132316673682
0.333000000000000185,3.001809631321624927
0.334000000000000186,2.962415353764802806
0.335000000000000187,2.923430522947673360
0.336000000000000187,2.884857158040177172
0.337000000000000188,2.846697063659950899
0.338000000000000189,2.808951821049904041
0.339000000000000190,2.771622780768072225
0.340000000000000191,2.734711056804960183
0.341000000000000192,2.698217522044896732
0.342000000000000193,2.662142804989721778
0.343000000000000194,2.626487287664813763
0.344000000000000195,2.591251104629597624
0.345000000000000195,2.556434143016557581
0.346000000000000196,2.522036043525196725
0.347000000000000197,2.488056202299544939
0.348000000000000198,2.454493773620233021
0.349000000000000199,2.421347673344606655
0.350000000000000200,2.388616583030762186
0.351000000000000201,2.356298954683931690
0.352000000000000202,2.324393016066193418
0.353000000000000203,2.292896776512914236
0.354000000000000203,2.261808033201953005
0.355000000000000204,2.231124377824133198
0.356000000000000205,2.200843203605949761
0.357000000000000206,2.170961712637951901
0.358000000000000207,2.141476923464727289
0.359000000000000208,2.112385678894713070
0.360000000000000209,2.083684653990421243
0.361000000000000210,2.055370364202014244
0.362000000000000210,2.027439173609310252
0.363000000000000211,1.999887303239528125
0.364000000000000212,1.972710839430181995
0.365000000000000213,1.945905742208573042
0.366000000000000214,1.919467853661333212
0.367000000000000215,1.893392906269387721
0.368000000000000216,1.867676531185487931
0.369000000000000217,1.842314266433395131
0.370000000000000218,1.817301565009324715
0.371000000000000218,1.792633802868059956
0.372000000000000219,1.768306286777605152
0.373000000000000220,1.744314262027812701
0.374000000000000221,1.720652919979820838
0.375000000000000222,1.697317405444579874
0.376000000000000223,1.674302823879881386
0.377000000000000224,1.651604248396758789
0.378000000000000225,1.629216726567108697
0.379000000000000226,1.607135287025633685
0.380000000000000226,1.585354945860113274
0.381000000000000227,1.563870712785175865
0.382000000000000228,1.542677597095479802
0.383000000000000229,1.521770613395238225
0.384000000000000230,1.501144787101784228
0.385000000000000231,1.480795159721577159
0.386000000000000232,1.460716793897915311
0.387000000000000233,1.440904778230103656
0.388000000000000234,1.421354231864617068
0.389000000000000234,1.402060308859220283
0.390000000000000235,1.383018202321650847
0.391000000000000236,1.364223148324885670
0.392000000000000237,1.345670429601496298
0.393000000000000238,1.327355379019968806
0.394000000000000239,1.309273382846291467
0.395000000000000240,1.291419883794389545
0.396000000000000241,1.273790383869320531
0.397000000000000242,1.256380447007426238
0.398000000000000242,1.239185701517833582
0.399000000000000243,1.222201842329973420
0.400000000000000244,1.205424633051919159
0.401000000000000245,1.188849907844506948
0.402000000000000246,1.172473573116413759
0.403000000000000247,1.156291609045363655
0.404000000000000248,1.140300070930831300
0.405000000000000249,1.124495090383617280
0.406000000000000250,1.108872876357782200
0.407000000000000250,1.093429716030392962
0.408000000000000251,1.078161975534634776
0.409000000000000252,1.063066100551782522
0.410000000000000253,1.048138616767569031
0.411000000000000254,1.033376130198419673
0.412000000000000255,1.018775327393059760
0.413000000000000256,1.004332975514844462
0.414000000000000257,0.990045922310272664
0.415000000000000258,0.975911095968887921
0.416000000000000258,0.961925504879890925
0.417000000000000259,0.948086237290558409
0.418000000000000260,0.934390460871573625
0.419000000000000261,0.920835422194231534
0.420000000000000262,0.907418446124422795
0.421000000000000263,0.894136935138140188
0.422000000000000264,0.880988368563243585
0.423000000000000265,0.867970301751996409
0.424000000000000266,0.855080365188853442
0.425000000000000266,0.842316263537844279
0.426000000000000267,0.829675774633759744
0.427000000000000268,0.817156748421251633
0.428000000000000269,0.804757105845838594
0.429000000000000270,0.792474837700654300
0.430000000000000271,0.780308003432699016
0.431000000000000272,0.768254729912195566
0.432000000000000273,0.756313210168556793
0.433000000000000274,0.744481702096318698
0.434000000000000274,0.732758527134289350
0.435000000000000275,0.721142068921066692
0.436000000000000276,0.709630771929888771
0.437000000000000277,0.698223140085741933
0.438000000000000278,0.686917735367480797
0.439000000000000279,0.675713176397610082
0.440000000000000280,0.664608137022276724
0.441000000000000281,0.653601344883909308
0.442000000000000282,0.642691579988779238
0.443000000000000282,0.631877673271753593
0.444000000000000283,0.621158505160281260
0.445000000000000284,0.610533004139650171
0.446000000000000285,0.600000145321397893
0.447000000000000286,0.589558949016650180
0.448000000000000287,0.579208479316131397
0.449000000000000288,0.568947842678398485
0.450000000000000289,0.558776186527848884
0.451000000000000290,0.548692697863911172
0.452000000000000290,0.538696601882733384
0.453000000000000291,0.528787160612661400
0.454000000000000292,0.518963671564627860
0.455000000000000293,0.509225466398576354
0.456000000000000294,0.499571909606913778
0.457000000000000295,0.490002397215926866
0.458000000000000296,0.480516355506044768
0.459000000000000297,0.471113239751720592
0.460000000000000298,0.461792532981677883
0.461000000000000298,0.452553744760185339
0.462000000000000299,0.443396409989945006
0.463000000000000300,0.434320087737168958
0.464000000000000301,0.425324360079292141
0.465000000000000302,0.416408830975789956
0.466000000000000303,0.407573125162448147
0.467000000000000304,0.398816887069430914
0.468000000000000305,0.390139779763425065
0.469000000000000306,0.381541483914090096
0.470000000000000306,0.373021696784995527
0.471000000000000307,0.364580131249222394
0.472000000000000308,0.356216514829705122
0.473000000000000309,0.347930588764393423
0.474000000000000310,0.339722107096290415
0.475000000000000311,0.331590835788324989
0.476000000000000312,0.323536551863075117
0.477000000000000313,0.315559042567226111
0.478000000000000314,0.307658104560729950
0.479000000000000314,0.299833543130489599
0.480000000000000315,0.292085171428469403
0.481000000000000316,0.284412809734029604
0.482000000000000317,0.276816284740319329
0.483000000000000318,0.269295428864492536
0.484000000000000319,0.261850079581530448
0.485000000000000320,0.254480078781415042
0.486000000000000321,0.247185272149377383
0.487000000000000322,0.239965508568944191
0.488000000000000322,0.232820639547493047
0.489000000000000323,0.225750518663978467
0.490000000000000324,0.218755001038527797
0.491000000000000325,0.211833942823557220
0.492000000000000326,0.204987200716072682
0.493000000000000327,0.198214631490779752
0.494000000000000328,0.191516091553670803
0.495000000000000329,0.184891436515671304
0.496000000000000330,0.178340520786030854
0.497000000000000330,0.171863197184989658
0.498000000000000331,0.165459316575427506
0.499000000000000332,0.159128727513021956
0.500000000000000333,0.152871275914556265
0.501000000000000334,0.146686804743983240
0.502000000000000335,0.140575153715814444
0.503000000000000336,0.134536159015461843
0.504000000000000337,0.128569653036101406
0.505000000000000338,0.122675464131673143
0.506000000000000338,0.116853416385604175
0.507000000000000339,0.111103329394842826
0.508000000000000340,0.105425018068825468
0.509000000000000341,0.099818292442935080
0.510000000000000342,0.094282957506097193
0.511000000000000343,0.088818813042071593
0.512000000000000344,0.083425653484081416
0.513000000000000345,0.078103267782369340
0.514000000000000346,0.072851439284282365
0.515000000000000346,0.067669945626528311
0.516000000000000347,0.062558558639205050
0.517000000000000348,0.057517044261216864
0.518000000000000349,0.052545162466732756
0.519000000000000350,0.047642667202287069
0.520000000000000351,0.042809306334193484
0.521000000000000352,0.038044821605873302
0.522000000000000353,0.033348948604796383
0.523000000000000353,0.028721416738632221
0.524000000000000354,0.024161949220314005
0.525000000000000355,0.019670263061653516
0.526000000000000356,0.015246069075191526
0.527000000000000357,0.010889071883944812
0.528000000000000358,0.006598969938739607
0.529000000000000359,0.002375455542820282
0.530000000000000360,-0.001781785116575341
0.531000000000000361,-0.005873071929982565
0.532000000000000361,-0.009898730821102441
0.533000000000000362,-0.013859093696109692
0.534000000000000363,-0.017754498387162566
0.535000000000000364,-0.021585288590397766
0.536000000000000365,-0.025351813798653523
0.537000000000000366,-0.029054429229220257
0.538000000000000367,-0.032693495746841085
0.539000000000000368,-0.036269379782248604
0.540000000000000369,-0.039782453246442716
0.541000000000000369,-0.043233093440996614
0.542000000000000370,-0.046621682964565411
0.543000000000000371,-0.049948609615882503
0.544000000000000372,-0.053214266293422074
0.545000000000000373,-0.056419050891959532
0.546000000000000374,-0.059563366196244472
0.547000000000000375,-0.062647619771965063
0.548000000000000376,-0.065672223854232395
0.549000000000000377,-0.068637595233748211
0.550000000000000377,-0.071544155140864207
0.551000000000000378,-0.074392329127685786
0.552000000000000379,-0.077182546948431296
0.553000000000000380,-0.079915242438178963
0.554000000000000381,-0.082590853390181351
0.555000000000000382,-0.085209821431924529
0.556000000000000383,-0.087772591900034461
0.557000000000000384,-0.090279613714244977
0.558000000000000385,-0.092731339250502476
0.559000000000000385,-0.095128224213400434
0.560000000000000386,-0.097470727508044863
0.561000000000000387,-0.099759311111491694
0.562000000000000388,-0.101994439943865478
0.563000000000000389,-0.104176581739309132
0.564000000000000390,-0.106306206916838827
0.565000000000000391,-0.108383788451245480
0.566000000000000392,-0.110409801744128760
0.567000000000000393,-0.112384724495188187
0.568000000000000393,-0.114309036573833206
0.569000000000000394,-0.116183219891239767
0.570000000000000395,-0.118007758272930863
0.571000000000000396,-0.119783137331945483
0.572000000000000397,-0.121509844342720719
0.573000000000000398,-0.123188368115721730
0.574000000000000399,-0.124819198872923184
0.575000000000000400,-0.126402828124194844
0.576000000000000401,-0.127939748544664333
0.577000000000000401,-0.129430453853137062
0.578000000000000402,-0.130875438691600510
0.579000000000000403,-0.132275198505895059
0.580000000000000404,-0.133630229427611186
0.581000000000000405,-0.134941028157232412
0.582000000000000406,-0.136208091848612017
0.583000000000000407,-0.137431917994795705
0.584000000000000408,-0.138613004315257971
0.585000000000000409,-0.139751848644574073
0.586000000000000409,-0.140848948822572650
0.587000000000000410,-0.141904802586016732
0.588000000000000411,-0.142919907461806966
0.589000000000000412,-0.143894760661797433
0.590000000000000413,-0.144829858979184128
0.591000000000000414,-0.145725698686548416
0.592000000000000415,-0.146582775435548152
0.593000000000000416,-0.147401584158280918
0.594000000000000417,-0.148182618970346541
0.595000000000000417,-0.148926373075632890
0.596000000000000418,-0.149633338672808203
0.597000000000000419,-0.150304006863582418
0.598000000000000420,-0.150938867562696200
0.599000000000000421,-0.151538409409698038
0.600000000000000422,-0.152103119682482607
0.601000000000000423,-0.152633484212603948
0.602000000000000424,-0.153129987302385001
0.603000000000000425,-0.153593111643821834
0.604000000000000425,-0.154023338239252905
0.605000000000000426,-0.154421146323851899
0.606000000000000427,-0.154787013289904324
0.607000000000000428,-0.155121414612856612
0.608000000000000429,-0.155424823779192506
0.609000000000000430,-0.155697712216055689
0.610000000000000431,-0.155940549222683189
0.611000000000000432,-0.156153801903595985
0.612000000000000433,-0.156337935103564196
0.613000000000000433,-0.156493411344336836
0.614000000000000434,-0.156620690763115744
0.615000000000000435,-0.156720231052775383
0.616000000000000436,-0.156792487403809022
0.617000000000000437,-0.156837912448010292
0.618000000000000438,-0.156856956203847736
0.619000000000000439,-0.156850066023535739
