# TricalciumAluminate-Wet-010_CS-12814-AC
# h[nm],U(h)[kJ/mol]
0.149999999999999994,116.797211704405782484
0.150999999999999995,115.038106942205288874
0.151999999999999996,112.722234760154421451
0.152999999999999997,110.309553022867319783
0.153999999999999998,107.980091986779939361
0.154999999999999999,105.775388593749241295
0.156000000000000000,103.678323612723872316
0.157000000000000001,101.655170977734883309
0.158000000000000002,99.675300180830930685
0.159000000000000002,97.718332479146084779
0.160000000000000003,95.774801438489603811
0.161000000000000004,93.843915516562560697
0.162000000000000005,91.930448951154829729
0.163000000000000006,90.041807050816942137
0.164000000000000007,88.185722429613832674
0.165000000000000008,86.368702321992003590
0.166000000000000009,84.595170761057218556
0.167000000000000010,82.867170922167758818
0.168000000000000010,81.184471501988340947
0.169000000000000011,79.544930406791834798
0.170000000000000012,77.944992916075335643
0.171000000000000013,76.380230086950277268
0.172000000000000014,74.845850975070518984
0.173000000000000015,73.337146500828538365
0.174000000000000016,71.849842395016565888
0.175000000000000017,70.380353507645196487
0.176000000000000018,68.925942278041901545
0.177000000000000018,67.484791008268373957
0.178000000000000019,66.056001489936178928
0.179000000000000020,64.639537212061199511
0.180000000000000021,63.236123449569184629
0.181000000000000022,61.847119521689776889
0.182000000000000023,60.474375835388322287
0.183000000000000024,59.120086312351347146
0.184000000000000025,57.786644674811007860
0.185000000000000026,56.476511000398716078
0.186000000000000026,55.192093056741214241
0.187000000000000027,53.935645255656254449
0.188000000000000028,52.709186654247424997
0.189000000000000029,51.514438281594621571
0.190000000000000030,50.352779174284499675
0.191000000000000031,49.225219840396604809
0.192000000000000032,48.132391412431630329
0.193000000000000033,47.074548465079601556
0.194000000000000034,46.051583333472635218
0.195000000000000034,45.063049742813255705
0.196000000000000035,44.108193624589354442
0.197000000000000036,43.185989124530969718
0.198000000000000037,42.295177982812454331
0.199000000000000038,41.434310670777747987
0.200000000000000039,40.601787886781991688
0.201000000000000040,39.795901235562546105
0.202000000000000041,39.014872132385484349
0.203000000000000042,38.256888178784969057
0.204000000000000042,37.520136446631489946
0.205000000000000043,36.802833278716477139
0.206000000000000044,36.103250365481365236
0.207000000000000045,35.419736988425015056
0.208000000000000046,34.750738431352218072
0.209000000000000047,34.094810651815770086
0.210000000000000048,33.450631378112419156
0.211000000000000049,32.817007853547153218
0.212000000000000050,32.192881491071311473
0.213000000000000050,31.577329729590537966
0.214000000000000051,30.969565399988994159
0.215000000000000052,30.368933915937720514
0.216000000000000053,29.774908603466904822
0.217000000000000054,29.187084475586949850
0.218000000000000055,28.605170745312115343
0.219000000000000056,28.028982353503096192
0.220000000000000057,27.458430768083815110
0.221000000000000058,26.893514289352090429
0.222000000000000058,26.334308073095265001
0.223000000000000059,25.780954059727559269
0.224000000000000060,25.233650974244575593
0.225000000000000061,24.692644538899518381
0.226000000000000062,24.158218018504911129
0.227000000000000063,23.630683197427135411
0.228000000000000064,23.110371867870430407
0.229000000000000065,22.597627891076442097
0.230000000000000066,22.092799876680317084
0.231000000000000066,21.596234510697598807
0.232000000000000067,21.108270549470041999
0.233000000000000068,20.629233485338957621
0.234000000000000069,20.159430879788928337
0.235000000000000070,19.699148351237528942
0.236000000000000071,19.248646197452110584
0.237000000000000072,18.808156626656092669
0.238000000000000073,18.377881566642589206
0.239000000000000073,17.957991017539111311
0.240000000000000074,17.548621911155404263
0.241000000000000075,17.149877437997595564
0.242000000000000076,16.761826801942003584
0.243000000000000077,16.384505362136724926
0.244000000000000078,16.017915121847117632
0.245000000000000079,15.662025524597348536
0.246000000000000080,15.316774519005543098
0.247000000000000081,14.982069855091239674
0.248000000000000081,14.657790576486803502
0.249000000000000082,14.343788674846972953
0.250000000000000111,14.039890874771568718
0.251000000000000112,13.745900519686887975
0.252000000000000113,13.461599531329971668
0.253000000000000114,13.186750417711744277
0.254000000000000115,12.921098306666305433
0.255000000000000115,12.664372984300701575
0.256000000000000116,12.416290919817475569
0.257000000000000117,12.176557260274700312
0.258000000000000118,11.944867780859318884
0.259000000000000119,11.720910778167535682
0.260000000000000120,11.504368895802450368
0.261000000000000121,11.294920873307830789
0.262000000000000122,11.092243211052398522
0.263000000000000123,10.896011745161185758
0.264000000000000123,10.705903127956240439
0.265000000000000124,10.521596210621234846
0.266000000000000125,10.342773325943429796
0.267000000000000126,10.169121470016497355
0.268000000000000127,10.000333382710724806
0.269000000000000128,9.836108527539568769
0.270000000000000129,9.676153972276200221
0.271000000000000130,9.520185172306828036
0.272000000000000131,9.367926659254637300
0.273000000000000131,9.219112637873788429
0.274000000000000132,9.073487494603991621
0.275000000000000133,8.930806221496833786
0.276000000000000134,8.790834759482212490
0.277000000000000135,8.653350265141465769
0.278000000000000136,8.518141305298550847
0.279000000000000137,8.385007983837127199
0.280000000000000138,8.253762005204666963
0.281000000000000139,8.124226679078727642
0.282000000000000139,7.996236870650665018
0.283000000000000140,7.869638900931450465
0.284000000000000141,7.744290401407705637
0.285000000000000142,7.620060127276483186
0.286000000000000143,7.496827733368379043
0.287000000000000144,7.374483516733677746
0.288000000000000145,7.252928129717291839
0.289000000000000146,7.132072267189369263
0.290000000000000147,7.011836331430241209
0.291000000000000147,6.892150077994831925
0.292000000000000148,6.772952245702829721
0.293000000000000149,6.654190173720610169
0.294000000000000150,6.535819408518610096
0.295000000000000151,6.417803303306524931
0.296000000000000152,6.300112612368808485
0.297000000000000153,6.182725082545596607
0.298000000000000154,6.065625043930476856
0.299000000000000155,5.948803001687059222
0.300000000000000155,5.832255230721854034
0.301000000000000156,5.715983374792086735
0.302000000000000157,5.599994051473902168
0.303000000000000158,5.484298464269903306
0.304000000000000159,5.368912022994647870
0.305000000000000160,5.253853973443427527
0.306000000000000161,5.139147037223100511
0.307000000000000162,5.024817062504024712
0.308000000000000163,4.910892686339583868
0.309000000000000163,4.797405009093965944
0.310000000000000164,4.684387281419786220
0.311000000000000165,4.571874604134955611
0.312000000000000166,4.459903641262411789
0.313000000000000167,4.348512346416963936
0.314000000000000168,4.237739702650356932
0.315000000000000169,4.127625475798454069
0.316000000000000170,4.018209981312983459
0.317000000000000171,3.909533864504358913
0.318000000000000171,3.801637894071630885
0.319000000000000172,3.694562768749649173
0.320000000000000173,3.588348936863113181
0.321000000000000174,3.483036428540638774
0.322000000000000175,3.378664700310035407
0.323000000000000176,3.275272491768036698
0.324000000000000177,3.172897693993503410
0.325000000000000178,3.071577229352556948
0.326000000000000179,2.971346942326609675
0.327000000000000179,2.872241500980261542
0.328000000000000180,2.774294308674410292
0.329000000000000181,2.677537425621318690
0.330000000000000182,2.582001499872137451
0.331000000000000183,2.487715707323113978
0.332000000000000184,2.394707700324985034
0.333000000000000185,2.303003564479776166
0.334000000000000186,2.212627783210797894
0.335000000000000187,2.123603209694842064
0.336000000000000187,2.035951045749901489
0.337000000000000188,1.949690827277763772
0.338000000000000189,1.864840415867304646
0.339000000000000190,1.781415996172319938
0.340000000000000191,1.699432078686438086
0.341000000000000192,1.618901507546815832
0.342000000000000193,1.539835473008534628
0.343000000000000194,1.462243528241979673
0.344000000000000195,1.386133610116781822
0.345000000000000195,1.311512063646716131
0.346000000000000196,1.238383669782157970
0.347000000000000197,1.166751676248045211
0.348000000000000198,1.096617831137541854
0.349000000000000199,1.027982418983536927
0.350000000000000200,0.960844299042134198
0.351000000000000201,0.895200945534433523
0.352000000000000202,0.831048489604853557
0.353000000000000203,0.768381762766036425
0.354000000000000203,0.707194341612166766
0.355000000000000204,0.647478593594143614
0.356000000000000205,0.589225723661243483
0.357000000000000206,0.532425821585045034
0.358000000000000207,0.477067909792470268
0.359000000000000208,0.423139991545063932
0.360000000000000209,0.370629099312099197
0.361000000000000210,0.319521343195222740
0.362000000000000210,0.269801959271773861
0.363000000000000211,0.221455357733573527
0.364000000000000212,0.174465170706804867
0.365000000000000213,0.128814299647532243
0.366000000000000214,0.084484962215653520
0.367000000000000215,0.041458738538265469
0.368000000000000216,-0.000283383219030142
0.369000000000000217,-0.040760962046645144
0.370000000000000218,-0.079994060118424443
0.371000000000000218,-0.118003199711930268
0.372000000000000219,-0.154809321075425194
0.373000000000000220,-0.190433741289126768
0.374000000000000221,-0.224898114162538493
0.375000000000000222,-0.258224391204135206
0.376000000000000223,-0.290434783694669130
0.377000000000000224,-0.321551725890186435
0.378000000000000225,-0.351597839376451282
0.379000000000000226,-0.380595898591971404
0.380000000000000226,-0.408568797532942507
0.381000000000000227,-0.435539517649292496
0.382000000000000228,-0.461531096937806917
0.383000000000000229,-0.486566600234678237
0.384000000000000230,-0.510669090706858175
0.385000000000000231,-0.533861602538792557
0.386000000000000232,-0.556167114808212126
0.387000000000000233,-0.577608526542502387
0.388000000000000234,-0.598208632944603691
0.389000000000000234,-0.617990102775616612
0.390000000000000235,-0.636975456879124713
0.391000000000000236,-0.655187047830725233
0.392000000000000237,-0.672647040694575260
0.393000000000000238,-0.689377394867426774
0.394000000000000239,-0.705399846989283930
0.395000000000000240,-0.720735894898810514
0.396000000000000241,-0.735406782610515286
0.397000000000000242,-0.749433486289912354
0.398000000000000242,-0.762836701202206591
0.399000000000000243,-0.775636829609194001
0.400000000000000244,-0.787853969588793279
0.401000000000000245,-0.799507904751032950
0.402000000000000246,-0.810618094823961632
0.403000000000000247,-0.821203667082823996
0.404000000000000248,-0.831283408595533735
0.405000000000000249,-0.840875759257462163
0.406000000000000250,-0.849998805588455530
0.407000000000000250,-0.858670275265109972
0.408000000000000251,-0.866907532361345212
0.409000000000000252,-0.874727573270518755
0.410000000000000253,-0.882147023282491061
0.411000000000000254,-0.889182133789318874
0.412000000000000255,-0.895848780093491115
0.413000000000000256,-0.902162459793056648
0.414000000000000257,-0.908138291718162405
0.415000000000000258,-0.913791015394177508
0.416000000000000258,-0.919134991006706370
0.417000000000000259,-0.924184199844496179
0.418000000000000260,-0.928952245196536852
0.419000000000000261,-0.933452353680239044
0.420000000000000262,-0.937697376978022357
0.421000000000000263,-0.941699793960250275
0.422000000000000264,-0.945471713172825523
0.423000000000000265,-0.949024875668498913
0.424000000000000266,-0.952370658161381889
0.425000000000000266,-0.955520076484674741
0.426000000000000267,-0.958483789332335467
0.427000000000000268,-0.961272102265824713
0.428000000000000269,-0.963894971967729886
0.429000000000000270,-0.966362010724624243
0.430000000000000271,-0.968682491122038636
0.431000000000000272,-0.970865350935084415
0.432000000000000273,-0.972919198198709978
0.433000000000000274,-0.974852316442260780
0.434000000000000274,-0.976672670073474469
0.435000000000000275,-0.978387909897619368
0.436000000000000276,-0.980005378758073364
0.437000000000000277,-0.981532117285089933
0.438000000000000278,-0.982974869740095181
0.439000000000000279,-0.984340089943385954
0.440000000000000280,-0.985633947273527156
0.441000000000000281,-0.986862332727320157
0.442000000000000282,-0.988030865029745242
0.443000000000000282,-0.989144896783592964
0.444000000000000283,-0.990209520649195651
0.445000000000000284,-0.991229575544939179
0.446000000000000285,-0.992209652859764923
0.447000000000000286,-0.993154102669390859
0.448000000000000287,-0.994067039948173692
0.449000000000000288,-0.994952350769255589
0.450000000000000289,-0.995813698485761511
0.451000000000000290,-0.996654529886389140
0.452000000000000290,-0.997478081319068344
0.453000000000000291,-0.998287384776648912
0.454000000000000292,-0.999085273939107288
0.455000000000000293,-0.999874390166914595
0.456000000000000294,-1.000657188440702061
0.457000000000000295,-1.001435943242604321
0.458000000000000296,-1.002212754374964820
0.459000000000000297,-1.002989552712463039
0.460000000000000298,-1.003768105883924067
0.461000000000000298,-1.004550023880420806
0.462000000000000299,-1.005336764586527210
0.463000000000000300,-1.006129639231804429
0.464000000000000301,-1.006929817759932622
0.465000000000000302,-1.007738334113067014
0.466000000000000303,-1.008556091429249069
0.467000000000000304,-1.009383867150952074
0.468000000000000305,-1.010222318043008549
0.469000000000000306,-1.011071985118397354
0.470000000000000306,-1.011933298470585996
0.471000000000000307,-1.012806582011194889
0.472000000000000308,-1.013692058112112271
0.473000000000000309,-1.014589852151187799
0.474000000000000310,-1.015499996960860907
0.475000000000000311,-1.016422437179265614
0.476000000000000312,-1.017357033503432540
0.477000000000000313,-1.018303566844389607
0.478000000000000314,-1.019261742384064195
0.479000000000000314,-1.020231193534062664
0.480000000000000315,-1.021211485796441165
0.481000000000000316,-1.022202120526778391
0.482000000000000317,-1.023202538599884193
0.483000000000000318,-1.024212123978654354
0.484000000000000319,-1.025230207186598186
0.485000000000000320,-1.026256068684701761
0.486000000000000321,-1.027288942153371520
0.487000000000000322,-1.028328017680240070
0.488000000000000322,-1.029372444854698587
0.489000000000000323,-1.030421335770148827
0.490000000000000324,-1.031473767934917962
0.491000000000000325,-1.032528787092940714
0.492000000000000326,-1.033585409955264378
0.493000000000000327,-1.034642626843606861
0.494000000000000328,-1.035699404247098387
0.495000000000000329,-1.036754687293510946
0.496000000000000330,-1.037807402136179835
0.497000000000000330,-1.038856458258039073
0.498000000000000331,-1.039900750693964371
0.499000000000000332,-1.040939162172935140
0.500000000000000333,-1.041970565181322694
0.501000000000000334,-1.042993823948709320
0.502000000000000335,-1.044007796357725892
0.503000000000000336,-1.045011335779296946
0.504000000000000337,-1.046003292834774667
0.505000000000000338,-1.046982517086415543
0.506000000000000338,-1.047947858657682918
0.507000000000000339,-1.048898169784850287
0.508000000000000340,-1.049832306301367035
0.509000000000000341,-1.050749129056528952
0.510000000000000342,-1.051647505269851735
0.511000000000000343,-1.052526309822717998
0.512000000000000344,-1.053384426488696679
0.513000000000000345,-1.054220749104055832
0.514000000000000346,-1.055034182679944532
0.515000000000000346,-1.055823644457648536
0.516000000000000347,-1.056588064908406732
0.517000000000000348,-1.057326388679247220
0.518000000000000349,-1.058037575486202142
0.519000000000000350,-1.058720600956401192
0.520000000000000351,-1.059374457420350746
0.521000000000000352,-1.059998154655895641
0.522000000000000353,-1.060590720585112834
0.523000000000000353,-1.061151201925598864
0.524000000000000354,-1.061678664797427007
0.525000000000000355,-1.062172195287115928
0.526000000000000356,-1.062630899969902343
0.527000000000000357,-1.063053906391628889
0.528000000000000358,-1.063440363511476194
0.529000000000000359,-1.063789442106827909
0.530000000000000360,-1.064100335141434650
0.531000000000000361,-1.064372258098164714
0.532000000000000361,-1.064604449277454901
0.533000000000000362,-1.064796170062665803
0.534000000000000363,-1.064946705153474005
0.535000000000000364,-1.065055362768441150
0.536000000000000365,-1.065121474817821934
0.537000000000000366,-1.065144397047755875
0.538000000000000367,-1.065123509156818304
0.539000000000000368,-1.065058214886068999
0.540000000000000369,-1.064947942083519727
0.541000000000000369,-1.064792142744090286
0.542000000000000370,-1.064590293025964529
0.543000000000000371,-1.064341893244356019
0.544000000000000372,-1.064046467843568822
0.545000000000000373,-1.063703565348295133
0.546000000000000374,-1.063312758295015481
0.547000000000000375,-1.062873643144371716
0.548000000000000376,-1.062385840175386287
0.549000000000000377,-1.061848993362304094
0.550000000000000377,-1.061262770234923325
0.551000000000000378,-1.060626861723122261
0.552000000000000379,-1.059940981986443820
0.553000000000000380,-1.059204868229384644
0.554000000000000381,-1.058418280503167441
0.555000000000000382,-1.057581001494729556
0.556000000000000383,-1.056692836303504857
0.557000000000000384,-1.055753612206819181
0.558000000000000385,-1.054763178414390490
0.559000000000000385,-1.053721405812687806
0.560000000000000386,-1.052628186699689605
0.561000000000000387,-1.051483434510661841
0.562000000000000388,-1.050287083535510479
0.563000000000000389,-1.049039088628304750
0.564000000000000390,-1.047739424909465589
0.565000000000000391,-1.046388087461177729
0.566000000000000392,-1.044985091016509715
0.567000000000000393,-1.043530469642770298
0.568000000000000393,-1.042024276419512008
0.569000000000000394,-1.040466583111705479
0.570000000000000395,-1.038857479838513509
0.571000000000000396,-1.037197074738036573
0.572000000000000397,-1.035485493628558462
0.573000000000000398,-1.033722879666565175
0.574000000000000399,-1.031909393002025777
0.575000000000000400,-1.030045210431239422
0.576000000000000401,-1.028130525047633581
0.577000000000000401,-1.026165545890882935
0.578000000000000402,-1.024150497594630504
0.579000000000000403,-1.022085620033148068
0.580000000000000404,-1.019971167967295589
0.581000000000000405,-1.017807410689977043
0.582000000000000406,-1.015594631671469905
0.583000000000000407,-1.013333128204835898
0.584000000000000408,-1.011023211051710335
0.585000000000000409,-1.008665204088702971
0.586000000000000409,-1.006259443954644617
0.587000000000000410,-1.003806279698946202
0.588000000000000411,-1.001306072431212169
0.589000000000000412,-0.998759194972419606
0.590000000000000413,-0.996166031507758509
0.591000000000000414,-0.993526977241400600
0.592000000000000415,-0.990842438053343266
0.593000000000000416,-0.988112830158492939
0.594000000000000417,-0.985338579768168188
0.595000000000000417,-0.982520122754198533
0.596000000000000418,-0.979657904315684336
0.597000000000000419,-0.976752378648674813
0.598000000000000420,-0.973804008618777805
0.599000000000000421,-0.970813265436918371
0.600000000000000422,-0.967780628338309135
0.601000000000000423,-0.964706584264739653
0.602000000000000424,-0.961591627550340000
0.603000000000000425,-0.958436259610859098
0.604000000000000425,-0.955240988636556709
0.605000000000000426,-0.952006329288824005
0.606000000000000427,-0.948732802400599873
0.607000000000000428,-0.945420934680591074
0.608000000000000429,-0.942071258421501634
0.609000000000000430,-0.938684311212160671
0.610000000000000431,-0.935260635653765271
0.611000000000000432,-0.931800779080164454
0.612000000000000433,-0.928305293282305932
0.613000000000000433,-0.924774734236863849
0.614000000000000434,-0.921209661839077598
