# TricalciumAluminate-Wet-010_CS-16629-AC
# h[nm],U(h)[kJ/mol]
0.149999999999999994,111.521105619054111457
0.150999999999999995,109.682095054663292899
0.151999999999999996,107.376373250135173976
0.152999999999999997,105.029511527172530805
0.153999999999999998,102.802579468557382825
0.154999999999999999,100.726702035211374664
0.156000000000000000,98.778892897422025499
0.157000000000000001,96.921864979856593436
0.158000000000000002,95.122545292203298573
0.159000000000000002,93.358644952288784680
0.160000000000000003,91.619059034109881168
0.161000000000000004,89.901530674141099553
0.162000000000000005,88.209513727522590898
0.163000000000000006,86.549231951775738025
0.164000000000000007,84.927369087182796648
0.165000000000000008,83.349502314957973681
0.166000000000000009,81.819222649565531924
0.167000000000000010,80.337810539461514736
0.168000000000000010,78.904314336670609009
0.169000000000000011,77.515888296759385412
0.170000000000000012,76.168269743595928389
0.171000000000000013,74.856302600198404207
0.172000000000000014,73.574441364331534032
0.173000000000000015,72.317193121280098467
0.174000000000000016,71.079474270574252159
0.175000000000000017,69.856873175874369508
0.176000000000000018,68.645820316222909696
0.177000000000000018,67.443674348301343002
0.178000000000000019,66.248736479870416360
0.179000000000000020,65.060207376011959468
0.180000000000000021,63.878101069330895712
0.181000000000000022,62.703129524659232175
0.182000000000000023,61.536570020929232783
0.183000000000000024,60.380125668206652279
0.184000000000000025,59.235787405727819532
0.185000000000000026,58.105703888520977785
0.186000000000000026,56.992063872323157625
0.187000000000000027,55.896994112785669984
0.188000000000000028,54.822474436964533595
0.189000000000000029,53.770270531056972629
0.190000000000000030,52.741884110393392859
0.191000000000000031,51.738519477500915400
0.192000000000000032,50.761065007210781630
0.193000000000000033,49.810087797015526689
0.194000000000000034,48.885839558400192573
0.195000000000000034,47.988271773919322527
0.196000000000000035,47.117058180697370062
0.197000000000000036,46.271622741779140142
0.198000000000000037,45.451171413262485999
0.199000000000000038,44.654726191296298055
0.200000000000000039,43.881160115567183766
0.201000000000000040,43.129232104220321276
0.202000000000000041,42.397620691030212470
0.203000000000000042,41.684955922902688030
0.204000000000000042,40.989848850073620667
0.205000000000000043,40.310918199782591387
0.206000000000000044,39.646813965067487118
0.207000000000000045,38.996237762946158512
0.208000000000000046,38.357959920673891929
0.209000000000000047,37.730833335611677626
0.210000000000000048,37.113804224536131926
0.211000000000000049,36.505919933274860512
0.212000000000000050,35.906334018832872346
0.213000000000000050,35.314308845247147417
0.214000000000000051,34.729215952837982684
0.215000000000000052,34.150534469857774411
0.216000000000000053,33.577847837236355133
0.217000000000000054,33.010839112553071573
0.218000000000000055,32.449285109783808423
0.219000000000000056,31.893049617903578508
0.220000000000000057,31.342075925070918885
0.221000000000000058,30.796378856757581133
0.222000000000000058,30.256036516559795757
0.223000000000000059,29.721181898180407899
0.224000000000000060,29.191994516725223718
0.225000000000000061,28.668692187448108655
0.226000000000000062,28.151523060747990712
0.227000000000000063,27.640758003832122114
0.228000000000000064,27.136683402210469040
0.229000000000000065,26.639594438211254612
0.230000000000000066,26.149788889095923139
0.231000000000000066,25.667561474144861222
0.232000000000000067,25.193198768293378009
0.233000000000000068,24.726974689500210047
0.234000000000000069,24.269146557985155965
0.235000000000000070,23.819951717719671791
0.236000000000000071,23.379604704020106709
0.237000000000000072,22.948294935695450647
0.238000000000000073,22.526184905852840501
0.239000000000000073,22.113408842072942662
0.240000000000000074,21.710071804139754903
0.241000000000000075,21.316249185757534690
0.242000000000000076,20.931986585619092978
0.243000000000000077,20.557300012721135829
0.244000000000000078,20.192176390872592862
0.245000000000000079,19.836574327833798037
0.246000000000000080,19.490425115389264477
0.247000000000000081,19.153633927827147687
0.248000000000000081,18.826081187717505827
0.249000000000000082,18.507624069493576968
0.250000000000000111,18.198098113098645001
0.251000000000000112,17.897318921821884885
0.252000000000000113,17.605083920373182593
0.253000000000000114,17.321174151205955383
0.254000000000000115,17.045356089060383908
0.255000000000000115,16.777383455642500110
0.256000000000000116,16.516999018258371024
0.257000000000000117,16.263936358068647792
0.258000000000000118,16.017921595404835955
0.259000000000000119,15.778675061283678360
0.260000000000000120,15.545912905861024811
0.261000000000000121,15.319348636077204873
0.262000000000000122,15.098694576156697522
0.263000000000000123,14.883663245934616981
0.264000000000000123,14.673968653190007316
0.265000000000000124,14.469327497271814664
0.266000000000000125,14.269460282309413657
0.267000000000000126,14.074092339208011282
0.268000000000000127,13.882954756443243838
0.269000000000000128,13.695785220393222659
0.270000000000000129,13.512328766583564743
0.271000000000000130,13.332338443776441395
0.272000000000000131,13.155575893313843139
0.273000000000000131,12.981811846531646992
0.274000000000000132,12.810826543401173438
0.275000000000000133,12.642410075832506422
0.276000000000000134,12.476362659294590429
0.277000000000000135,12.312494836575949009
0.278000000000000136,12.150627617630545885
0.279000000000000137,11.990592559531680905
0.280000000000000138,11.832231790596390297
0.281000000000000139,11.675397982747808712
0.282000000000000139,11.519954276157887918
0.283000000000000140,11.365774160160480477
0.284000000000000141,11.212741314349662147
0.285000000000000142,11.060749413682760434
0.286000000000000143,10.909701901294850401
0.287000000000000144,10.759511732605256285
0.288000000000000145,10.610101094157680990
0.289000000000000146,10.461401100488453508
0.290000000000000147,10.313351472161858879
0.291000000000000147,10.165900197951877715
0.292000000000000148,10.019003183985294214
0.293000000000000149,9.872623892495900222
0.294000000000000150,9.726732972672811783
0.295000000000000151,9.581307885920161027
0.296000000000000152,9.436332527681537741
0.297000000000000153,9.291796847820943839
0.298000000000000154,9.147696471393985007
0.299000000000000155,9.004032321489180646
0.300000000000000155,8.860810245669975771
0.301000000000000156,8.718040647404068366
0.302000000000000157,8.575738123727917994
0.303000000000000158,8.433921110261888288
0.304000000000000159,8.292611534564649389
0.305000000000000160,8.151834478695148434
0.306000000000000161,8.011617851736430040
0.307000000000000162,7.871992072927757711
0.308000000000000163,7.732989765950291527
0.309000000000000163,7.594645464816453639
0.310000000000000164,7.456995331724331599
0.311000000000000165,7.320076887155845036
0.312000000000000166,7.183928752420625230
0.313000000000000167,7.048590404776827079
0.314000000000000168,6.914101945194678578
0.315000000000000169,6.780503878769009063
0.316000000000000170,6.647836907732201261
0.317000000000000171,6.516141736969669473
0.318000000000000171,6.385458891895246403
0.319000000000000172,6.255828548503416187
0.320000000000000173,6.127290375379888410
0.321000000000000174,5.999883387419982839
0.322000000000000175,5.873645810976531934
0.323000000000000176,5.748614960134860397
0.324000000000000177,5.624827123791448003
0.325000000000000178,5.502317463195526059
0.326000000000000179,5.381119919597937340
0.327000000000000179,5.261267131640079420
0.328000000000000180,5.142790362106234525
0.329000000000000181,5.025719433655838841
0.330000000000000182,4.910082673147512011
0.331000000000000183,4.795906864163947958
0.332000000000000184,4.683217207345917288
0.333000000000000185,4.572037288144517042
0.334000000000000186,4.462389051603002699
0.335000000000000187,4.354292783783352938
0.336000000000000187,4.247767099457470330
0.337000000000000188,4.142828935689180980
0.338000000000000189,4.039493550939878830
0.339000000000000190,3.937774529338639695
0.340000000000000191,3.837683789766246800
0.341000000000000192,3.739231599411608098
0.342000000000000193,3.642426591468881814
0.343000000000000194,3.547275786653762086
0.344000000000000195,3.453784618228140424
0.345000000000000195,3.361956960232785008
0.346000000000000196,3.271795158639270173
0.347000000000000197,3.183300065143260138
0.348000000000000198,3.096471073332742741
0.349000000000000199,3.011306156976218062
0.350000000000000200,2.927801910187127099
0.351000000000000201,2.845953589232276038
0.352000000000000202,2.765755155763174766
0.353000000000000203,2.687199321260409057
0.354000000000000203,2.610277592492057153
0.355000000000000204,2.534980317798114502
0.356000000000000205,2.461296734023356692
0.357000000000000206,2.389215013931393461
0.358000000000000207,2.318722313943045954
0.359000000000000208,2.249804822051735265
0.360000000000000209,2.182447805778263472
0.361000000000000210,2.116635660036809696
0.362000000000000210,2.052351954792693611
0.363000000000000211,1.989579482401361954
0.364000000000000212,1.928300304526358477
0.365000000000000213,1.868495798542088027
0.366000000000000214,1.810146703335016927
0.367000000000000215,1.753233164424347734
0.368000000000000216,1.697734778330264316
0.369000000000000217,1.643630636124881139
0.370000000000000218,1.590899366107225266
0.371000000000000218,1.539519175550109864
0.372000000000000219,1.489467891472362915
0.373000000000000220,1.440723000395662812
0.374000000000000221,1.393261687050477704
0.375000000000000222,1.347060872000705345
0.376000000000000223,1.302097248161137477
0.377000000000000224,1.258347316186666953
0.378000000000000225,1.215787418716120394
0.379000000000000226,1.174393773457707235
0.380000000000000226,1.134142505106610299
0.381000000000000227,1.095009676089004902
0.382000000000000228,1.056971316129694305
0.383000000000000229,1.020003450643823806
0.384000000000000230,0.984082127955851815
0.385000000000000231,0.949183445351454602
0.386000000000000232,0.915283573970674169
0.387000000000000233,0.882358782552530863
0.388000000000000234,0.850385460043655117
0.389000000000000234,0.819340137085061704
0.390000000000000235,0.789199506393122974
0.391000000000000236,0.759940442052144838
0.392000000000000237,0.731540017737447590
0.393000000000000238,0.703975523889010746
0.394000000000000239,0.677224483856947224
0.395000000000000240,0.651264669040912958
0.396000000000000241,0.626074113046524161
0.397000000000000242,0.601631124882571311
0.398000000000000242,0.577914301223370286
0.399000000000000243,0.554902537761284398
0.400000000000000244,0.532575039674713646
0.401000000000000245,0.510911331237275168
0.402000000000000246,0.489891264594246700
0.403000000000000247,0.469495027732323489
0.404000000000000248,0.449703151669053447
0.405000000000000249,0.430496516888240754
0.406000000000000250,0.411856359047653942
0.407000000000000250,0.393764273985232782
0.408000000000000251,0.376202222049920820
0.409000000000000252,0.359152531783042073
0.410000000000000253,0.342597902975892876
0.411000000000000254,0.326521409128997631
0.412000000000000255,0.310906499338152675
0.413000000000000256,0.295736999631973307
0.414000000000000257,0.280997113785471042
0.415000000000000258,0.266671423633504823
0.416000000000000258,0.252744888907844023
0.417000000000000259,0.239202846620844234
0.418000000000000260,0.226031010018493989
0.419000000000000261,0.213215467124922314
0.420000000000000262,0.200742678900127647
0.421000000000000263,0.188599477031998586
0.422000000000000264,0.176773061383353608
0.423000000000000265,0.165250997114043396
0.424000000000000266,0.154021211497670563
0.425000000000000266,0.143071990452013298
0.426000000000000267,0.132391974801539664
0.427000000000000268,0.121970156289983228
0.428000000000000269,0.111795873360336431
0.429000000000000270,0.101858806719043418
0.430000000000000271,0.092148974700706737
0.431000000000000272,0.082656728448967584
0.432000000000000273,0.073372746928780791
0.433000000000000274,0.064288031784680524
0.434000000000000274,0.055393902059141666
0.435000000000000275,0.046681988784630049
0.436000000000000276,0.038144229462345983
0.437000000000000277,0.029772862440236803
0.438000000000000278,0.021560421202297397
0.439000000000000279,0.013499728580655202
0.440000000000000280,0.005583890901538569
0.441000000000000281,-0.002193707924326815
0.442000000000000282,-0.009839412356844790
0.443000000000000282,-0.017359301217466150
0.444000000000000283,-0.024759193706810380
0.445000000000000284,-0.032044655440171786
0.446000000000000285,-0.039221004492590361
0.447000000000000286,-0.046293317445664554
0.448000000000000287,-0.053266435428470739
0.449000000000000288,-0.060144970145619106
0.450000000000000289,-0.066933309885632647
0.451000000000000290,-0.073635625503333441
0.452000000000000290,-0.080255876370285723
0.453000000000000291,-0.086797816287585497
0.454000000000000292,-0.093264999355776465
0.455000000000000293,-0.099660785796880397
0.456000000000000294,-0.105988347723912121
0.457000000000000295,-0.112250674853546034
0.458000000000000296,-0.118450580157864138
0.459000000000000297,-0.124590705451473063
0.460000000000000298,-0.130673526910464854
0.461000000000000298,-0.136701360520040172
0.462000000000000299,-0.142676367447829688
0.463000000000000300,-0.148600559340177157
0.464000000000000301,-0.154475803538959344
0.465000000000000302,-0.160303828216648570
0.466000000000000303,-0.166086227427604677
0.467000000000000304,-0.171824466073801307
0.468000000000000305,-0.177519884783314125
0.469000000000000306,-0.183173704700179935
0.470000000000000306,-0.188787032184401210
0.471000000000000307,-0.194360863420941526
0.472000000000000308,-0.199896088936902833
0.473000000000000309,-0.205393498026088139
0.474000000000000310,-0.210853783080345553
0.475000000000000311,-0.216277543827283342
0.476000000000000312,-0.221665291473998771
0.477000000000000313,-0.227017452756683419
0.478000000000000314,-0.232334373895975194
0.479000000000000314,-0.237616324458201550
0.480000000000000315,-0.242863501122585784
0.481000000000000316,-0.248076031354762000
0.482000000000000317,-0.253253976986906548
0.483000000000000318,-0.258397337704996732
0.484000000000000319,-0.263506054443691573
0.485000000000000320,-0.268580012689496606
0.486000000000000321,-0.273619045692910123
0.487000000000000322,-0.278622937590320752
0.488000000000000322,-0.283591426436464122
0.489000000000000323,-0.288524207148419254
0.490000000000000324,-0.293420934362024544
0.491000000000000325,-0.298281225201772915
0.492000000000000326,-0.303104661965217737
0.493000000000000327,-0.307890794723033268
0.494000000000000328,-0.312639143835828026
0.495000000000000329,-0.317349202388962193
0.496000000000000330,-0.322020438546491650
0.497000000000000330,-0.326652297825628435
0.498000000000000331,-0.331244205292825944
0.499000000000000332,-0.335795567682949048
0.500000000000000333,-0.340305775442768854
0.501000000000000334,-0.344774204700112163
0.502000000000000335,-0.349200219160103686
0.503000000000000336,-0.353583171929790108
0.504000000000000337,-0.357922407272600940
0.505000000000000338,-0.362217262293980657
0.506000000000000338,-0.366467068559647946
0.507000000000000339,-0.370671153647859186
0.508000000000000340,-0.374828842637073445
0.509000000000000341,-0.378939459530492850
0.510000000000000342,-0.383002328618797183
0.511000000000000343,-0.387016775782581868
0.512000000000000344,-0.390982129735815864
0.513000000000000345,-0.394897723211777074
0.514000000000000346,-0.398762894092860309
0.515000000000000346,-0.402576986485602084
0.516000000000000347,-0.406339351742334542
0.517000000000000348,-0.410049349430849808
0.518000000000000349,-0.413706348253377432
0.519000000000000350,-0.417309726916295531
0.520000000000000351,-0.420858874951825446
0.521000000000000352,-0.424353193493118286
0.522000000000000353,-0.427792096003945854
0.523000000000000353,-0.431175008964364337
0.524000000000000354,-0.434501372513579232
0.525000000000000355,-0.437770641051283327
0.526000000000000356,-0.440982283798692198
0.527000000000000357,-0.444135785320535326
0.528000000000000358,-0.447230646009169175
0.529000000000000359,-0.450266382532026721
0.530000000000000360,-0.453242528243537279
0.531000000000000361,-0.456158633562714133
0.532000000000000361,-0.459014266317496644
0.533000000000000362,-0.461809012056974055
0.534000000000000363,-0.464542474332576449
0.535000000000000364,-0.467214274949320107
0.536000000000000365,-0.469824054188117901
0.537000000000000366,-0.472371471000240462
0.538000000000000367,-0.474856203174861435
0.539000000000000368,-0.477277947480777176
0.540000000000000369,-0.479636419783158019
0.541000000000000369,-0.481931355136387740
0.542000000000000370,-0.484162507853809543
0.543000000000000371,-0.486329651555393039
0.544000000000000372,-0.488432579194126137
0.545000000000000373,-0.490471103062054214
0.546000000000000374,-0.492445054776779745
0.547000000000000375,-0.494354285249261616
0.548000000000000376,-0.496198664633732800
0.549000000000000377,-0.497978082260500443
0.550000000000000377,-0.499692446552432945
0.551000000000000378,-0.501341684925820541
0.552000000000000379,-0.502925743676432058
0.553000000000000380,-0.504444587851379245
0.554000000000000381,-0.505898201107544354
0.555000000000000382,-0.507286585557254921
0.556000000000000383,-0.508609761601776955
0.557000000000000384,-0.509867767753391932
0.558000000000000385,-0.511060660446542747
0.559000000000000385,-0.512188513838757298
0.560000000000000386,-0.513251419601884251
0.561000000000000387,-0.514249486704207115
0.562000000000000388,-0.515182841183998819
0.563000000000000389,-0.516051625915071810
0.564000000000000390,-0.516856000364793622
0.565000000000000391,-0.517596140345115030
0.566000000000000392,-0.518272237757064325
0.567000000000000393,-0.518884500329230725
0.568000000000000393,-0.519433151350605860
0.569000000000000394,-0.519918429398313897
0.570000000000000395,-0.520340588060618336
0.571000000000000396,-0.520699895655589051
0.572000000000000397,-0.520996634945902315
0.573000000000000398,-0.521231102850076011
0.574000000000000399,-0.521403610150578567
0.575000000000000400,-0.521514481199127911
0.576000000000000401,-0.521564053619529622
0.577000000000000401,-0.521552678008437853
0.578000000000000402,-0.521480717634276170
0.579000000000000403,-0.521348548134677126
0.580000000000000404,-0.521156557212772875
0.581000000000000405,-0.520905144332516334
0.582000000000000406,-0.520594720413428136
0.583000000000000407,-0.520225707524934577
0.584000000000000408,-0.519798538580617309
0.585000000000000409,-0.519313657032579479
0.586000000000000409,-0.518771516566158608
0.587000000000000410,-0.518172580795261739
0.588000000000000411,-0.517517322958432446
0.589000000000000412,-0.516806225615984438
0.590000000000000413,-0.516039780348268473
0.591000000000000414,-0.515218487455349594
0.592000000000000415,-0.514342855658233011
0.593000000000000416,-0.513413401801799285
0.594000000000000417,-0.512430650559624778
0.595000000000000417,-0.511395134140864904
0.596000000000000418,-0.510307391999253679
0.597000000000000419,-0.509167970544492032
0.598000000000000420,-0.507977422856013994
0.599000000000000421,-0.506736308399368340
0.600000000000000422,-0.505445192745260785
0.601000000000000423,-0.504104647291376606
0.602000000000000424,-0.502715248987127050
0.603000000000000425,-0.501277580061371020
0.604000000000000425,-0.499792227753201090
0.605000000000000426,-0.498259784045915310
0.606000000000000427,-0.496680845404247617
0.607000000000000428,-0.495056012514847210
0.608000000000000429,-0.493385890030242247
0.609000000000000430,-0.491671086316149641
0.610000000000000431,-0.489912213202369551
0.611000000000000432,-0.488109885737189830
0.612000000000000433,-0.486264721945408429
0.613000000000000433,-0.484377342590015858
0.614000000000000434,-0.482448370937561766
0.615000000000000435,-0.480478432527237209
