# TricalciumAluminate-Wet-010_BSAI7
# h[nm],U(h)[kJ/mol]
0.149999999999999994,106.581979082855312413
0.150999999999999995,105.410498792490642472
0.151999999999999996,103.457559090321908002
0.152999999999999997,101.358404774876916576
0.153999999999999998,99.357426114477149781
0.154999999999999999,97.509676068431048179
0.156000000000000000,95.792109759399764357
0.157000000000000001,94.160675440782227952
0.158000000000000002,92.576168618027011803
0.159000000000000002,91.013048321285879183
0.160000000000000003,89.459754247383358461
0.161000000000000004,87.915451618492454600
0.162000000000000005,86.385877747024352402
0.163000000000000006,84.879600662902262798
0.164000000000000007,83.405208472866362968
0.165000000000000008,81.969516380304213499
0.166000000000000009,80.576666659664411441
0.167000000000000010,79.227914571917111175
0.168000000000000010,77.921882473749320752
0.169000000000000011,76.655089433205816363
0.170000000000000012,75.422603146475964309
0.171000000000000013,74.218702759419699078
0.172000000000000014,73.037479070904979039
0.173000000000000015,71.873329821797625527
0.174000000000000016,70.721331705811877555
0.175000000000000017,69.577487842633132686
0.176000000000000018,68.438860720109460090
0.177000000000000018,67.303607203035099360
0.178000000000000019,66.170935256715821993
0.179000000000000020,65.041002552247320523
0.180000000000000021,63.914775946841224652
0.181000000000000022,62.793868631496607691
0.182000000000000023,61.680369012985387656
0.183000000000000024,60.576672510753169831
0.184000000000000025,59.485324650087683551
0.185000000000000026,58.408881278010269966
0.186000000000000026,57.349789505883428831
0.187000000000000027,56.310291130208142363
0.188000000000000028,55.292348802636674066
0.189000000000000029,54.297594090653127807
0.190000000000000030,53.327295756357194989
0.191000000000000031,52.382346039744277277
0.192000000000000032,51.463262419839153949
0.193000000000000033,50.570202198009496897
0.194000000000000034,49.702987261865260393
0.195000000000000034,48.861136508795375732
0.196000000000000035,48.043903603807066816
0.197000000000000036,47.250317990382583844
0.198000000000000037,46.479227343905073155
0.199000000000000038,45.729339937694248874
0.200000000000000039,44.999265668708119392
0.201000000000000040,44.287554753874921687
0.202000000000000041,43.592733352123794077
0.203000000000000042,42.913335587217446232
0.204000000000000042,42.247931640137984743
0.205000000000000043,41.595151746254913405
0.206000000000000044,40.953706072182406217
0.207000000000000045,40.322400561335342672
0.208000000000000046,39.700148927525297893
0.209000000000000047,39.085981044680032426
0.210000000000000048,38.479048030306287842
0.211000000000000049,37.878624353102409827
0.212000000000000050,37.284107313589451849
0.213000000000000050,36.695014253096140067
0.214000000000000051,36.110977843074280713
0.215000000000000052,35.531739795530405956
0.216000000000000053,34.957143318120891706
0.217000000000000054,34.387124615751304191
0.218000000000000055,33.821703715714171778
0.219000000000000056,33.260974866664867022
0.220000000000000057,32.705096734048133555
0.221000000000000058,32.154282586762647611
0.222000000000000058,31.608790642527697656
0.223000000000000059,31.068914713111791315
0.224000000000000060,30.534975265676131073
0.225000000000000061,30.007310993258624165
0.226000000000000062,29.486270966060214249
0.227000000000000063,28.972207415806444430
0.228000000000000064,28.465469188087848096
0.229000000000000065,27.966395882227857328
0.230000000000000066,27.475312684840485389
0.231000000000000066,26.992525891742229049
0.232000000000000067,26.518319103172643736
0.233000000000000068,26.052950069236622710
0.234000000000000069,25.596648155978073191
0.235000000000000070,25.149612397394900398
0.236000000000000071,24.712010094869754084
0.237000000000000072,24.283975922782833123
0.238000000000000073,23.865611497359694226
0.239000000000000073,23.456985364959709983
0.240000000000000074,23.058133365907448109
0.241000000000000075,22.669059330499468530
0.242000000000000076,22.289736064874528410
0.243000000000000077,21.920106585922674469
0.244000000000000078,21.560085566240250188
0.245000000000000079,21.209560952235346321
0.246000000000000080,20.868395720782594083
0.247000000000000081,20.536429742255879916
0.248000000000000081,20.213481720279528275
0.249000000000000082,19.899351181086920803
0.250000000000000111,19.593820487920392992
0.251000000000000112,19.296656858415676794
0.252000000000000113,19.007614365359884800
0.253000000000000114,18.726435903573261044
0.254000000000000115,18.452855107922321309
0.255000000000000115,18.186598209614068367
0.256000000000000116,17.927385819936613842
0.257000000000000117,17.674934632494412767
0.258000000000000118,17.428959036733285615
0.259000000000000119,17.189172637158542045
0.260000000000000120,16.955289674119974563
0.261000000000000121,16.727026343373101014
0.262000000000000122,16.504102012827953416
0.263000000000000123,16.286240335972276938
0.264000000000000123,16.073170262407963094
0.265000000000000124,15.864626946775899796
0.266000000000000125,15.660352558070462337
0.267000000000000126,15.460096991967953173
0.268000000000000127,15.263618489320105454
0.269000000000000128,15.070684164402004868
0.270000000000000129,14.881070446859538947
0.271000000000000130,14.694563441582539909
0.272000000000000131,14.510959210942562692
0.273000000000000131,14.330063983985334986
0.274000000000000132,14.151694297263693656
0.275000000000000133,13.975677072042937965
0.276000000000000134,13.801849632613485852
0.277000000000000135,13.630059670409796269
0.278000000000000136,13.460165158565644106
0.279000000000000137,13.292034221437774022
0.280000000000000138,13.125544963508307461
0.281000000000000139,12.960585261933257328
0.282000000000000139,12.797052526845625664
0.283000000000000140,12.634853433348386176
0.284000000000000141,12.473903628949798872
0.285000000000000142,12.314127420002296986
0.286000000000000143,12.155457440509973566
0.287000000000000144,11.997834306470389620
0.288000000000000145,11.841206258715484267
0.289000000000000146,11.685528797016541347
0.290000000000000147,11.530764308019458397
0.291000000000000147,11.376881689381777463
0.292000000000000148,11.223855972291815419
0.293000000000000149,11.071667944364758540
0.294000000000000150,10.920303774730658830
0.295000000000000151,10.769754642956103297
0.296000000000000152,10.620016373275197097
0.297000000000000153,10.471089075446693428
0.298000000000000154,10.322976793402952822
0.299000000000000155,10.175687162713341394
0.300000000000000155,10.029231077749253487
0.301000000000000156,9.883622369310913314
0.302000000000000157,9.738877493356495663
0.303000000000000158,9.595015231363081654
0.304000000000000159,9.452056402744947405
0.305000000000000160,9.310023589658829479
0.306000000000000161,9.168940874437041089
0.307000000000000162,9.028833589807566895
0.308000000000000163,8.889728081985825980
0.309000000000000163,8.751651486654555612
0.310000000000000164,8.614631517786506265
0.311000000000000165,8.478696269208963798
0.312000000000000166,8.343874028759135086
0.313000000000000167,8.210193104834884181
0.314000000000000168,8.077681665105799880
0.315000000000000169,7.946367587115167552
0.316000000000000170,7.816278320473136532
0.317000000000000171,7.687440760315676691
0.318000000000000171,7.559881131682070432
0.319000000000000172,7.433624884445329428
0.320000000000000173,7.308696598415242995
0.321000000000000174,7.185119898222066759
0.322000000000000175,7.062917377580018474
0.323000000000000176,6.942110532523680710
0.324000000000000177,6.822719703206631792
0.325000000000000178,6.704764023850147581
0.326000000000000179,6.588261380430211034
0.327000000000000179,6.473228375693418357
0.328000000000000180,6.359680301096148014
0.329000000000000181,6.247631115266702118
0.330000000000000182,6.137093428596697819
0.331000000000000183,6.028078493575590002
0.332000000000000184,5.920596200490987115
0.333000000000000185,5.814655078126774512
0.334000000000000186,5.710262299101371397
0.335000000000000187,5.607423689499137609
0.336000000000000187,5.506143742459288504
0.337000000000000188,5.406425635398438345
0.338000000000000189,5.308271250554708942
0.339000000000000190,5.211681198553636207
0.340000000000000191,5.116654844708577343
0.341000000000000192,5.023190337780535586
0.342000000000000193,4.931284640934939567
0.343000000000000194,4.840933564645229836
0.344000000000000195,4.752131801305624847
0.345000000000000195,4.664872961327295897
0.346000000000000196,4.579149610504599899
0.347000000000000197,4.494953308449530560
0.348000000000000198,4.412274647904362190
0.349000000000000199,4.331103294753626543
0.350000000000000200,4.251428028567723949
0.351000000000000201,4.173236783521115711
0.352000000000000202,4.096516689538598932
0.353000000000000203,4.021254113533109908
0.354000000000000203,3.947434700608333458
0.355000000000000204,3.875043415108878175
0.356000000000000205,3.804064581409670520
0.357000000000000206,3.734481924344950077
0.358000000000000207,3.666278609185766868
0.359000000000000208,3.599437281082608742
0.360000000000000209,3.533940103897494911
0.361000000000000210,3.469768798357267592
0.362000000000000210,3.406904679466485675
0.363000000000000211,3.345328693125137587
0.364000000000000212,3.285021451902409240
0.365000000000000213,3.225963269923814103
0.366000000000000214,3.168134196834459182
0.367000000000000215,3.111514050806532872
0.368000000000000216,3.056082450563945674
0.369000000000000217,3.001818846401938856
0.370000000000000218,2.948702550183512461
0.371000000000000218,2.896712764298918774
0.372000000000000219,2.845828609578040069
0.373000000000000220,2.796029152149126951
0.374000000000000221,2.747293429240673213
0.375000000000000222,2.699600473926289546
0.376000000000000223,2.652929338815062543
0.377000000000000224,2.607259118692825339
0.378000000000000225,2.562568972121838318
0.379000000000000226,2.518838142008828829
0.380000000000000226,2.476045975153081891
0.381000000000000227,2.434171940788389943
0.382000000000000228,2.393195648134008646
0.383000000000000229,2.353096862971483905
0.384000000000000230,2.313855523265441860
0.385000000000000231,2.275451753847531844
0.386000000000000232,2.237865880183961487
0.387000000000000233,2.201078441247712902
0.388000000000000234,2.165070201517551585
0.389000000000000234,2.129822162126405960
0.390000000000000235,2.095315571182413183
0.391000000000000236,2.061531933286272711
0.392000000000000237,2.028453018268983499
0.393000000000000238,1.996060869174255403
0.394000000000000239,1.964337809510152910
0.395000000000000240,1.933266449794561748
0.396000000000000241,1.902829693419163082
0.397000000000000242,1.873010741856593997
0.398000000000000242,1.843793099235308430
0.399000000000000243,1.815160576306661167
0.400000000000000244,1.787097293828382005
0.401000000000000245,1.759587685388477096
0.402000000000000246,1.732616499693368173
0.403000000000000247,1.706168802343577706
0.404000000000000248,1.680229977120137885
0.405000000000000249,1.654785726804360646
0.406000000000000250,1.629822073553317763
0.407000000000000250,1.605325358852832007
0.408000000000000251,1.581282243069439764
0.409000000000000252,1.557679704622241923
0.410000000000000253,1.534505038795087817
0.411000000000000254,1.511745856209056438
0.412000000000000255,1.489390080974696273
0.413000000000000256,1.467425948542862013
0.414000000000000257,1.445842003272663323
0.415000000000000258,1.424627095734233739
0.416000000000000258,1.403770379763781273
0.417000000000000259,1.383261309287581842
0.418000000000000260,1.363089634931244243
0.419000000000000261,1.343245400429864400
0.420000000000000262,1.323718938854311578
0.421000000000000263,1.304500868668189373
0.422000000000000264,1.285582089629651259
0.423000000000000265,1.266953778551583198
0.424000000000000266,1.248607384933206443
0.425000000000000266,1.230534626475698445
0.426000000000000267,1.212727484493779873
0.427000000000000268,1.195178199234881555
0.428000000000000269,1.177879265116899665
0.429000000000000270,1.160823425895108452
0.430000000000000271,1.144003669768360432
0.431000000000000272,1.127413224434163919
0.432000000000000273,1.111045552101894707
0.433000000000000274,1.094894344472824299
0.434000000000000274,1.078953517695332431
0.435000000000000275,1.063217207303204015
0.436000000000000276,1.047679763144487852
0.437000000000000277,1.032335744308042313
0.438000000000000278,1.017179914054485712
0.439000000000000279,1.002207234757882981
0.440000000000000280,0.987412862864163521
0.441000000000000281,0.972792143871937243
0.442000000000000282,0.958340607340916528
0.443000000000000282,0.944053961933036589
0.444000000000000283,0.929928090490807158
0.445000000000000284,0.915959045157327956
0.446000000000000285,0.902143042541986295
0.447000000000000286,0.888476458935570035
0.448000000000000287,0.874955825578377144
0.449000000000000288,0.861577823984445823
0.450000000000000289,0.848339281324970051
0.451000000000000290,0.835237165873595644
0.452000000000000290,0.822268582516074376
0.453000000000000291,0.809430768326622085
0.454000000000000292,0.796721088212967499
0.455000000000000293,0.784137030632006238
0.456000000000000294,0.771676203377698711
0.457000000000000295,0.759336329442677704
0.458000000000000296,0.747115242954894176
0.459000000000000297,0.735010885190399033
0.460000000000000298,0.723021300663235889
0.461000000000000298,0.711144633293256723
0.462000000000000299,0.699379122652520335
0.463000000000000300,0.687723100290811407
0.464000000000000301,0.676174986140645307
0.465000000000000302,0.664733285002057750
0.466000000000000303,0.653396583107312745
0.467000000000000304,0.642163544765557037
0.468000000000000305,0.631032909087384075
0.469000000000000306,0.620003486789122316
0.470000000000000306,0.609074157076554101
0.471000000000000307,0.598243864607810760
0.472000000000000308,0.587511616534906467
0.473000000000000309,0.576876479623472993
0.474000000000000310,0.566337577450101826
0.475000000000000311,0.555894087676628290
0.476000000000000312,0.545545239400690329
0.477000000000000313,0.535290310581733708
0.478000000000000314,0.525128625541727345
0.479000000000000314,0.515059552539633869
0.480000000000000315,0.505082501418792740
0.481000000000000316,0.495196921326210404
0.482000000000000317,0.485402298502803142
0.483000000000000318,0.475698154143524288
0.484000000000000319,0.466084042326356474
0.485000000000000320,0.456559548009058958
0.486000000000000321,0.447124285092553808
0.487000000000000322,0.437777894549825075
0.488000000000000322,0.428520042619204955
0.489000000000000323,0.419350419060807167
0.490000000000000324,0.410268735474991098
0.491000000000000325,0.401274723681622203
0.492000000000000326,0.392368134158943394
0.493000000000000327,0.383548734540814173
0.494000000000000328,0.374816308171136536
0.495000000000000329,0.366170652714194078
0.496000000000000330,0.357611578819747422
0.497000000000000330,0.349138908841559292
0.498000000000000331,0.340752475608256222
0.499000000000000332,0.332452121245166765
0.500000000000000333,0.324237696046009272
0.501000000000000334,0.316109057393203163
0.502000000000000335,0.308066068725550313
0.503000000000000336,0.300108598552151384
0.504000000000000337,0.292236519511310799
0.505000000000000338,0.284449707473296010
0.506000000000000338,0.276748040685750873
0.507000000000000339,0.269131398960605450
0.508000000000000340,0.261599662901380703
0.509000000000000341,0.254152713169671141
0.510000000000000342,0.246790429789788712
0.511000000000000343,0.239512691490364332
0.512000000000000344,0.232319375081901924
0.513000000000000345,0.225210354869160051
0.514000000000000346,0.218185502097301504
0.515000000000000346,0.211244684430801882
0.516000000000000347,0.204387765464079829
0.517000000000000348,0.197614604262801613
0.518000000000000349,0.190925054934936389
0.519000000000000350,0.184318966230524073
0.520000000000000351,0.177796181169259354
0.521000000000000352,0.171356536694877992
0.522000000000000353,0.164999863355520110
0.523000000000000353,0.158725985009076531
0.524000000000000354,0.152534718552695681
0.525000000000000355,0.146425873675553542
0.526000000000000356,0.140399252634062888
0.527000000000000357,0.134454650048661917
0.528000000000000358,0.128591852721400418
0.529000000000000359,0.122810639473504346
0.530000000000000360,0.117110781002180309
0.531000000000000361,0.111492039755853783
0.532000000000000361,0.105954169827142411
0.533000000000000362,0.100496916862825719
0.534000000000000363,0.095120017990116795
0.535000000000000364,0.089823201758523583
0.536000000000000365,0.084606188096682453
0.537000000000000366,0.079468688283447761
0.538000000000000367,0.074410404932678920
0.539000000000000368,0.069431031991012637
0.540000000000000369,0.064530254748126861
0.541000000000000369,0.059707749858804185
0.542000000000000370,0.054963185376335211
0.543000000000000371,0.050296220796606207
0.544000000000000372,0.045706507112415397
0.545000000000000373,0.041193686877444832
0.546000000000000374,0.036757394279408828
0.547000000000000375,0.032397255221889222
0.548000000000000376,0.028112887414359057
0.549000000000000377,0.023903900469963213
0.550000000000000377,0.019769896010573752
0.551000000000000378,0.015710467778739634
0.552000000000000379,0.011725201756040859
0.553000000000000380,0.007813676287512738
0.554000000000000381,0.003975462211706004
0.555000000000000382,0.000210122995990236
0.556000000000000383,-0.003482785123196974
0.557000000000000384,-0.007103712995611178
0.558000000000000385,-0.010653118408209950
0.559000000000000385,-0.014131465932315257
0.560000000000000386,-0.017539226767225503
0.561000000000000387,-0.020876878580561531
0.562000000000000388,-0.024144905345665112
0.563000000000000389,-0.027343797176348904
0.564000000000000390,-0.030474050159232213
0.565000000000000391,-0.033536166183957064
0.566000000000000392,-0.036530652771524119
0.567000000000000393,-0.039458022901018665
0.568000000000000393,-0.042318794834904694
0.569000000000000394,-0.045113491943176223
0.570000000000000395,-0.047842642526548143
0.571000000000000396,-0.050506779638875440
0.572000000000000397,-0.053106440909059291
0.573000000000000398,-0.055642168362555401
0.574000000000000399,-0.058114508242730678
0.575000000000000400,-0.060524010832196162
0.576000000000000401,-0.062871230274292575
0.577000000000000401,-0.065156724394927784
0.578000000000000402,-0.067381054524849424
0.579000000000000403,-0.069544785322525879
0.580000000000000404,-0.071648484597817919
0.581000000000000405,-0.073692723136474764
0.582000000000000406,-0.075678074525676584
0.583000000000000407,-0.077605114980668827
0.584000000000000408,-0.079474423172638448
0.585000000000000409,-0.081286580057929811
0.586000000000000409,-0.083042168708671843
0.587000000000000410,-0.084741774144980048
0.588000000000000411,-0.086385983168711281
0.589000000000000412,-0.087975384198987913
0.590000000000000413,-0.089510567109443745
0.591000000000000414,-0.090992123067351563
0.592000000000000415,-0.092420644374667751
0.593000000000000416,-0.093796724311050086
0.594000000000000417,-0.095120956978917870
0.595000000000000417,-0.096393937150641568
0.596000000000000418,-0.097616260117829673
0.597000000000000419,-0.098788521542867574
0.598000000000000420,-0.099911317312647727
0.599000000000000421,-0.100985243394620491
0.600000000000000422,-0.102010895695139520
0.601000000000000423,-0.102988869920148843
0.602000000000000424,-0.103919761438272376
0.603000000000000425,-0.104804165146297507
0.604000000000000425,-0.105642675337071418
0.605000000000000426,-0.106435885569864080
0.606000000000000427,-0.107184388543210690
0.607000000000000428,-0.107888775970172365
0.608000000000000429,-0.108549638456187994
0.609000000000000430,-0.109167565379322817
0.610000000000000431,-0.109743144773113199
0.611000000000000432,-0.110276963211878992
0.612000000000000433,-0.110769605698558579
0.613000000000000433,-0.111221655555083648
0.614000000000000434,-0.111633694315255411
0.615000000000000435,-0.112006301620136764
0.616000000000000436,-0.112340055115944942
0.617000000000000437,-0.112635530354481969
0.618000000000000438,-0.112893300696026724
