# TricalciumAluminate-Wet-010_BSAI13
# h[nm],U(h)[kJ/mol]
0.149999999999999994,105.915944257826780017
0.150999999999999995,104.591992164821277811
0.151999999999999996,102.584245165898693131
0.152999999999999997,100.503439066804801882
0.153999999999999998,98.563586885948737404
0.154999999999999999,96.795237808635434362
0.156000000000000000,95.159890283963221691
0.157000000000000001,93.606265061203529854
0.158000000000000002,92.093879961875629192
0.159000000000000002,90.599421224719122847
0.160000000000000003,89.115028020987111290
0.161000000000000004,87.643598527493594474
0.162000000000000005,86.193771811817470052
0.163000000000000006,84.775788964351761479
0.164000000000000007,83.398621330420397157
0.165000000000000008,82.068330294151579096
0.166000000000000009,80.787433671742789443
0.167000000000000010,79.554997320519646564
0.168000000000000010,78.367183994540113190
0.169000000000000011,77.218036653824711379
0.170000000000000012,76.100328340769891611
0.171000000000000013,75.006363524755897743
0.172000000000000014,73.928660880298622260
0.173000000000000015,72.860482883472073468
0.174000000000000016,71.796203505684417223
0.175000000000000017,70.731522791033782482
0.176000000000000018,69.663547761778232825
0.177000000000000018,68.590764491373505507
0.178000000000000019,67.512927762444647328
0.179000000000000020,66.430893712271569029
0.180000000000000021,65.346418241149962114
0.181000000000000022,64.261940467252543385
0.182000000000000023,63.180366699365265504
0.183000000000000024,62.104866640781324350
0.184000000000000025,61.038690073907822864
0.185000000000000026,59.985009243316540051
0.186000000000000026,58.946789617313712029
0.187000000000000027,57.926689674100984462
0.188000000000000028,56.926988802804977752
0.189000000000000029,55.949541285377293320
0.190000000000000030,54.995753574806897745
0.191000000000000031,54.066581646566973518
0.192000000000000032,53.162545013131648375
0.193000000000000033,52.283753999347183594
0.194000000000000034,51.429947029096034328
0.195000000000000034,50.600534927612123681
0.196000000000000035,49.794649562663423126
0.197000000000000036,49.011194502104515891
0.198000000000000037,48.248895731793048469
0.199000000000000038,47.506350838912148049
0.200000000000000039,46.782075408513740911
0.201000000000000040,46.074545696798772099
0.202000000000000041,45.382236927799432635
0.203000000000000042,44.703656807883554336
0.204000000000000042,44.037374064068487201
0.205000000000000043,43.382041988257839193
0.206000000000000044,42.736417112043611155
0.207000000000000045,42.099373248247523804
0.208000000000000046,41.469911218958841914
0.209000000000000047,40.847164648749277660
0.210000000000000048,40.230402239346695126
0.211000000000000049,39.619026961597704428
0.212000000000000050,39.012572605140221071
0.213000000000000050,38.410698118715046689
0.214000000000000051,37.813180157067371567
0.215000000000000052,37.219904226241659728
0.216000000000000053,36.630854789779007774
0.217000000000000054,36.046104665619054686
0.218000000000000055,35.465804008856935070
0.219000000000000056,34.890169140118800328
0.220000000000000057,34.319471444179974640
0.221000000000000058,33.754026529333934548
0.222000000000000058,33.194183805517795349
0.223000000000000059,32.640316608750069349
0.224000000000000060,32.092812971334083727
0.225000000000000061,31.552067111713757441
0.226000000000000062,31.018471694926745386
0.227000000000000063,30.492410894297432122
0.228000000000000064,29.974254267302512744
0.229000000000000065,29.464351443327711166
0.230000000000000066,28.963027608189207740
0.231000000000000066,28.470579759658516394
0.232000000000000067,27.987273699635114355
0.233000000000000068,27.513341721874780887
0.234000000000000069,27.048980949117407135
0.235000000000000070,26.594352269882755024
0.236000000000000071,26.149579822935663742
0.237000000000000072,25.714750976290780216
0.238000000000000073,25.289916747469654013
0.239000000000000073,24.875092612386442426
0.240000000000000074,24.470259651582502158
0.241000000000000075,24.075365984428088950
0.242000000000000076,23.690328444243856865
0.243000000000000077,23.315034449964052499
0.244000000000000078,22.949344032874382293
0.245000000000000079,22.593091980031900334
0.246000000000000080,22.246090059141032214
0.247000000000000081,21.908129292860309079
0.248000000000000081,21.578982253698335114
0.249000000000000082,21.258405353783096814
0.250000000000000111,20.946141106821251299
0.251000000000000112,20.641920342477138917
0.252000000000000113,20.345464356172556109
0.253000000000000114,20.056486979923747072
0.254000000000000115,19.774696562277956247
0.255000000000000115,19.499797847684071428
0.256000000000000116,19.231493747724208276
0.257000000000000117,18.969486998546997825
0.258000000000000118,18.713481700579542633
0.259000000000000119,18.463184738157828235
0.260000000000000120,18.218307078110235864
0.261000000000000121,17.978564947562965415
0.262000000000000122,17.743680892316842090
0.263000000000000123,17.513384718081596247
0.264000000000000123,17.287414317654310025
0.265000000000000124,17.065516387803771892
0.266000000000000125,16.847447040180568933
0.267000000000000126,16.632972311024168732
0.268000000000000127,16.421868574791169237
0.269000000000000128,16.213922867094378688
0.270000000000000129,16.008933122526844528
0.271000000000000130,15.806708333058697491
0.272000000000000131,15.607068632745225045
0.273000000000000131,15.409845314478724632
0.274000000000000132,15.214880784463002072
0.275000000000000133,15.022028459992961658
0.276000000000000134,14.831152615990053079
0.277000000000000135,14.642128185582214073
0.278000000000000136,14.454840519830053580
0.279000000000000137,14.269185111493575491
0.280000000000000138,14.085067287511190415
0.281000000000000139,13.902401874627164702
0.282000000000000139,13.721112842360602357
0.283000000000000140,13.541132927259747376
0.284000000000000141,13.362403242133893855
0.285000000000000142,13.184872873703351814
0.286000000000000143,13.008498471857564027
0.287000000000000144,12.833243833465363792
0.288000000000000145,12.659079483439613867
0.289000000000000146,12.485982255524088913
0.290000000000000147,12.313934875042699346
0.291000000000000147,12.142925545632513362
0.292000000000000148,11.972947541772029467
0.293000000000000149,11.803998808716018587
0.294000000000000150,11.636081571258028333
0.295000000000000151,11.469201952561563829
0.296000000000000152,11.303369604131479065
0.297000000000000153,11.138597347837967177
0.298000000000000154,10.974900830756595838
0.299000000000000155,10.812298193449572992
0.300000000000000155,10.650809752184635215
0.301000000000000156,10.490457695469757482
0.302000000000000157,10.331265795172305033
0.303000000000000158,10.173259132391821780
0.304000000000000159,10.016463838164389344
0.305000000000000160,9.860906848994101637
0.306000000000000161,9.706615677132788278
0.307000000000000162,9.553618195462430407
0.308000000000000163,9.401942436775296841
0.309000000000000163,9.251616407194401148
0.310000000000000164,9.102667913430760649
0.311000000000000165,8.955124403533968547
0.312000000000000166,8.809012820758386653
0.313000000000000167,8.664359470138112584
0.314000000000000168,8.521189897339805697
0.315000000000000169,8.379528779342853895
0.316000000000000170,8.239399826480829248
0.317000000000000171,8.100825695366591361
0.318000000000000171,7.963827912215369231
0.319000000000000172,7.828426806074868516
0.320000000000000173,7.694641451469768079
0.321000000000000174,7.562489619968185472
0.322000000000000175,7.431987740180607815
0.323000000000000176,7.303150865706837358
0.324000000000000177,7.175992650553003394
0.325000000000000178,7.050525331549389207
0.326000000000000179,6.926759717309325382
0.327000000000000179,6.804705183280641556
0.328000000000000180,6.684369672453148503
0.329000000000000181,6.565759701298570228
0.330000000000000182,6.448880370533062845
0.331000000000000183,6.333735380306673157
0.332000000000000184,6.220327049438884259
0.333000000000000185,6.108656338334408353
0.334000000000000186,5.998722875228782669
0.335000000000000187,5.890524985428654325
0.336000000000000187,5.784059723227229277
0.337000000000000188,5.679322906190908071
0.338000000000000189,5.576309151528379360
0.339000000000000190,5.475011914268703705
0.340000000000000191,5.375423526990151579
0.341000000000000192,5.277535240855972809
0.342000000000000193,5.181337267728088669
0.343000000000000194,5.086818823143524071
0.344000000000000195,4.993968169952505143
0.345000000000000195,4.902772662430090023
0.346000000000000196,4.813218790686599746
0.347000000000000197,4.725292225214273500
0.348000000000000198,4.638977861419907534
0.349000000000000199,4.554259864004743363
0.350000000000000200,4.471121711064024673
0.351000000000000201,4.389546237789399008
0.352000000000000202,4.309515679667585530
0.353000000000000203,4.231011715078401458
0.354000000000000203,4.154015507204627866
0.355000000000000204,4.078507745175054211
0.356000000000000205,4.004468684370375620
0.357000000000000206,3.931878185829527528
0.358000000000000207,3.860715754701760094
0.359000000000000208,3.790960577696590228
0.360000000000000209,3.722591559490561419
0.361000000000000210,3.655587358056091141
0.362000000000000210,3.589926418883371717
0.363000000000000211,3.525587008071987327
0.364000000000000212,3.462547244273864067
0.365000000000000213,3.400785129474121593
0.366000000000000214,3.340278578600692327
0.367000000000000215,3.281005447957789922
0.368000000000000216,3.222943562482003976
0.369000000000000217,3.166070741823467927
0.370000000000000218,3.110364825257541987
0.371000000000000218,3.055803695435640233
0.372000000000000219,3.002365300986306274
0.373000000000000220,2.950027677980187946
0.374000000000000221,2.898768970274775647
0.375000000000000222,2.848567448756770926
0.376000000000000223,2.799401529501541752
0.377000000000000224,2.751249790871003853
0.378000000000000225,2.704090989572403014
0.379000000000000226,2.657904075701862379
0.380000000000000226,2.612668206797413628
0.381000000000000227,2.568362760927431321
0.382000000000000228,2.524967348840795545
0.383000000000000229,2.482461825206011330
0.384000000000000230,2.440826298966887187
0.385000000000000231,2.400041142842687769
0.386000000000000232,2.360087002001155732
0.387000000000000233,2.320944801932683710
0.388000000000000234,2.282595755554316153
0.389000000000000234,2.245021369571948533
0.390000000000000235,2.208203450129220258
0.391000000000000236,2.172124107771373325
0.392000000000000237,2.136765761752087212
0.393000000000000238,2.102111143711069108
0.394000000000000239,2.068143300749870850
0.395000000000000240,2.034845597932925187
0.396000000000000241,2.002201720240463167
0.397000000000000242,1.970195673999483477
0.398000000000000242,1.938811787818385257
0.399000000000000243,1.908034713050489994
0.400000000000000244,1.877849423810938223
0.401000000000000245,1.848241216571007595
0.402000000000000246,1.819195709353312651
0.403000000000000247,1.790698840550570381
0.404000000000000248,1.762736867390211071
0.405000000000000249,1.735296364066299279
0.406000000000000250,1.708364219559710850
0.407000000000000250,1.681927635166777124
0.408000000000000251,1.655974121755998452
0.409000000000000252,1.630491496771789839
0.410000000000000253,1.605467881003519226
0.411000000000000254,1.580891695137502939
0.412000000000000255,1.556751656108957604
0.413000000000000256,1.533036773270219699
0.414000000000000257,1.509736344391041651
0.415000000000000258,1.486839951505947166
0.416000000000000258,1.464337456623230338
0.417000000000000259,1.442218997309400397
0.418000000000000260,1.420474982162376554
0.419000000000000261,1.399096086186099042
0.420000000000000262,1.378073246078700409
0.421000000000000263,1.357397655445735207
0.422000000000000264,1.337060759949540545
0.423000000000000265,1.317054252405129855
0.424000000000000266,1.297370067832569918
0.425000000000000266,1.278000378475331100
0.426000000000000267,1.258937588793457962
0.427000000000000268,1.240174330440097838
0.428000000000000269,1.221703457229343037
0.429000000000000270,1.203518040102901754
0.430000000000000271,1.185611362102763522
0.431000000000000272,1.167976913356457258
0.432000000000000273,1.150608386081235057
0.433000000000000274,1.133499669613016181
0.434000000000000274,1.116644845465583291
0.435000000000000275,1.100038182425185251
0.436000000000000276,1.083674131685263831
0.437000000000000277,1.067547322025786061
0.438000000000000278,1.051652555041254100
0.439000000000000279,1.035984800421179797
0.440000000000000280,1.020539191286527814
0.441000000000000281,1.005311019585330978
0.442000000000000282,0.990295731550349223
0.443000000000000282,0.975488923221524473
0.444000000000000283,0.960886336035532862
0.445000000000000284,0.946483852484687582
0.446000000000000285,0.932277491847093742
0.447000000000000286,0.918263405989736770
0.448000000000000287,0.904437875246106637
0.449000000000000288,0.890797304369564613
0.450000000000000289,0.877338218563663674
0.451000000000000290,0.864057259590323978
0.452000000000000290,0.850951181956636660
0.453000000000000291,0.838016849180953871
0.454000000000000292,0.825251230138689840
0.455000000000000293,0.812651395488188433
0.456000000000000294,0.800214514176833092
0.457000000000000295,0.787937850027461750
0.458000000000000296,0.775818758405056985
0.459000000000000297,0.763854682963511222
0.460000000000000298,0.752043152472232190
0.461000000000000298,0.740381777722194490
0.462000000000000299,0.728868248510997185
0.463000000000000300,0.717500330706390743
0.464000000000000301,0.706275863387618941
0.465000000000000302,0.695192756063932049
0.466000000000000303,0.684248985969467705
0.467000000000000304,0.673442595433690894
0.468000000000000305,0.662771689326529190
0.469000000000000306,0.652234432577252887
0.470000000000000306,0.641829047766091954
0.471000000000000307,0.631553812787650992
0.472000000000000308,0.621407058584964811
0.473000000000000309,0.611387166953137551
0.474000000000000310,0.601492568411462036
0.475000000000000311,0.591721740142803099
0.476000000000000312,0.582073203999118549
0.477000000000000313,0.572545524571864473
0.478000000000000314,0.563137307326116443
0.479000000000000314,0.553847196797114583
0.480000000000000315,0.544673874848032424
0.481000000000000316,0.535616058987660959
0.482000000000000317,0.526672500746797390
0.483000000000000318,0.517841984112007436
0.484000000000000319,0.509123324015524070
0.485000000000000320,0.500515364880002034
0.486000000000000321,0.492016979216827188
0.487000000000000322,0.483627066276723749
0.488000000000000322,0.475344550751421124
0.489000000000000323,0.467168381525040755
0.490000000000000324,0.459097530474014082
0.491000000000000325,0.451130991314257990
0.492000000000000326,0.443267778494373210
0.493000000000000327,0.435506926133619576
0.494000000000000328,0.427847487003490290
0.495000000000000329,0.420288531551636868
0.496000000000000330,0.412829146967014171
0.497000000000000330,0.405468436284978917
0.498000000000000331,0.398205517531314279
0.499000000000000332,0.391039522903904480
0.500000000000000333,0.383969597991004163
0.501000000000000334,0.376994901025020424
0.502000000000000335,0.370114602170623030
0.503000000000000336,0.363327882846209316
0.504000000000000337,0.356633935077594055
0.505000000000000338,0.350031960882943416
0.506000000000000338,0.343521171687900584
0.507000000000000339,0.337100787769912480
0.508000000000000340,0.330770037730815591
0.509000000000000341,0.324528157996648470
0.510000000000000342,0.318374392343846790
0.511000000000000343,0.312307991450812561
0.512000000000000344,0.306328212474037187
0.513000000000000345,0.300434318647851473
0.514000000000000346,0.294625578906944074
0.515000000000000346,0.288901267530851436
0.516000000000000347,0.283260663809567714
0.517000000000000348,0.277703051729466743
0.518000000000000349,0.272227719678803881
0.519000000000000350,0.266833960171977580
0.520000000000000351,0.261521069591884092
0.521000000000000352,0.256288347949552076
0.522000000000000353,0.251135098660462908
0.523000000000000353,0.246060628336778608
0.524000000000000354,0.241064246594874187
0.525000000000000355,0.236145265877500815
0.526000000000000356,0.231303001289974441
0.527000000000000357,0.226536770449746794
0.528000000000000358,0.221845893348807360
0.529000000000000359,0.217229692228301019
0.530000000000000360,0.212687491464854939
0.531000000000000361,0.208218617468013706
0.532000000000000361,0.203822398588310527
0.533000000000000362,0.199498165035435104
0.534000000000000363,0.195245248806032445
0.535000000000000364,0.191062983620617910
0.536000000000000365,0.186950704869202011
0.537000000000000366,0.182907749565119265
0.538000000000000367,0.178933456306700350
0.539000000000000368,0.175027165246279759
0.540000000000000369,0.171188218066244235
0.541000000000000369,0.167415957961623507
0.542000000000000370,0.163709729628958023
0.543000000000000371,0.160068879260983621
0.544000000000000372,0.156492754546854435
0.545000000000000373,0.152980704677528168
0.546000000000000374,0.149532080356005903
0.547000000000000375,0.146146233812126214
0.548000000000000376,0.142822518821574457
0.549000000000000377,0.139560290728874159
0.550000000000000377,0.136358906474015107
0.551000000000000378,0.133217724622535810
0.552000000000000379,0.130136105398709845
0.553000000000000380,0.127113410721672593
0.554000000000000381,0.124149004244209341
0.555000000000000382,0.121242251393964606
0.556000000000000383,0.118392519416922276
0.557000000000000384,0.115599177422848559
0.558000000000000385,0.112861596432613842
0.559000000000000385,0.110179149427102163
0.560000000000000386,0.107551211397581239
0.561000000000000387,0.104977159397355996
0.562000000000000388,0.102456372594527154
0.563000000000000389,0.099988232325691997
0.564000000000000390,0.097572122150457158
0.565000000000000391,0.095207427906602263
0.566000000000000392,0.092893537765777662
0.567000000000000393,0.090629842289558948
0.568000000000000393,0.088415734485816008
0.569000000000000394,0.086250609865198766
0.570000000000000395,0.084133866497667659
0.571000000000000396,0.082064905068985297
0.572000000000000397,0.080043128936997818
0.573000000000000398,0.078067944187704380
0.574000000000000399,0.076138759690945648
0.575000000000000400,0.074254987155683044
0.576000000000000401,0.072416041184771712
0.577000000000000401,0.070621339329121582
0.578000000000000402,0.068870302141239917
0.579000000000000403,0.067162353228058011
0.580000000000000404,0.065496919302941270
0.581000000000000405,0.063873430236924142
0.582000000000000406,0.062291319109006746
0.583000000000000407,0.060750022255557909
0.584000000000000408,0.059248979318712404
0.585000000000000409,0.057787633293758890
0.586000000000000409,0.056365430575479304
0.587000000000000410,0.054981821003360555
0.588000000000000411,0.053636257905731066
0.589000000000000412,0.052328198142686855
0.590000000000000413,0.051057102147886280
0.591000000000000414,0.049822433969111658
0.592000000000000415,0.048623661307606592
0.593000000000000416,0.047460255556189643
0.594000000000000417,0.046331691836095437
0.595000000000000417,0.045237449032525509
0.596000000000000418,0.044177009828962679
0.597000000000000419,0.043149860740131774
0.598000000000000420,0.042155492143715077
0.599000000000000421,0.041193398310717597
0.600000000000000422,0.040263077434539420
0.601000000000000423,0.039364031658752172
0.602000000000000424,0.038495767103524058
0.603000000000000425,0.037657793890755943
0.604000000000000425,0.036849626167915470
0.605000000000000426,0.036070782130545376
0.606000000000000427,0.035320784043463650
0.607000000000000428,0.034599158260722601
0.608000000000000429,0.033905435244189333
0.609000000000000430,0.033239149580947633
0.610000000000000431,0.032599839999348887
0.611000000000000432,0.031987049383849032
0.612000000000000433,0.031400324788593073
0.613000000000000433,0.030839217449744681
0.614000000000000434,0.030303282796611909
0.615000000000000435,0.029792080461560743
0.616000000000000436,0.029305174288745996
0.617000000000000437,0.028842132341629301
0.618000000000000438,0.028402526909366364
0.619000000000000439,0.027985934512050659
0.620000000000000440,0.027591935904800580
