# TricalciumAluminate-Wet-010_ALA-AC
# h[nm],U(h)[kJ/mol]
0.149999999999999994,101.714074557628165962
0.150999999999999995,100.405687060475884209
0.151999999999999996,98.428505965593927840
0.152999999999999997,96.296779534452568328
0.153999999999999998,94.223690459032610534
0.154999999999999999,92.269496266603994172
0.156000000000000000,90.426083584003464466
0.157000000000000001,88.662436462331200460
0.158000000000000002,86.946848276880118078
0.159000000000000002,85.255906652283428571
0.160000000000000003,83.576449241333008899
0.161000000000000004,81.904195148254558489
0.162000000000000005,80.241165104774566430
0.163000000000000006,78.593011671399182205
0.164000000000000007,76.966782426732919475
0.165000000000000008,75.369294417487665783
0.166000000000000009,73.806113222047713407
0.167000000000000010,72.281042699730576828
0.168000000000000010,70.796001387593861409
0.169000000000000011,69.351162748895333721
0.170000000000000012,67.945253045879184128
0.171000000000000013,66.575922927499419757
0.172000000000000014,65.240131483455996886
0.173000000000000015,63.934501745722762678
0.174000000000000016,62.655623252435177051
0.175000000000000017,61.400290098748612877
0.176000000000000018,60.165672163525620419
0.177000000000000018,58.949423434931944144
0.178000000000000019,57.749735152867955890
0.179000000000000020,56.565343415717464381
0.180000000000000021,55.395501473696370454
0.181000000000000022,54.239926578723554940
0.182000000000000023,53.098730322895697498
0.183000000000000024,51.972340136066350169
0.184000000000000025,50.861418219849397815
0.185000000000000026,49.766782804952605090
0.186000000000000026,48.689335319323184592
0.187000000000000027,47.629995898821235301
0.188000000000000028,46.589648686241012854
0.189000000000000029,45.569097555779791264
0.190000000000000030,44.569032262942585021
0.191000000000000031,43.590004540619574414
0.192000000000000032,42.632413322295548141
0.193000000000000033,41.696498052592929184
0.194000000000000034,40.782338922915926105
0.195000000000000034,39.889862826115241035
0.196000000000000035,39.018853840802904642
0.197000000000000036,38.168967117311687787
0.198000000000000037,37.339745129683372227
0.199000000000000038,36.530635370131605555
0.200000000000000039,35.741008684950102747
0.201000000000000040,34.970177576573760803
0.202000000000000041,34.217413919931253474
0.203000000000000042,33.481965658320220314
0.204000000000000042,32.763072152013400284
0.205000000000000043,32.059977949920558160
0.206000000000000044,31.371944839960274720
0.207000000000000045,30.698262107065311000
0.208000000000000046,30.038254989164109077
0.209000000000000047,29.391291371616738104
0.210000000000000048,28.756786800250729641
0.211000000000000049,28.134207923306625787
0.212000000000000050,27.523074494318610306
0.213000000000000050,26.922960082301777618
0.214000000000000051,26.333491643659293402
0.215000000000000052,25.754348112981336527
0.216000000000000053,25.185258168336464024
0.217000000000000054,24.625997321628421588
0.218000000000000055,24.076384476892169317
0.219000000000000056,23.536278089727254326
0.220000000000000057,23.005572050014841068
0.221000000000000058,22.484191398158053232
0.222000000000000058,21.972087972750031781
0.223000000000000059,21.469236075175398781
0.224000000000000060,20.975628224471002170
0.225000000000000061,20.491271064041452377
0.226000000000000062,20.016181470714130342
0.227000000000000063,19.550382906253481963
0.228000000000000064,19.093902041919577073
0.229000000000000065,18.646765678000754463
0.230000000000000066,18.208997972498654150
0.231000000000000066,17.780617986292661215
0.232000000000000067,17.361637546142539179
0.233000000000000068,16.952059421766719538
0.234000000000000069,16.551875808916754806
0.235000000000000070,16.161067106801617399
0.236000000000000071,15.779600975343043956
0.237000000000000072,15.407431655502582757
0.238000000000000073,15.044499534252533834
0.239000000000000073,14.690730934604625091
0.240000000000000074,14.346038110400519017
0.241000000000000075,14.010319425252607317
0.242000000000000076,13.683459695044149385
0.243000000000000077,13.365330673705310360
0.244000000000000078,13.055791662527738595
0.245000000000000079,12.754690224021837608
0.246000000000000080,12.461862982217805751
0.247000000000000081,12.177136492328282102
0.248000000000000081,11.900328163795538927
0.249000000000000082,11.631247221911449330
0.250000000000000111,11.369695694398933128
0.251000000000000112,11.115469410559049024
0.252000000000000113,10.868359001798863162
0.253000000000000114,10.628150893548626854
0.254000000000000115,10.394628279737137433
0.255000000000000115,10.167572072114051451
0.256000000000000116,9.946761817777245440
0.257000000000000117,9.731976579276516048
0.258000000000000118,9.522995772618198629
0.259000000000000119,9.319599959383833010
0.260000000000000120,9.121571589999586394
0.261000000000000121,8.928695695950542799
0.262000000000000122,8.740760529424767000
0.263000000000000123,8.557558149498348143
0.264000000000000123,8.378884954534990825
0.265000000000000124,8.204542160975114129
0.266000000000000125,8.034336229131820772
0.267000000000000126,7.868079236997816750
0.268000000000000127,7.705589203401004283
0.269000000000000128,7.546690362131137420
0.270000000000000129,7.391213388897841519
0.271000000000000130,7.238995583175861448
0.272000000000000131,7.089881007149537950
0.273000000000000131,6.943720584088511671
0.274000000000000132,6.800372158574108816
0.275000000000000133,6.659700521053541600
0.276000000000000134,6.521577399230284122
0.277000000000000135,6.385881418806834908
0.278000000000000136,6.252498036082501542
0.279000000000000137,6.121319444877515892
0.280000000000000138,5.992244460207428958
0.281000000000000139,5.865178381070625058
0.282000000000000139,5.740032834639579917
0.283000000000000140,5.616725604064235711
0.284000000000000141,5.495180442006411425
0.285000000000000142,5.375326871928014505
0.286000000000000143,5.257099979055336547
0.287000000000000144,5.140440192837883338
0.288000000000000145,5.025293062613763517
0.289000000000000146,4.911609028086886042
0.290000000000000147,4.799343186113374848
0.291000000000000147,4.688455055188240905
0.292000000000000148,4.578908338917665688
0.293000000000000149,4.470670689659138830
0.294000000000000150,4.363713473410639310
0.295000000000000151,4.258011536932150065
0.296000000000000152,4.153542977988303520
0.297000000000000153,4.050288919509859475
0.298000000000000154,3.948233288384707329
0.299000000000000155,3.847362599505893765
0.300000000000000155,3.747665745625314848
0.301000000000000156,3.649133793487091104
0.302000000000000157,3.551759786644045569
0.303000000000000158,3.455538555294805469
0.304000000000000159,3.360466533417017843
0.305000000000000160,3.266541583414619421
0.306000000000000161,3.173762828443552397
0.307000000000000162,3.082130492530714694
0.308000000000000163,2.991645748555561646
0.309000000000000163,2.902310574121817588
0.310000000000000164,2.814127615308700037
0.311000000000000165,2.727100058256448190
0.312000000000000166,2.641231508509656045
0.313000000000000167,2.556525878013860442
0.314000000000000168,2.472987279635835201
0.315000000000000169,2.390619929055852744
0.316000000000000170,2.309428053860750563
0.317000000000000171,2.229415809649753832
0.318000000000000171,2.150587202950597465
0.319000000000000172,2.072946020731052830
0.320000000000000173,1.996495766280983020
0.321000000000000174,1.921239601231743865
0.322000000000000175,1.847180293473249524
0.323000000000000176,1.774320170724314583
0.324000000000000177,1.702661079508533959
0.325000000000000178,1.632204349286163092
0.326000000000000179,1.562950761491663565
0.327000000000000179,1.494900523227315814
0.328000000000000180,1.428053245364714119
0.329000000000000181,1.362407924808413551
0.330000000000000182,1.297962930679539273
0.331000000000000183,1.234715994180891840
0.332000000000000184,1.172664201910103454
0.333000000000000185,1.111803992392495610
0.334000000000000186,1.052131155611080171
0.335000000000000187,0.993640835317396998
0.336000000000000187,0.936327533913283161
0.337000000000000188,0.880185119700712226
0.338000000000000189,0.825206836303653546
0.339000000000000190,0.771385314073277484
0.340000000000000191,0.718712583295310736
0.341000000000000192,0.667180089025514400
0.342000000000000193,0.616778707387119152
0.343000000000000194,0.567498763171236154
0.344000000000000195,0.519330048589175419
0.345000000000000195,0.472261843032574791
0.346000000000000196,0.426282933705079803
0.347000000000000197,0.381381636996303841
0.348000000000000198,0.337545820476080671
0.349000000000000199,0.294762925394052189
0.350000000000000200,0.253019989576412696
0.351000000000000201,0.212303670618472218
0.352000000000000202,0.172600269278115809
0.353000000000000203,0.133895752981608218
0.354000000000000203,0.096175779359319563
0.355000000000000204,0.059425719734947167
0.356000000000000205,0.023630682497437938
0.357000000000000206,-0.011224463709685929
0.358000000000000207,-0.045155067041384410
0.359000000000000208,-0.078176669801540033
0.360000000000000209,-0.110304986140741426
0.361000000000000210,-0.141555880146674029
0.362000000000000210,-0.171945344368121145
0.363000000000000211,-0.201489478809172284
0.364000000000000212,-0.230204470426354779
0.365000000000000213,-0.258106573157486419
0.366000000000000214,-0.285212088507525274
0.367000000000000215,-0.311537346713191943
0.368000000000000216,-0.337098688505064970
0.369000000000000217,-0.361912447482585775
0.370000000000000218,-0.385994933114842120
0.371000000000000218,-0.409362414377061890
0.372000000000000219,-0.432031104030432711
0.373000000000000220,-0.454017143550485947
0.374000000000000221,-0.475336588707034213
0.375000000000000222,-0.496005395796662696
0.376000000000000223,-0.516039408527047549
0.377000000000000224,-0.535454345550370192
0.378000000000000225,-0.554265788641756685
0.379000000000000226,-0.572489171517005735
0.380000000000000226,-0.590139769282759241
0.381000000000000227,-0.607232688510729313
0.382000000000000228,-0.623782857926842071
0.383000000000000229,-0.639805019704872580
0.384000000000000230,-0.655313721353364409
0.385000000000000231,-0.670323308183897959
0.386000000000000232,-0.684847916347850139
0.387000000000000233,-0.698901466428414109
0.388000000000000234,-0.712497657573862742
0.389000000000000234,-0.725649962157794981
0.390000000000000235,-0.738371620951506435
0.391000000000000236,-0.750675638793461109
0.392000000000000237,-0.762574780740459479
0.393000000000000238,-0.774081568684985233
0.394000000000000239,-0.785208278422951045
0.395000000000000240,-0.795966937156105003
0.396000000000000241,-0.806369321413186624
0.397000000000000242,-0.816426955373950825
0.398000000000000242,-0.826151109580280596
0.399000000000000243,-0.835552800018542596
0.400000000000000244,-0.844642787557570274
0.401000000000000245,-0.853431577726775137
0.402000000000000246,-0.861929420818944969
0.403000000000000247,-0.870146312302636504
0.404000000000000248,-0.878091993529192316
0.405000000000000249,-0.885775952719663473
0.406000000000000250,-0.893207426217174971
0.407000000000000250,-0.900395399990582490
0.408000000000000251,-0.907348611375499714
0.409000000000000252,-0.914075551039130296
0.410000000000000253,-0.920584465155614651
0.411000000000000254,-0.926883357778960693
0.412000000000000255,-0.932979993400902652
0.413000000000000256,-0.938881899681485499
0.414000000000000257,-0.944596370340326397
0.415000000000000258,-0.950130468197112110
0.416000000000000258,-0.955491028349962357
0.417000000000000259,-0.960684661480888935
0.418000000000000260,-0.965717757277758437
0.419000000000000261,-0.970596487962646748
0.420000000000000262,-0.975326811916712666
0.421000000000000263,-0.979914477392224703
0.422000000000000264,-0.984365026302511992
0.423000000000000265,-0.988683798081182452
0.424000000000000266,-0.992875933602169192
0.425000000000000266,-0.996946379152481854
0.426000000000000267,-1.000899890449989282
0.427000000000000268,-1.004741036698791001
0.428000000000000269,-1.008474204675083863
0.429000000000000270,-1.012103602836810001
0.430000000000000271,-1.015633265450563094
0.431000000000000272,-1.019067056729690224
0.432000000000000273,-1.022408674977664633
0.433000000000000274,-1.025661656731247318
0.434000000000000274,-1.028829380898142576
0.435000000000000275,-1.031915072884148632
0.436000000000000276,-1.034921808705132618
0.437000000000000277,-1.037852519079339064
0.438000000000000278,-1.040709993495859020
0.439000000000000279,-1.043496884255335599
0.440000000000000280,-1.046215710479172056
0.441000000000000281,-1.048868862083781384
0.442000000000000282,-1.051458603716696638
0.443000000000000282,-1.053987078651420273
0.444000000000000283,-1.056456312638311967
0.445000000000000284,-1.058868217708839543
0.446000000000000285,-1.061224595930803982
0.447000000000000286,-1.063527143112380058
0.448000000000000287,-1.065777452452831398
0.449000000000000288,-1.067977018138172696
0.450000000000000289,-1.070127238879984066
0.451000000000000290,-1.072229421395916482
0.452000000000000290,-1.074284783830520507
0.453000000000000291,-1.076294459115130220
0.454000000000000292,-1.078259498265794702
0.455000000000000293,-1.080180873618257875
0.456000000000000294,-1.082059481999216199
0.457000000000000295,-1.083896147833159018
0.458000000000000296,-1.085691626184210445
0.459000000000000297,-1.087446605732551586
0.460000000000000298,-1.089161711685041389
0.461000000000000298,-1.090837508619820317
0.462000000000000299,-1.092474503264742491
0.463000000000000300,-1.094073147209558394
0.464000000000000301,-1.095633839551923172
0.465000000000000302,-1.097156929477301146
0.466000000000000303,-1.098642718772982363
0.467000000000000304,-1.100091464276466535
0.468000000000000305,-1.101503380258540332
0.469000000000000306,-1.102878640741448590
0.470000000000000306,-1.104217381752641058
0.471000000000000307,-1.105519703514536767
0.472000000000000308,-1.106785672570954393
0.473000000000000309,-1.108015323850780165
0.474000000000000310,-1.109208662669513235
0.475000000000000311,-1.110365666669442808
0.476000000000000312,-1.111486287699151587
0.477000000000000313,-1.112570453633150214
0.478000000000000314,-1.113618070132422977
0.479000000000000314,-1.114629022346771192
0.480000000000000315,-1.115603176559752940
0.481000000000000316,-1.116540381777189062
0.482000000000000317,-1.117440471260072954
0.483000000000000318,-1.118303264002875830
0.484000000000000319,-1.119128566158164695
0.485000000000000320,-1.119916172408506716
0.486000000000000321,-1.120665867286652517
0.487000000000000322,-1.121377426444978287
0.488000000000000322,-1.122050617875161027
0.489000000000000323,-1.122685203079156979
0.490000000000000324,-1.123280938192445122
0.491000000000000325,-1.123837575060569138
0.492000000000000326,-1.124354862269993705
0.493000000000000327,-1.124832546134327371
0.494000000000000328,-1.125270371636882816
0.495000000000000329,-1.125668083330658709
0.496000000000000330,-1.126025426196687329
0.497000000000000330,-1.126342146461862592
0.498000000000000331,-1.126617992377142885
0.499000000000000332,-1.126852714957239376
0.500000000000000333,-1.127046068682740820
0.501000000000000334,-1.127197812165642521
0.502000000000000335,-1.127307708779333062
0.503000000000000336,-1.127375527253940746
0.504000000000000337,-1.127401042238067586
0.505000000000000338,-1.127384034827812354
0.506000000000000338,-1.127324293064069449
0.507000000000000339,-1.127221612399021300
0.508000000000000340,-1.127075796132718244
0.509000000000000341,-1.126886655820728667
0.510000000000000342,-1.126654011653655640
0.511000000000000343,-1.126377692809502618
0.512000000000000344,-1.126057537779675322
0.513000000000000345,-1.125693394669522451
0.514000000000000346,-1.125285121474266070
0.515000000000000346,-1.124832586331096840
0.516000000000000347,-1.124335667748292522
0.517000000000000348,-1.123794254812160220
0.518000000000000349,-1.123208247372537327
0.519000000000000350,-1.122577556207686511
0.520000000000000351,-1.121902103169271081
0.521000000000000352,-1.121181821308219195
0.522000000000000353,-1.120416654982119287
0.523000000000000353,-1.119606559944931634
0.524000000000000354,-1.118751503419662896
0.525000000000000355,-1.117851464154690166
0.526000000000000356,-1.116906432464392918
0.527000000000000357,-1.115916410254765179
0.528000000000000358,-1.114881411034600145
0.529000000000000359,-1.113801459912899805
0.530000000000000360,-1.112676593583077356
0.531000000000000361,-1.111506860294579457
0.532000000000000361,-1.110292319812464346
0.533000000000000362,-1.109033043365511784
0.534000000000000363,-1.107729113583402647
0.535000000000000364,-1.106380624423507708
0.536000000000000365,-1.104987681087777229
0.537000000000000366,-1.103550399930263604
0.538000000000000367,-1.102068908355718690
0.539000000000000368,-1.100543344709807636
0.540000000000000369,-1.098973858161312211
0.541000000000000369,-1.097360608576864793
0.542000000000000370,-1.095703766388549383
0.543000000000000371,-1.094003512454872595
0.544000000000000372,-1.092260037915466109
0.545000000000000373,-1.090473544039924914
0.546000000000000374,-1.088644242071177715
0.547000000000000375,-1.086772353063729435
0.548000000000000376,-1.084858107717184161
0.549000000000000377,-1.082901746205337412
0.550000000000000377,-1.080903518001231856
0.551000000000000378,-1.078863681698440935
0.552000000000000379,-1.076782504828957210
0.553000000000000380,-1.074660263677935879
0.554000000000000381,-1.072497243095603681
0.555000000000000382,-1.070293736306652033
0.556000000000000383,-1.068050044717297142
0.557000000000000384,-1.065766477720386129
0.558000000000000385,-1.063443352498685046
0.559000000000000385,-1.061080993826684304
0.560000000000000386,-1.058679733871100703
0.561000000000000387,-1.056239911990325187
0.562000000000000388,-1.053761874533009069
0.563000000000000389,-1.051245974636035418
0.564000000000000390,-1.048692572022029035
0.565000000000000391,-1.046102032796627945
0.566000000000000392,-1.043474729245676969
0.567000000000000393,-1.040811039632551616
0.568000000000000393,-1.038111347995728684
0.569000000000000394,-1.035376043946804270
0.570000000000000395,-1.032605522469114634
0.571000000000000396,-1.029800183717050954
0.572000000000000397,-1.026960432816295121
0.573000000000000398,-1.024086679665016542
0.574000000000000399,-1.021179338736232012
0.575000000000000400,-1.018238828881391722
0.576000000000000401,-1.015265573135330612
0.577000000000000401,-1.012259998522718307
0.578000000000000402,-1.009222535866046488
0.579000000000000403,-1.006153619595292481
0.580000000000000404,-1.003053687559372076
0.581000000000000405,-0.999923180839394576
0.582000000000000406,-0.996762543563883163
0.583000000000000407,-0.993572222725967236
0.584000000000000408,-0.990352668002670078
0.585000000000000409,-0.987104331576326599
0.586000000000000409,-0.983827667958195873
0.587000000000000410,-0.980523133814359071
0.588000000000000411,-0.977191187793892468
0.589000000000000412,-0.973832290359445962
0.590000000000000413,-0.970446903620192258
0.591000000000000414,-0.967035491167249517
0.592000000000000415,-0.963598517911593122
0.593000000000000416,-0.960136449924475222
0.594000000000000417,-0.956649754280407549
0.595000000000000417,-0.953138898902750831
0.596000000000000418,-0.949604352411863140
0.597000000000000419,-0.946046583975937216
0.598000000000000420,-0.942466063164436152
0.599000000000000421,-0.938863259804238792
0.600000000000000422,-0.935238643838439687
0.601000000000000423,-0.931592685187842662
0.602000000000000424,-0.927925853615170659
0.603000000000000425,-0.924238618591977312
0.604000000000000425,-0.920531449168255911
0.605000000000000426,-0.916804813844776745
0.606000000000000427,-0.913059180448152929
0.607000000000000428,-0.909295016008564438
0.608000000000000429,-0.905512786640269574
0.609000000000000430,-0.901712957424734896
0.610000000000000431,-0.897895992296530054
0.611000000000000432,-0.894062353931866283
0.612000000000000433,-0.890212503639817188
0.613000000000000433,-0.886346901256218289
0.614000000000000434,-0.882466005040204671
0.615000000000000435,-0.878570271573378192
