# redgrapheneoxide_BUTENE2-AC
# h[nm],U(h)[kJ/mol]
0.149999999999999994,68.467908563880172323
0.150999999999999995,66.771424195102127896
0.151999999999999996,65.060459043413317204
0.152999999999999997,63.344780300813411600
0.153999999999999998,61.635510413824498244
0.154999999999999999,59.942593929740937142
0.156000000000000000,58.273592672965307315
0.157000000000000001,56.633364321654369178
0.158000000000000002,55.024274156712145611
0.159000000000000002,53.446682259384417080
0.160000000000000003,51.899528682801914670
0.161000000000000004,50.380903598773237206
0.162000000000000005,48.888538173420045041
0.163000000000000006,47.420186752365523830
0.164000000000000007,45.973894312246557092
0.165000000000000008,44.548157609512074373
0.166000000000000009,43.141996346822452324
0.167000000000000010,41.754953935688895683
0.168000000000000010,40.387047622016552850
0.169000000000000011,39.038686050705038610
0.170000000000000012,37.710569648468045045
0.171000000000000013,36.403586110297716516
0.172000000000000014,35.118710188098340552
0.173000000000000015,33.856914147498031298
0.174000000000000016,32.619092814524009327
0.175000000000000017,31.406005131899814131
0.176000000000000018,30.218232586366116976
0.177000000000000018,29.056153721866319728
0.178000000000000019,27.919933168574470272
0.179000000000000020,26.809523136445779556
0.180000000000000021,25.724675085033673838
0.181000000000000022,24.664959232832813996
0.182000000000000023,23.629789659325798112
0.183000000000000024,22.618452938248349682
0.184000000000000025,21.630138485751945865
0.185000000000000026,20.663969083672657945
0.186000000000000026,19.719030324061936454
0.187000000000000027,18.794398000270220450
0.188000000000000028,17.889162730817055547
0.189000000000000029,17.002451337649183927
0.190000000000000030,16.133444705983489342
0.191000000000000031,15.281392027036375225
0.192000000000000032,14.445621467680785699
0.193000000000000033,13.625547423894829535
0.194000000000000034,12.820674600116751307
0.195000000000000034,12.030599217178096438
0.196000000000000035,11.255007690514450047
0.197000000000000036,10.493673141075470667
0.198000000000000037,9.746450106922633694
0.199000000000000038,9.013267816878599348
0.200000000000000039,8.294122371489816459
0.201000000000000040,7.589068153406470785
0.202000000000000041,6.898208761188075577
0.203000000000000042,6.221687729319334892
0.204000000000000042,5.559679264380151587
0.205000000000000043,4.912379194096619273
0.206000000000000044,4.279996293386893136
0.207000000000000045,3.662744120270179593
0.208000000000000046,3.060833465188094848
0.209000000000000047,2.474465490288659808
0.210000000000000048,1.903825610792862832
0.211000000000000049,1.349078148833013024
0.212000000000000050,0.810361771152555144
0.213000000000000050,0.287785705750343013
0.214000000000000051,-0.218573281167360994
0.215000000000000052,-0.708673177837350843
0.216000000000000053,-1.182508328106886220
0.217000000000000054,-1.640110386961821876
0.218000000000000055,-2.081548681319010718
0.219000000000000056,-2.506930030384641572
0.220000000000000057,-2.916398081826220956
0.221000000000000058,-3.310132220694204985
0.222000000000000058,-3.688346107657181072
0.223000000000000059,-4.051285901852251570
0.224000000000000060,-4.399228221669086558
0.225000000000000061,-4.732477894228792614
0.226000000000000062,-5.051365541321493069
0.227000000000000063,-5.356245046249523689
0.228000000000000064,-5.647490942489640453
0.229000000000000065,-5.925495761430269681
0.230000000000000066,-6.190667372733456908
0.231000000000000066,-6.443426347184356473
0.232000000000000067,-6.684203368274999946
0.233000000000000068,-6.913436715270106170
0.234000000000000069,-7.131569837154091651
0.235000000000000070,-7.339049033687952139
0.236000000000000071,-7.536321256830873949
0.237000000000000072,-7.723832043019295490
0.238000000000000073,-7.902023584251703703
0.239000000000000073,-8.071332943605142418
0.240000000000000074,-8.232190418709580015
0.241000000000000075,-8.385018054823431655
0.242000000000000076,-8.530228307483103123
0.243000000000000077,-8.668222853232691705
0.244000000000000078,-8.799391545667045733
0.245000000000000079,-8.924111512931379053
0.246000000000000080,-9.042746391901879122
0.247000000000000081,-9.155645693512330041
0.248000000000000081,-9.263144293078365621
0.249000000000000082,-9.365562038991857463
0.250000000000000111,-9.463203472800710614
0.251000000000000112,-9.556357653441107658
0.252000000000000113,-9.645298078240152506
0.253000000000000114,-9.730282693242937597
0.254000000000000115,-9.811553985432389879
0.255000000000000115,-9.889339149489266845
0.256000000000000116,-9.963850321876927651
0.257000000000000117,-10.035284875220726875
0.258000000000000118,-10.103825766177475742
0.259000000000000119,-10.169641930249657236
0.260000000000000120,-10.232888717284797764
0.261000000000000121,-10.293708361706199739
0.262000000000000122,-10.352230481843275101
0.263000000000000123,-10.408572603060786577
0.264000000000000123,-10.462840699724898386
0.265000000000000124,-10.515129751383607726
0.266000000000000125,-10.565524308878874393
0.267000000000000126,-10.614099066443035468
0.268000000000000127,-10.660919436161705676
0.269000000000000128,-10.706042121506488485
0.270000000000000129,-10.749515686952026527
0.271000000000000130,-10.791381120992060261
0.272000000000000131,-10.831672390156825259
0.273000000000000131,-10.870416981908359588
0.274000000000000132,-10.907636434550884275
0.275000000000000133,-10.943346852539907132
0.276000000000000134,-10.977559405805230597
0.277000000000000135,-11.010280811920329924
0.278000000000000136,-11.041513800153254010
0.279000000000000137,-11.071257556622384755
0.280000000000000138,-11.099508149954559144
0.281000000000000139,-11.126258937003317584
0.282000000000000139,-11.151500948332197183
0.283000000000000140,-11.175223253301776793
0.284000000000000141,-11.197413304721088423
0.285000000000000142,-11.218057263133673018
0.286000000000000143,-11.237140300907110912
0.287000000000000144,-11.254646886382577264
0.288000000000000145,-11.270561048418930028
0.289000000000000146,-11.284866621733600667
0.290000000000000147,-11.297547473502184801
0.291000000000000147,-11.308587711729291669
0.292000000000000148,-11.317971875946563287
0.293000000000000149,-11.325685110829557090
0.294000000000000150,-11.331713323354614786
0.295000000000000151,-11.336043324139996713
0.296000000000000152,-11.338662953633113162
0.297000000000000153,-11.339561193818294527
0.298000000000000154,-11.338728266127080957
0.299000000000000155,-11.336155716236888225
0.300000000000000155,-11.331836486443512158
0.301000000000000156,-11.325764976289420360
0.302000000000000157,-11.317937092123061760
0.303000000000000158,-11.308350286255222983
0.304000000000000159,-11.297003586366766825
0.305000000000000160,-11.283897615808216486
0.306000000000000161,-11.269034605416434758
0.307000000000000162,-11.252418397456498411
0.308000000000000163,-11.234054442278544883
0.309000000000000163,-11.213949788260361373
0.310000000000000164,-11.192113065586074327
0.311000000000000165,-11.168554464390620495
0.312000000000000166,-11.143285707778563420
0.313000000000000167,-11.116320020204042862
0.314000000000000168,-11.087672091676987307
0.315000000000000169,-11.057358038238870535
0.316000000000000170,-11.025395359129532835
0.317000000000000171,-10.991802891044994084
0.318000000000000171,-10.956600759864620898
0.319000000000000172,-10.919810330205274695
0.320000000000000173,-10.881454153139056729
0.321000000000000174,-10.841555912391168448
0.322000000000000175,-10.800140369314686239
0.323000000000000176,-10.757233306919797400
0.324000000000000177,-10.712861473216353403
0.325000000000000178,-10.667052524110578915
0.326000000000000179,-10.619834966079501726
0.327000000000000179,-10.571238098829567775
0.328000000000000180,-10.521291958130046140
0.329000000000000181,-10.470027258996358555
0.330000000000000182,-10.417475339383296173
0.331000000000000183,-10.363668104534555781
0.332000000000000184,-10.308637972120877180
0.333000000000000185,-10.252417818286755136
0.334000000000000186,-10.195040924713207886
0.335000000000000187,-10.136540926792681816
0.336000000000000187,-10.076951763001211759
0.337000000000000188,-10.016307625542584248
0.338000000000000189,-9.954642912329699556
0.339000000000000190,-9.891992180359050479
0.340000000000000191,-9.828390100525586703
0.341000000000000192,-9.763871413917616593
0.342000000000000193,-9.698470889623301616
0.343000000000000194,-9.632223284073884173
0.344000000000000195,-9.565163301941808527
0.345000000000000195,-9.497325558606291906
0.346000000000000196,-9.428744544192948496
0.347000000000000197,-9.359454589189155627
0.348000000000000198,-9.289489831632046446
0.349000000000000199,-9.218884185861572433
0.350000000000000200,-9.147671312827320378
0.351000000000000201,-9.075884591933867540
0.352000000000000202,-9.003557094406390959
0.353000000000000203,-8.930721558155195083
0.354000000000000203,-8.857410364115191115
0.355000000000000204,-8.783655514033844369
0.356000000000000205,-8.709488609679223003
0.357000000000000206,-8.634940833437758201
0.358000000000000207,-8.560042930269670336
0.359000000000000208,-8.484825190988726007
0.360000000000000209,-8.409317436831781123
0.361000000000000210,-8.333549005282437250
0.362000000000000210,-8.257548737112427872
0.363000000000000211,-8.181344964603713521
0.364000000000000212,-8.104965500913634102
0.365000000000000213,-8.028437630545276704
0.366000000000000214,-7.951788100884847665
0.367000000000000215,-7.875043114767824370
0.368000000000000216,-7.798228324035688885
0.369000000000000217,-7.721368824045065082
0.370000000000000218,-7.644489149091429070
0.371000000000000218,-7.567613268709732388
0.372000000000000219,-7.490764584814709970
0.373000000000000220,-7.413965929644168895
0.374000000000000221,-7.337239564468907460
0.375000000000000222,-7.260607179033594427
0.376000000000000223,-7.184089891693540508
0.377000000000000224,-7.107708250212942502
0.378000000000000225,-7.031482233190874176
0.379000000000000226,-6.955431252082034277
0.380000000000000226,-6.879574153780128043
0.381000000000000227,-6.803929223732309239
0.382000000000000228,-6.728514189554244851
0.383000000000000229,-6.653346225115922330
0.384000000000000230,-6.578441955069250113
0.385000000000000231,-6.503817459789485333
0.386000000000000232,-6.429488280703115954
0.387000000000000233,-6.355469425975956099
0.388000000000000234,-6.281775376535841282
0.389000000000000234,-6.208420092405430246
0.390000000000000235,-6.135417019321177889
0.391000000000000236,-6.062779095615693059
0.392000000000000237,-5.990518759341287414
0.393000000000000238,-5.918647955613613121
0.394000000000000239,-5.847178144154812074
0.395000000000000240,-5.776120307016727295
0.396000000000000241,-5.705484956465347146
0.397000000000000242,-5.635282143008399025
0.398000000000000242,-5.565521463549015557
0.399000000000000243,-5.496212069648909626
0.400000000000000244,-5.427362675885309073
0.401000000000000245,-5.358981568286810493
0.402000000000000246,-5.291076612833719217
0.403000000000000247,-5.223655264009331667
0.404000000000000248,-5.156724573389278810
0.405000000000000249,-5.090291198256672089
0.406000000000000250,-5.024361410231367842
0.407000000000000250,-4.958941103902436254
0.408000000000000251,-4.894035805453358812
0.409000000000000252,-4.829650681270222456
0.410000000000000253,-4.765790546523547278
0.411000000000000254,-4.702459873715160832
0.412000000000000255,-4.639662801181846596
0.413000000000000256,-4.577403141548161969
0.414000000000000257,-4.515684390121165848
0.415000000000000258,-4.454509733220445078
0.416000000000000258,-4.393882056437114159
0.417000000000000259,-4.333803952815997285
0.418000000000000260,-4.274277730955626353
0.419000000000000261,-4.215305423020997644
0.420000000000000262,-4.156888792664578780
0.421000000000000263,-4.099029342851272517
0.422000000000000264,-4.041728323583496874
0.423000000000000265,-3.984986739522786259
0.424000000000000266,-3.928805357504870699
0.425000000000000266,-3.873184713945133417
0.426000000000000267,-3.818125122132015381
0.427000000000000268,-3.763626679405976283
0.428000000000000269,-3.709689274221991351
0.429000000000000270,-3.656312593093820063
0.430000000000000271,-3.603496127418476469
0.431000000000000272,-3.551239180179622590
0.432000000000000273,-3.499540872528787538
0.433000000000000274,-3.448400150243561946
0.434000000000000274,-3.397815790062035823
0.435000000000000275,-3.347786405893061534
0.436000000000000276,-3.298310454901997701
0.437000000000000277,-3.249386243471762636
0.438000000000000278,-3.201011933039252799
0.439000000000000279,-3.153185545807293266
0.440000000000000280,-3.105904970332361792
0.441000000000000281,-3.059167966988582954
0.442000000000000282,-3.012972173308529733
0.443000000000000282,-2.967315109201459133
0.444000000000000283,-2.922194182049829614
0.445000000000000284,-2.877606691684936102
0.446000000000000285,-2.833549835242578308
0.447000000000000286,-2.790020711899974248
0.448000000000000287,-2.747016327494841814
0.449000000000000288,-2.704533599028061452
0.450000000000000289,-2.662569359051033313
0.451000000000000290,-2.621120359939170363
0.452000000000000290,-2.580183278052868623
0.453000000000000291,-2.539754717787420013
0.454000000000000292,-2.499831215513371063
0.455000000000000293,-2.460409243408816948
0.456000000000000294,-2.421485213185263774
0.457000000000000295,-2.383055479708620084
0.458000000000000296,-2.345116344516969598
0.459000000000000297,-2.307664059236796295
0.460000000000000298,-2.270694828899310291
0.461000000000000298,-2.234204815158628232
0.462000000000000299,-2.198190139413486843
0.463000000000000300,-2.162646885834220267
0.464000000000000301,-2.127571104296771320
0.465000000000000302,-2.092958813225465509
0.466000000000000303,-2.058806002346295294
0.467000000000000304,-2.025108635352455888
0.468000000000000305,-1.991862652483948226
0.469000000000000306,-1.959063973022906024
0.470000000000000306,-1.926708497706506096
0.471000000000000307,-1.894792111059067308
0.472000000000000308,-1.863310683645234445
0.473000000000000309,-1.832260074245808834
0.474000000000000310,-1.801636131958068932
0.475000000000000311,-1.771434698222179360
0.476000000000000312,-1.741651608775500293
0.477000000000000313,-1.712282695536308852
0.478000000000000314,-1.683323788418728428
0.479000000000000314,-1.654770717080452869
0.480000000000000315,-1.626619312604856260
0.481000000000000316,-1.598865409119165637
0.482000000000000317,-1.571504845350202961
0.483000000000000318,-1.544533466119324405
0.484000000000000319,-1.517947123778036866
0.485000000000000320,-1.491741679585898428
0.486000000000000321,-1.465913005032106087
0.487000000000000322,-1.440456983102326394
0.488000000000000322,-1.415369509492159228
0.489000000000000323,-1.390646493768736836
0.490000000000000324,-1.366283860481798396
0.491000000000000325,-1.342277550225680516
0.492000000000000326,-1.318623520653521952
0.493000000000000327,-1.295317747445093426
0.494000000000000328,-1.272356225229503313
0.495000000000000329,-1.249734968464102369
0.496000000000000330,-1.227450012270835611
0.497000000000000330,-1.205497413231287229
0.498000000000000331,-1.183873250141624478
0.499000000000000332,-1.162573624728660215
0.500000000000000333,-1.141594662328160537
0.501000000000000334,-1.120932512526571001
0.502000000000000335,-1.100583349767257024
0.503000000000000336,-1.080543373922394190
0.504000000000000337,-1.060808810831519455
0.505000000000000338,-1.041375912807846138
0.506000000000000338,-1.022240959113342118
0.507000000000000339,-1.003400256403566670
0.508000000000000340,-0.984850139143262249
0.509000000000000341,-0.966586969993651346
0.510000000000000342,-0.948607140172368246
0.511000000000000343,-0.930907069786936603
0.512000000000000344,-0.913483208142687131
0.513000000000000345,-0.896332034025983604
0.514000000000000346,-0.879450055963604371
0.515000000000000346,-0.862833812459105509
0.516000000000000347,-0.846479872206948203
0.517000000000000348,-0.830384834285250895
0.518000000000000349,-0.814545328327805462
0.519000000000000350,-0.798958014676229844
0.520000000000000351,-0.783619584512906919
0.521000000000000352,-0.768526759975438178
0.522000000000000353,-0.753676294253307510
0.523000000000000353,-0.739064971667396930
0.524000000000000354,-0.724689607733059904
0.525000000000000355,-0.710547049207317150
0.526000000000000356,-0.696634174120846050
0.527000000000000357,-0.682947891795355866
0.528000000000000358,-0.669485142846881209
0.529000000000000359,-0.656242899175638050
0.530000000000000360,-0.643218163942928967
0.531000000000000361,-0.630407971535672962
0.532000000000000361,-0.617809387519036690
0.533000000000000362,-0.605419508577726306
0.534000000000000363,-0.593235462446383477
0.535000000000000364,-0.581254407829568609
0.536000000000000365,-0.569473534311817131
0.537000000000000366,-0.557890062258187158
0.538000000000000367,-0.546501242705734303
0.539000000000000368,-0.535304357246367934
0.540000000000000369,-0.524296717901433618
0.541000000000000369,-0.513475666988481239
0.542000000000000370,-0.502838576980564778
0.543000000000000371,-0.492382850358433877
0.544000000000000372,-0.482105919456021659
0.545000000000000373,-0.472005246299525782
0.546000000000000374,-0.462078322440443834
0.547000000000000375,-0.452322668782881021
0.548000000000000376,-0.442735835405464351
0.549000000000000377,-0.433315401378135345
0.550000000000000377,-0.424058974574118952
0.551000000000000378,-0.414964191477395272
0.552000000000000379,-0.406028716985884663
0.553000000000000380,-0.397250244210668957
0.554000000000000381,-0.388626494271459511
0.555000000000000382,-0.380155216088599979
0.556000000000000383,-0.371834186171797587
0.557000000000000384,-0.363661208405862468
0.558000000000000385,-0.355634113833631749
0.559000000000000385,-0.347750760436330852
0.560000000000000386,-0.340009032911540332
0.561000000000000387,-0.332406842449006201
0.562000000000000388,-0.324942126504459083
0.563000000000000389,-0.317612848571630302
0.564000000000000390,-0.310416997952654483
0.565000000000000391,-0.303352589527017547
0.566000000000000392,-0.296417663519219166
0.567000000000000393,-0.289610285265311018
0.568000000000000393,-0.282928544978454599
0.569000000000000394,-0.276370557513656245
0.570000000000000395,-0.269934462131807940
0.571000000000000396,-0.263618422263174446
0.572000000000000397,-0.257420625270466941
0.573000000000000398,-0.251339282211593185
0.574000000000000399,-0.245372627602257698
0.575000000000000400,-0.239518919178463519
0.576000000000000401,-0.233776437659073993
0.577000000000000401,-0.228143486508521814
0.578000000000000402,-0.222618391699757001
0.579000000000000403,-0.217199501477536583
0.580000000000000404,-0.211885186122154096
0.581000000000000405,-0.206673837713694381
0.582000000000000406,-0.201563869896873749
0.583000000000000407,-0.196553717646590104
0.584000000000000408,-0.191641837034213502
0.585000000000000409,-0.186826704994713044
0.586000000000000409,-0.182106819094694561
0.587000000000000410,-0.177480697301392099
0.588000000000000411,-0.172946877752697292
0.589000000000000412,-0.168503918528271707
0.590000000000000413,-0.164150397421803429
0.591000000000000414,-0.159884911714460592
0.592000000000000415,-0.155706077949593791
0.593000000000000416,-0.151612531708730180
0.594000000000000417,-0.147602927388904431
0.595000000000000417,-0.143675937981382174
0.596000000000000418,-0.139830254851785879
0.597000000000000419,-0.136064587521700225
0.598000000000000420,-0.132377663451754557
0.599000000000000421,-0.128768227826238701
0.600000000000000422,-0.125235043339277513
0.601000000000000423,-0.121776889982589689
0.602000000000000424,-0.118392564834853567
0.603000000000000425,-0.115080881852721958
0.604000000000000425,-0.111840671663489252
0.605000000000000426,-0.108670781359435129
0.606000000000000427,-0.105570074293891619
0.607000000000000428,-0.102537429878990199
0.608000000000000429,-0.099571743385195380
0.609000000000000430,-0.096671925742528780
0.610000000000000431,-0.093836903343613318
0.611000000000000432,-0.091065617848454461
