# redgrapheneoxide_THRSCA-JS
# h[nm],U(h)[kJ/mol]
0.149999999999999994,79.830967906029812298
0.150999999999999995,77.852418876076853849
0.151999999999999996,76.288130133261958576
0.152999999999999997,74.802378573447242616
0.153999999999999998,73.285536467743369826
0.154999999999999999,71.728131246633921592
0.156000000000000000,70.155353451571002665
0.157000000000000001,68.596205501223096235
0.158000000000000002,67.071528606969181396
0.159000000000000002,65.591556273262270338
0.160000000000000003,64.157660711894436645
0.161000000000000004,62.765419118903253093
0.162000000000000005,61.407588794769765173
0.163000000000000006,60.076413279051521954
0.164000000000000007,58.765127878888449686
0.165000000000000008,57.468748175536781275
0.166000000000000009,56.184308135652273108
0.167000000000000010,54.910726581740426866
0.168000000000000010,53.648458831579247885
0.169000000000000011,52.399055561428191652
0.170000000000000012,51.164714906265999161
0.171000000000000013,49.947882087829768238
0.172000000000000014,48.750925604577339811
0.173000000000000015,47.575900466822552914
0.174000000000000016,46.424396403171940051
0.175000000000000017,45.297461303772415420
0.176000000000000018,44.195586238528576928
0.177000000000000018,43.118737130155381010
0.178000000000000019,42.066418679372688416
0.179000000000000020,41.037757728388505996
0.180000000000000021,40.031595383037483771
0.181000000000000022,39.046579521521948664
0.182000000000000023,38.081251551901218022
0.183000000000000024,37.134123291541556000
0.184000000000000025,36.203741551750894700
0.185000000000000026,35.288739392580090737
0.186000000000000026,34.387874072921690072
0.187000000000000027,33.500052487119475586
0.188000000000000028,32.624345390171569647
0.189000000000000029,31.759992012650155147
0.190000000000000030,30.906396796987355202
0.191000000000000031,30.063119989155421052
0.192000000000000032,29.229863729760740654
0.193000000000000033,28.406455136586913568
0.194000000000000034,27.592827681590186728
0.195000000000000034,26.789001958965478423
0.196000000000000035,25.995066732132329435
0.197000000000000036,25.211160947186897374
0.198000000000000037,24.437457215916946751
0.199000000000000038,23.674147107452562011
0.200000000000000039,22.921428446367507092
0.201000000000000040,22.179494697199171327
0.202000000000000041,21.448526420318671626
0.203000000000000042,20.728684710393132207
0.204000000000000042,20.020106474318243528
0.205000000000000043,19.322901368132313848
0.206000000000000044,18.637150189596926708
0.207000000000000045,17.962904512409334501
0.208000000000000046,17.300187347074128752
0.209000000000000047,16.648994620166156722
0.210000000000000048,16.009297276143566791
0.211000000000000049,15.381043822340117799
0.212000000000000050,14.764163156843736147
0.213000000000000050,14.158567539460182871
0.214000000000000051,13.564155586890397132
0.215000000000000052,12.980815193852384581
0.216000000000000053,12.408426301565885552
0.217000000000000054,11.846863453364438357
0.218000000000000055,11.295998093914153770
0.219000000000000056,10.755700583426849093
0.220000000000000057,10.225841911270483919
0.221000000000000058,9.706295104501018400
0.222000000000000058,9.196936336108189280
0.223000000000000059,8.697645745285962349
0.224000000000000060,8.208307987924630567
0.225000000000000061,7.728812539924502012
0.226000000000000062,7.259053779007087925
0.227000000000000063,6.798930872610261744
0.228000000000000064,6.348347500361110285
0.229000000000000065,5.907211439678262010
0.230000000000000066,5.475434042415274760
0.231000000000000066,5.052929629251572408
0.232000000000000067,4.639614826896722555
0.233000000000000068,4.235407871206954944
0.234000000000000069,3.840227897121642364
0.235000000000000070,3.453994233997127683
0.236000000000000071,3.076625722521658890
0.237000000000000072,2.708040066998375295
0.238000000000000073,2.348153234437208248
0.239000000000000073,1.996878909641489397
0.240000000000000074,1.654128013341482184
0.241000000000000075,1.319808288442887667
0.242000000000000076,0.993823957636758237
0.243000000000000077,0.676075453971083817
0.244000000000000078,0.366459224518441373
0.245000000000000079,0.064867605989461022
0.246000000000000080,-0.228811229963673313
0.247000000000000081,-0.514693264942875595
0.248000000000000081,-0.792898559455421981
0.249000000000000082,-1.063551120589736332
0.250000000000000111,-1.326778716752808451
0.251000000000000112,-1.582712644841426375
0.252000000000000113,-1.831487455435617973
0.253000000000000114,-2.073240641709195309
0.254000000000000115,-2.308112297766085952
0.255000000000000115,-2.536244752039752637
0.256000000000000116,-2.757782181251829279
0.257000000000000117,-2.972870210224181964
0.258000000000000118,-3.181655502586827389
0.259000000000000119,-3.384285347132943933
0.260000000000000120,-3.580907244250074228
0.261000000000000121,-3.771668496511018098
0.262000000000000122,-3.956715807147990205
0.263000000000000123,-4.136194889763764593
0.264000000000000123,-4.310250092261616928
0.265000000000000124,-4.479024037605227271
0.266000000000000125,-4.642657283656008715
0.267000000000000126,-4.801288003981207808
0.268000000000000127,-4.955051691185793139
0.269000000000000128,-5.104080883995690598
0.270000000000000129,-5.248504919012678904
0.271000000000000130,-5.388449707773102837
0.272000000000000131,-5.524037539474273117
0.273000000000000131,-5.655386909485452307
0.274000000000000132,-5.782612373534406380
0.275000000000000133,-5.905824427256105125
0.276000000000000134,-6.025129410606943736
0.277000000000000135,-6.140629436485106396
0.278000000000000136,-6.252422342755863838
0.279000000000000137,-6.360601666757522921
0.280000000000000138,-6.465256641259749415
0.281000000000000139,-6.566472210759650707
0.282000000000000139,-6.664329066931176548
0.283000000000000140,-6.758903701989469326
0.284000000000000141,-6.850268478692046692
0.285000000000000142,-6.938491715672799209
0.286000000000000143,-7.023637786790786208
0.287000000000000144,-7.105767233173081010
0.288000000000000145,-7.184936886638789488
0.289000000000000146,-7.261200003207235909
0.290000000000000147,-7.334606405418495179
0.291000000000000147,-7.405202632225480031
0.292000000000000148,-7.473032095254978913
0.293000000000000149,-7.538135240277517468
0.294000000000000150,-7.600549712773587707
0.295000000000000151,-7.660310526534528819
0.296000000000000152,-7.717450234290329725
0.297000000000000153,-7.771999099412516543
0.298000000000000154,-7.823985267798192922
0.299000000000000155,-7.873434939099785979
0.300000000000000155,-7.920372536524524776
0.301000000000000156,-7.964820874486785662
0.302000000000000157,-8.006801323455665198
0.303000000000000158,-8.046333971398185625
0.304000000000000159,-8.083437781276000322
0.305000000000000160,-8.118130744109119945
0.306000000000000161,-8.150430027174840220
0.307000000000000162,-8.180352116962422926
0.308000000000000163,-8.207912956554780592
0.309000000000000163,-8.233128077157020996
0.310000000000000164,-8.256012723538024289
0.311000000000000165,-8.276581973195231257
0.312000000000000166,-8.294850849094661527
0.313000000000000167,-8.310834425877400733
0.314000000000000168,-8.324547929460706541
0.315000000000000169,-8.336006829996359002
0.316000000000000170,-8.345226928181100234
0.317000000000000171,-8.352224434943442688
0.318000000000000171,-8.357016044558701395
0.319000000000000172,-8.359619001269143368
0.320000000000000173,-8.360051159508866903
0.321000000000000174,-8.358331037853805157
0.322000000000000175,-8.354477866835798849
0.323000000000000176,-8.348511630776245696
0.324000000000000177,-8.340453103809471358
0.325000000000000178,-8.330323880278708515
0.326000000000000179,-8.318146399698774118
0.327000000000000179,-8.303943966488692041
0.328000000000000180,-8.287740764685448625
0.329000000000000181,-8.269561867856445758
0.330000000000000182,-8.249433244432875512
0.331000000000000183,-8.227381758690306413
0.332000000000000184,-8.203435167604716582
0.333000000000000185,-8.177622113813898252
0.334000000000000186,-8.149972114914179500
0.335000000000000187,-8.120515549321797977
0.336000000000000187,-8.089283638926733744
0.337000000000000188,-8.056308428764280549
0.338000000000000189,-8.021622763926735900
0.339000000000000190,-7.985260263933733782
0.340000000000000191,-7.947255294775334100
0.341000000000000192,-7.907642938837392776
0.342000000000000193,-7.866458962913033481
0.343000000000000194,-7.823739784498831007
0.344000000000000195,-7.779522436567660293
0.345000000000000195,-7.733844531004455014
0.346000000000000196,-7.686744220884015988
0.347000000000000197,-7.638260161763476219
0.348000000000000198,-7.588431472155110491
0.349000000000000199,-7.537297693337890792
0.350000000000000200,-7.484898748659404077
0.351000000000000201,-7.431274902472175370
0.352000000000000202,-7.376466718841551362
0.353000000000000203,-7.320515020154985564
0.354000000000000203,-7.263460845755422390
0.355000000000000204,-7.205345410714390830
0.356000000000000205,-7.146210064853553590
0.357000000000000206,-7.086096252116409921
0.358000000000000207,-7.025045470385120616
0.359000000000000208,-6.963099231830956803
0.360000000000000209,-6.900299023880196891
0.361000000000000210,-6.836686270871065396
0.362000000000000210,-6.772302296471264249
0.363000000000000211,-6.707188286919486764
0.364000000000000212,-6.641385255148821720
0.365000000000000213,-6.574934005844065510
0.366000000000000214,-6.507875101479871027
0.367000000000000215,-6.440248829381337359
0.368000000000000216,-6.372095169843728257
0.369000000000000217,-6.303453765343235204
0.370000000000000218,-6.234363890866250202
0.371000000000000218,-6.164864425380090829
0.372000000000000219,-6.094993824464178367
0.373000000000000220,-6.024790094116642791
0.374000000000000221,-5.954290765747656700
0.375000000000000222,-5.883532872367181810
0.376000000000000223,-5.812552925971641749
0.377000000000000224,-5.741386896130785900
0.378000000000000225,-5.670070189773086078
0.379000000000000226,-5.598637632165269551
0.380000000000000226,-5.527123449079097028
0.381000000000000227,-5.455561250135843032
0.382000000000000228,-5.383984013317052231
0.383000000000000229,-5.312424070627810302
0.384000000000000230,-5.240913094896901825
0.385000000000000231,-5.169482087696704475
0.386000000000000232,-5.098161368363685497
0.387000000000000233,-5.026980564099282844
0.388000000000000234,-4.955968601129318252
0.389000000000000234,-4.885153696899194209
0.390000000000000235,-4.814563353280762570
0.391000000000000236,-4.744224350766078402
0.392000000000000237,-4.674162743622222393
0.393000000000000238,-4.604403855980810256
0.394000000000000239,-4.534972278835033066
0.395000000000000240,-4.465891867916729652
0.396000000000000241,-4.397185742425454791
0.397000000000000242,-4.328876284581139267
0.398000000000000242,-4.260985139971883662
0.399000000000000243,-4.193533218668013873
0.400000000000000244,-4.126540697073515673
0.401000000000000245,-4.060027020486111304
0.402000000000000246,-3.994010906336964872
0.403000000000000247,-3.928510348081311943
0.404000000000000248,-3.863542619711443304
0.405000000000000249,-3.799124280863618530
0.406000000000000250,-3.735271182490742969
0.407000000000000250,-3.671998473073015301
0.408000000000000251,-3.609320605338960597
0.409000000000000252,-3.547251343469835838
0.410000000000000253,-3.485803770760552478
0.411000000000000254,-3.424990297710972076
0.412000000000000255,-3.364822670521681491
0.413000000000000256,-3.305311979969021596
0.414000000000000257,-3.246468670634482301
0.415000000000000258,-3.188302550464351626
0.416000000000000258,-3.130822800635813863
0.417000000000000259,-3.074037985706449927
0.418000000000000260,-3.017956064024617469
0.419000000000000261,-2.962584398378715012
0.420000000000000262,-2.907929766864091548
0.421000000000000263,-2.853998373946837752
0.422000000000000264,-2.800795861704384215
0.423000000000000265,-2.748327321223388076
0.424000000000000266,-2.696597304136200801
0.425000000000000266,-2.645609834277505179
0.426000000000000267,-2.595368419443690566
0.427000000000000268,-2.545876063237900500
0.428000000000000269,-2.497135276984425722
0.429000000000000270,-2.449148091696745855
0.430000000000000271,-2.401916070084008759
0.431000000000000272,-2.355440318581525805
0.432000000000000273,-2.309721499391278687
0.433000000000000274,-2.264759842519176836
0.434000000000000274,-2.220555157796241907
0.435000000000000275,-2.177106846871622814
0.436000000000000276,-2.134413915165787046
0.437000000000000277,-2.092474983772801167
0.438000000000000278,-2.051288301301268380
0.439000000000000279,-2.010851755643877858
0.440000000000000280,-1.971162885666118525
0.441000000000000281,-1.932218892805211308
0.442000000000000282,-1.894016652570847281
0.443000000000000282,-1.856552725939668136
0.444000000000000283,-1.819823370636115101
0.445000000000000284,-1.783824552292557097
0.446000000000000285,-1.748551955482052778
0.447000000000000286,-1.714000994617779439
0.448000000000000287,-1.680166824713186458
0.449000000000000288,-1.647044351997773548
0.450000000000000289,-1.614628244383410571
0.451000000000000290,-1.582912941776793314
0.452000000000000290,-1.551892666233827489
0.453000000000000291,-1.521561431952147547
0.454000000000000292,-1.491913055098380791
0.455000000000000293,-1.462941163466973116
0.456000000000000294,-1.434639205967868092
0.457000000000000295,-1.407000461940533853
0.458000000000000296,-1.380018050292170173
0.459000000000000297,-1.353684938458233455
0.460000000000000298,-1.327993951183664034
0.461000000000000298,-1.302937779123484408
0.462000000000000299,-1.278508987261702812
0.463000000000000300,-1.254700023147646393
0.464000000000000301,-1.231503224949167086
0.465000000000000302,-1.208910829322328295
0.466000000000000303,-1.186914979097380307
0.467000000000000304,-1.165507730781073503
0.468000000000000305,-1.144681061875577610
0.469000000000000306,-1.124426878014346931
0.470000000000000306,-1.104737019915595475
0.471000000000000307,-1.085603270154055666
0.472000000000000308,-1.067017359752020500
0.473000000000000309,-1.048970974590633043
0.474000000000000310,-1.031455761642689595
0.475000000000000311,-1.014463335028241264
0.476000000000000312,-0.997985281894499865
0.477000000000000313,-0.982013168121530611
0.478000000000000314,-0.966538543855488763
0.479000000000000314,-0.951552948871155380
0.480000000000000315,-0.937047917765607030
0.481000000000000316,-0.923014984985051301
0.482000000000000317,-0.909445689686802283
0.483000000000000318,-0.896331580438565090
0.484000000000000319,-0.883664219757181790
0.485000000000000320,-0.871435188489134260
0.486000000000000321,-0.859636090035063360
0.487000000000000322,-0.848258554420716515
0.488000000000000322,-0.837294242216679363
0.489000000000000323,-0.826734848309423342
0.490000000000000324,-0.816572105526081282
0.491000000000000325,-0.806797788115539816
0.492000000000000326,-0.797403715088356058
0.493000000000000327,-0.788381753418120335
0.494000000000000328,-0.779723821106840687
0.495000000000000329,-0.771421890116978148
0.496000000000000330,-0.763467989172766259
0.497000000000000330,-0.755854206433461906
0.498000000000000331,-0.748572692041158172
0.499000000000000332,-0.741615660545851152
0.500000000000000333,-0.734975393210382522
0.501000000000000334,-0.728644240197925064
0.502000000000000335,-0.722614622644661919
0.503000000000000336,-0.716879034620303002
0.504000000000000337,-0.711430044979061593
0.505000000000000338,-0.706260299103721456
0.506000000000000338,-0.701362520545403934
0.507000000000000339,-0.696729512561612530
0.508000000000000340,-0.692354159555138571
0.509000000000000341,-0.688229428416386901
0.510000000000000342,-0.684348369771644482
0.511000000000000343,-0.680704119139798669
0.512000000000000344,-0.677289898000001389
0.513000000000000345,-0.674099014772729044
0.514000000000000346,-0.671124865716693497
0.515000000000000346,-0.668360935743964601
0.516000000000000347,-0.665800799155719214
0.517000000000000348,-0.663438120300966161
0.518000000000000349,-0.661266654160514666
0.519000000000000350,-0.659280246858517494
0.520000000000000351,-0.657472836103823677
0.521000000000000352,-0.655838451563345526
0.522000000000000353,-0.654371215169637366
0.523000000000000353,-0.653065341364821750
0.524000000000000354,-0.651915137282994772
0.525000000000000355,-0.650915002873173387
0.526000000000000356,-0.650059430964817220
0.527000000000000357,-0.649343007277976225
0.528000000000000358,-0.648760410379967123
0.529000000000000359,-0.648306411590580112
0.530000000000000360,-0.647975874837654953
0.531000000000000361,-0.647763756464935336
0.532000000000000361,-0.647665104993982998
0.533000000000000362,-0.647675060841974792
0.534000000000000363,-0.647788855997105673
0.535000000000000364,-0.648001813653321657
0.536000000000000365,-0.648309347806062863
0.537000000000000366,-0.648706962810651877
0.538000000000000367,-0.649190252904920051
0.539000000000000368,-0.649754901697675469
0.540000000000000369,-0.650396681624488715
0.541000000000000369,-0.651111453372350879
0.542000000000000370,-0.651895165274618660
0.543000000000000371,-0.652743852677689973
0.544000000000000372,-0.653653637280813271
0.545000000000000373,-0.654620726450357848
0.546000000000000374,-0.655641412509884614
0.547000000000000375,-0.656712072007302305
0.548000000000000376,-0.657829164960369805
0.549000000000000377,-0.658989234081750253
0.550000000000000377,-0.660188903984806230
0.551000000000000378,-0.661424880371320745
0.552000000000000379,-0.662693949202221466
0.553000000000000380,-0.663992975852448541
0.554000000000000381,-0.665318904250985943
0.555000000000000382,-0.666668756007126495
0.556000000000000383,-0.668039629523931255
0.557000000000000384,-0.669428699099899882
0.558000000000000385,-0.670833214019746160
0.559000000000000385,-0.672250497635245026
0.560000000000000386,-0.673677946436980202
0.561000000000000387,-0.675113029117904828
0.562000000000000388,-0.676553285629505341
0.563000000000000389,-0.677996326231399604
0.564000000000000390,-0.679439830535125244
0.565000000000000391,-0.680881546542896343
0.566000000000000392,-0.682319289682025376
0.567000000000000393,-0.683750941835746806
0.568000000000000393,-0.685174450371085042
0.569000000000000394,-0.686587827164457321
0.570000000000000395,-0.687989147625609254
0.571000000000000396,-0.689376549720513432
0.572000000000000397,-0.690748232993823041
0.573000000000000398,-0.692102457591408982
0.574000000000000399,-0.693437543283576874
0.575000000000000400,-0.694751868489434043
0.576000000000000401,-0.696043869302943818
0.577000000000000401,-0.697312038521141098
0.578000000000000402,-0.698554924674967270
0.579000000000000403,-0.699771131063158469
0.580000000000000404,-0.700959314789643573
0.581000000000000405,-0.702118185804828210
0.582000000000000406,-0.703246505951167888
0.583000000000000407,-0.704343088013407614
0.584000000000000408,-0.705406794773828727
0.585000000000000409,-0.706436538072852560
0.586000000000000409,-0.707431277875333775
0.587000000000000410,-0.708390021342829135
0.588000000000000411,-0.709311821912148699
0.589000000000000412,-0.710195778380476428
0.590000000000000413,-0.711041033997297234
0.591000000000000414,-0.711846775563409584
0.592000000000000415,-0.712612232537247370
0.593000000000000416,-0.713336676148727089
0.594000000000000417,-0.714019418520849714
0.595000000000000417,-0.714659811799244316
0.596000000000000418,-0.715257247289834086
0.597000000000000419,-0.715811154604821143
0.598000000000000420,-0.716321000817127240
0.599000000000000421,-0.716786289623463690
0.600000000000000422,-0.717206560516164493
0.601000000000000423,-0.717581387963912687
0.602000000000000424,-0.717910380601482823
0.603000000000000425,-0.718193180428624123
0.604000000000000425,-0.718429462018163045
0.605000000000000426,-0.718618931733431943
0.606000000000000427,-0.718761326955134727
0.607000000000000428,-0.718856415317650876
0.608000000000000429,-0.718903993954963960
0.609000000000000430,-0.718903888756130982
0.610000000000000431,-0.718855953630493705
0.611000000000000432,-0.718760069782559574
0.612000000000000433,-0.718616144996641060
0.613000000000000433,-0.718424112931313252
