# redgrapheneoxide_PROSCA-JS
# h[nm],U(h)[kJ/mol]
0.149999999999999994,76.198380853516454181
0.150999999999999995,74.361764562484140129
0.151999999999999996,72.692832447135288021
0.152999999999999997,71.049758538914517203
0.153999999999999998,69.397970564274174876
0.154999999999999999,67.744405667013154471
0.156000000000000000,66.105898288586629974
0.157000000000000001,64.496160747321098938
0.158000000000000002,62.922193782256030659
0.159000000000000002,61.384930886023710173
0.160000000000000003,59.881330144965090767
0.161000000000000004,58.406546982503961374
0.162000000000000005,56.955622749282817097
0.163000000000000006,55.524548945391508425
0.164000000000000007,54.110769317534298750
0.165000000000000008,52.713258973900835258
0.166000000000000009,51.332330324371831409
0.167000000000000010,49.969295291728499819
0.168000000000000010,48.626081829712212823
0.169000000000000011,47.304870905922953739
0.170000000000000012,46.007792716069651817
0.171000000000000013,44.736699721572691146
0.172000000000000014,43.493019147309261996
0.173000000000000015,42.277678019290128475
0.174000000000000016,41.091088544510704139
0.175000000000000017,39.933179507968688426
0.176000000000000018,38.803459386469775438
0.177000000000000018,37.701098242573394259
0.178000000000000019,36.625017544317898910
0.179000000000000020,35.573979410868254547
0.180000000000000021,34.546669110340943121
0.181000000000000022,33.541766748082707750
0.182000000000000023,32.558005882070808923
0.183000000000000024,31.594218248690388862
0.184000000000000025,30.649364880015632195
0.185000000000000026,29.722554671604303422
0.186000000000000026,28.813051960467362278
0.187000000000000027,27.920274944830858033
0.188000000000000028,27.043786869282207874
0.189000000000000029,26.183281856272287769
0.190000000000000030,25.338567127781026045
0.191000000000000031,24.509543163070510730
0.192000000000000032,23.696183107283307123
0.193000000000000033,22.898512502566056526
0.194000000000000034,22.116590174332571905
0.195000000000000034,21.350490881430996382
0.196000000000000035,20.600290137639625243
0.197000000000000036,19.866051437218960274
0.198000000000000037,19.147815970878394154
0.199000000000000038,18.445594800331122087
0.200000000000000039,17.759363368163874952
0.201000000000000040,17.089058152730380868
0.202000000000000041,16.434575232364501574
0.203000000000000042,15.795770496339661904
0.204000000000000042,15.172461228572297287
0.205000000000000043,14.564428791095199500
0.206000000000000044,13.971422145032345696
0.207000000000000045,13.393161964694371591
0.208000000000000046,12.829345123289076724
0.209000000000000047,12.279649354733932043
0.210000000000000048,11.743737923607787010
0.211000000000000049,11.221264163126800639
0.212000000000000050,10.711875768181499780
0.213000000000000050,10.215218756185873161
0.214000000000000051,9.730941032224908582
0.215000000000000052,9.258695516394663372
0.216000000000000053,8.798142810103801281
0.217000000000000054,8.348953394368905379
0.218000000000000055,7.910809366805959364
0.219000000000000056,7.483405735192116381
0.220000000000000057,7.066451294291345775
0.221000000000000058,6.659669119297824125
0.222000000000000058,6.262796713957373029
0.223000000000000059,5.875585854412092246
0.224000000000000060,5.497802171299461804
0.225000000000000061,5.129224512852678330
0.226000000000000062,4.769644130907884971
0.227000000000000063,4.418863730028626868
0.228000000000000064,4.076696417594409816
0.229000000000000065,3.742964589835692468
0.230000000000000066,3.417498785583705789
0.231000000000000066,3.100136536067844784
0.232000000000000067,2.790721235551655521
0.233000000000000068,2.489101054042777150
0.234000000000000069,2.195127909822908840
0.235000000000000070,1.908656516183222518
0.236000000000000071,1.629543513568885826
0.237000000000000072,1.357646695369466139
0.238000000000000073,1.092824332867861958
0.239000000000000073,0.834934602395230541
0.240000000000000074,0.583835115540809912
0.241000000000000075,0.339382551338113514
0.242000000000000076,0.101432387686708522
0.243000000000000077,-0.130161272135379646
0.244000000000000078,-0.355545783171476892
0.245000000000000079,-0.574869958927621161
0.246000000000000080,-0.788283994895545903
0.247000000000000081,-0.995939322911645109
0.248000000000000081,-1.197988404140648777
0.249000000000000082,-1.394584468647481756
0.250000000000000111,-1.585881209554301119
0.251000000000000112,-1.772032439689343875
0.252000000000000113,-1.953191718439625912
0.253000000000000114,-2.129511956234092729
0.254000000000000115,-2.301145003727437910
0.255000000000000115,-2.468241232337961666
0.256000000000000116,-2.630949112331911088
0.257000000000000117,-2.789414794152397015
0.258000000000000118,-2.943781698174228634
0.259000000000000119,-3.094190117537336970
0.260000000000000120,-3.240776838178974995
0.261000000000000121,-3.383674779655441167
0.262000000000000122,-3.523012659825615511
0.263000000000000123,-3.658914685964609337
0.264000000000000123,-3.791500274392531455
0.265000000000000124,-3.920883800242966011
0.266000000000000125,-4.047174378562098163
0.267000000000000126,-4.170475677523802105
0.268000000000000127,-4.290885764170835337
0.269000000000000128,-4.408496982747296400
0.270000000000000129,-4.523395865374381764
0.271000000000000130,-4.635663074539396078
0.272000000000000131,-4.745373376616740302
0.273000000000000131,-4.852595645418744219
0.274000000000000132,-4.957392894582596909
0.275000000000000133,-5.059822337436156836
0.276000000000000134,-5.159935472848848903
0.277000000000000135,-5.257778195462350368
0.278000000000000136,-5.353390928608565247
0.279000000000000137,-5.446808778156919217
0.280000000000000138,-5.538061705488180664
0.281000000000000139,-5.627174717766283862
0.282000000000000139,-5.714168073670679249
0.283000000000000140,-5.799057502758671490
0.284000000000000141,-5.881854436647812712
0.285000000000000142,-5.962566250241627230
0.286000000000000143,-6.041196511265801483
0.287000000000000144,-6.117745236435303546
0.288000000000000145,-6.192209152634696068
0.289000000000000146,-6.264581961561656698
0.290000000000000147,-6.334854606358136131
0.291000000000000147,-6.403015538831512643
0.292000000000000148,-6.469050985950259403
0.293000000000000149,-6.532945214382694488
0.294000000000000150,-6.594680791933472008
0.295000000000000151,-6.654238844819266419
0.296000000000000152,-6.711599309811987268
0.297000000000000153,-6.766741180364261865
0.298000000000000154,-6.819642745917379401
0.299000000000000155,-6.870281823675531641
0.300000000000000155,-6.918635982212100188
0.301000000000000156,-6.964682756352962301
0.302000000000000157,-7.008399852858699930
0.303000000000000158,-7.049765346501130736
0.304000000000000159,-7.088757866200326774
0.305000000000000160,-7.125356770955249885
0.306000000000000161,-7.159542315365183818
0.307000000000000162,-7.191295804599005415
0.308000000000000163,-7.220599738726031447
0.309000000000000163,-7.247437946374956752
0.310000000000000164,-7.271795707736723458
0.311000000000000165,-7.293659866972490136
0.312000000000000166,-7.313018934130167459
0.313000000000000167,-7.329863176711159944
0.314000000000000168,-7.344184701064068399
0.315000000000000169,-7.355977523813757912
0.316000000000000170,-7.365237633562612629
0.317000000000000171,-7.371963043126015691
0.318000000000000171,-7.376153832586358483
0.319000000000000172,-7.377812183469400154
0.320000000000000173,-7.376942404363323824
0.321000000000000174,-7.373550948314846032
0.322000000000000175,-7.367646422348579804
0.323000000000000176,-7.359239589464832143
0.324000000000000177,-7.348343363478366363
0.325000000000000178,-7.334972797065430150
0.326000000000000179,-7.319145063389998818
0.327000000000000179,-7.300879431681018161
0.328000000000000180,-7.280197237132638222
0.329000000000000181,-7.257121845497681356
0.330000000000000182,-7.231678612741174739
0.331000000000000183,-7.203894840116991993
0.332000000000000184,-7.173799725024688101
0.333000000000000185,-7.141424307997508159
0.334000000000000186,-7.106801416164989504
0.335000000000000187,-7.069965603525455222
0.336000000000000187,-7.030953088354884528
0.337000000000000188,-6.989801688068938645
0.338000000000000189,-6.946550751845215643
0.339000000000000190,-6.901241091302081188
0.340000000000000191,-6.853914909519585485
0.341000000000000192,-6.804615728677180009
0.342000000000000193,-6.753388316571094840
0.343000000000000194,-6.700278612263185885
0.344000000000000195,-6.645333651101047678
0.345000000000000195,-6.588601489337894357
0.346000000000000196,-6.530131128568653409
0.347000000000000197,-6.469972440187338414
0.348000000000000198,-6.408176090059167329
0.349000000000000199,-6.344793463589298632
0.350000000000000200,-6.279876591359048632
0.351000000000000201,-6.213478075489078378
0.352000000000000202,-6.145651016878336037
0.353000000000000203,-6.076448943456844276
0.354000000000000203,-6.005925739579980771
0.355000000000000204,-5.934135576681792479
0.356000000000000205,-5.861132845295113469
0.357000000000000206,-5.786972088536685987
0.358000000000000207,-5.711707937146132785
0.359000000000000208,-5.635395046159035637
0.360000000000000209,-5.558088033285481622
0.361000000000000210,-5.479841419057421170
0.362000000000000210,-5.400709568800174942
0.363000000000000211,-5.320746636475910840
0.364000000000000212,-5.240006510439710219
0.365000000000000213,-5.158542761141871935
0.366000000000000214,-5.076408590803684895
0.367000000000000215,-4.993656785087552841
0.368000000000000216,-4.910339666776586398
0.369000000000000217,-4.826509051473135692
0.370000000000000218,-4.742216205320555211
0.371000000000000218,-4.657511804747484163
0.372000000000000219,-4.572445898229386962
0.373000000000000220,-4.487067870057719787
0.374000000000000221,-4.401426406103093214
0.375000000000000222,-4.315569461554941810
0.376000000000000223,-4.229544230616903988
0.377000000000000224,-4.143397118133719914
0.378000000000000225,-4.057173713122619318
0.379000000000000226,-3.970918764179359073
0.380000000000000226,-3.884676156726738494
0.381000000000000227,-3.798488892070905454
0.382000000000000228,-3.712399068229088606
0.383000000000000229,-3.626447862490272733
0.384000000000000230,-3.540675515668775031
0.385000000000000231,-3.455121318009454878
0.386000000000000232,-3.369823596701723378
0.387000000000000233,-3.284819704958692910
0.388000000000000234,-3.200146012616729596
0.389000000000000234,-3.115837898210098267
0.390000000000000235,-3.031929742474532397
0.391000000000000236,-2.948454923233385649
0.392000000000000237,-2.865445811619375949
0.393000000000000238,-2.782933769585034689
0.394000000000000239,-2.700949148654559373
0.395000000000000240,-2.619521289870057945
0.396000000000000241,-2.538678524885107812
0.397000000000000242,-2.458448178158769704
0.398000000000000242,-2.378856570203632170
0.399000000000000243,-2.299929021841669474
0.400000000000000244,-2.221689859422143254
0.401000000000000245,-2.144162420956546633
0.402000000000000246,-2.067369063125840789
0.403000000000000247,-1.991331169116020927
0.404000000000000248,-1.916069157238854404
0.405000000000000249,-1.841602490295164429
0.406000000000000250,-1.767949685638947610
0.407000000000000250,-1.695128325901432031
0.408000000000000251,-1.623155070334930006
0.409000000000000252,-1.552045666737430718
0.410000000000000253,-1.481814963919529493
0.411000000000000254,-1.412476924676477896
0.412000000000000255,-1.344044639228908711
0.413000000000000256,-1.276530339096873634
0.414000000000000257,-1.209945411372715274
0.415000000000000258,-1.144300413359419455
0.416000000000000258,-1.079605087541941177
0.417000000000000259,-1.015868376860133093
0.418000000000000260,-0.953098440252844625
0.419000000000000261,-0.891302668443731960
0.420000000000000262,-0.830487699940456459
0.421000000000000263,-0.770659437219776478
0.422000000000000264,-0.711823063072201778
0.423000000000000265,-0.653983057080652630
0.424000000000000266,-0.597143212208866681
0.425000000000000266,-0.541306651475870870
0.426000000000000267,-0.486475844694131243
0.427000000000000268,-0.432652625249716594
0.428000000000000269,-0.379838206903850673
0.429000000000000270,-0.328033200596136554
0.430000000000000271,-0.277237631230526527
0.431000000000000272,-0.227450954426160784
0.432000000000000273,-0.178672073215919353
0.433000000000000274,-0.130899354676471319
0.434000000000000274,-0.084130646474344803
0.435000000000000275,-0.038363293313454824
0.436000000000000276,0.006405846729751375
0.437000000000000277,0.050180385996637614
0.438000000000000278,0.092964391174442801
0.439000000000000279,0.134762367373677749
0.440000000000000280,0.175579242365735022
0.441000000000000281,0.215420350990864484
0.442000000000000282,0.254291419745994507
0.443000000000000282,0.292198551561333397
0.444000000000000283,0.329148210773870742
0.445000000000000284,0.365147208305451054
0.446000000000000285,0.400202687052504669
0.447000000000000286,0.434322107493715581
0.448000000000000287,0.467513233521740179
0.449000000000000288,0.499784118504177310
0.450000000000000289,0.531143091578768489
0.451000000000000290,0.561598744187130738
0.452000000000000290,0.591159916850945821
0.453000000000000291,0.619835686194051938
0.454000000000000292,0.647635352213397075
0.455000000000000293,0.674568425801515659
0.456000000000000294,0.700644616522617558
0.457000000000000295,0.725873820644169276
0.458000000000000296,0.750266109425324901
0.459000000000000297,0.773831717663349350
0.460000000000000298,0.796581032498712260
0.461000000000000298,0.818524582479330354
0.462000000000000299,0.839673026884016793
0.463000000000000300,0.860037145305028838
0.464000000000000301,0.879627827489210312
0.465000000000000302,0.898456063437032215
0.466000000000000303,0.916532933758596458
0.467000000000000304,0.933869600285417212
0.468000000000000305,0.950477296936488081
0.469000000000000306,0.966367320837140165
0.470000000000000306,0.981551023688761015
0.471000000000000307,0.996039803387448131
0.472000000000000308,1.009845095889376543
0.473000000000000309,1.022978367320585669
0.474000000000000310,1.035451106328651116
0.475000000000000311,1.047274816673672282
0.476000000000000312,1.058461010055734564
0.477000000000000313,1.069021199176070969
0.478000000000000314,1.078966891028846797
0.479000000000000314,1.088309580420494971
0.480000000000000315,1.097060743713449638
0.481000000000000316,1.105231832790941393
0.482000000000000317,1.112834269239560747
0.483000000000000318,1.119879438746112843
0.484000000000000319,1.126378685705336391
0.485000000000000320,1.132343308034861273
0.486000000000000321,1.137784552193903176
0.487000000000000322,1.142713608401987324
0.488000000000000322,1.147141606054075336
0.489000000000000323,1.151079609328353515
0.490000000000000324,1.154538612982989987
0.491000000000000325,1.157529538338067265
0.492000000000000326,1.160063229438979215
0.493000000000000327,1.162150449397472141
0.494000000000000328,1.163801876906553678
0.495000000000000329,1.165028102925528053
0.496000000000000330,1.165839627531314759
0.497000000000000330,1.166246856932338982
0.498000000000000331,1.166260100641186792
0.499000000000000332,1.165889568802302989
0.500000000000000333,1.165145369670984365
0.501000000000000334,1.164037507239973568
0.502000000000000335,1.162575879009944968
0.503000000000000336,1.160770273900244121
0.504000000000000337,1.158630370296232837
0.505000000000000338,1.156165734229640751
0.506000000000000338,1.153385817688355797
0.507000000000000339,1.150299957052123068
0.508000000000000340,1.146917371650649997
0.509000000000000341,1.143247162440672815
0.510000000000000342,1.139298310798543268
0.511000000000000343,1.135079677424999156
0.512000000000000344,1.130600001358752049
0.513000000000000345,1.125867899095629898
0.514000000000000346,1.120891863810026257
0.515000000000000346,1.115680264675467326
0.516000000000000347,1.110241346281162000
0.517000000000000348,1.104583228141406304
0.518000000000000349,1.098713904294850607
0.519000000000000350,1.092641242990600059
0.520000000000000351,1.086372986458192136
0.521000000000000352,1.079916750758612487
0.522000000000000353,1.073280025713448271
0.523000000000000353,1.066470174909439184
0.524000000000000354,1.059494435775662158
0.525000000000000355,1.052359919730677218
0.526000000000000356,1.045073612397015683
0.527000000000000357,1.037642373880404367
0.528000000000000358,1.030072939111239982
0.529000000000000359,1.022371918245812861
0.530000000000000360,1.014545797124876803
0.531000000000000361,1.006600937787192951
0.532000000000000361,0.998543579035745310
0.533000000000000362,0.990379837054340961
0.534000000000000363,0.982115706072419714
0.535000000000000364,0.973757059075893716
0.536000000000000365,0.965309648561906153
0.537000000000000366,0.956779107335475332
0.538000000000000367,0.948170949345995218
0.539000000000000368,0.939490570561644311
0.540000000000000369,0.930743249879807832
0.541000000000000369,0.921934150071635150
0.542000000000000370,0.913068318758930575
0.543000000000000371,0.904150689421634568
0.544000000000000372,0.895186082434136998
0.545000000000000373,0.886179206128807073
0.546000000000000374,0.877134657885071056
0.547000000000000375,0.868056925242494670
0.548000000000000376,0.858950387036310437
0.549000000000000377,0.849819314553924898
0.550000000000000377,0.840667872710950781
0.551000000000000378,0.831500121245343116
0.552000000000000379,0.822320015928328041
0.553000000000000380,0.813131409790737947
0.554000000000000381,0.803938054363534826
0.555000000000000382,0.794743600931245409
0.556000000000000383,0.785551601797121912
0.557000000000000384,0.776365511558866239
0.558000000000000385,0.767188688393792506
0.559000000000000385,0.758024395352330460
0.560000000000000386,0.748875801658853923
0.561000000000000387,0.739745984018769565
0.562000000000000388,0.730637927930924969
0.563000000000000389,0.721554529004372003
0.564000000000000390,0.712498594278581310
0.565000000000000391,0.703472843546217863
0.566000000000000392,0.694479910677641810
0.567000000000000393,0.685522344946310480
0.568000000000000393,0.676602612354297639
0.569000000000000394,0.667723096957165696
0.570000000000000395,0.658886102187493439
0.571000000000000396,0.650093852176317988
0.572000000000000397,0.641348493071849601
0.573000000000000398,0.632652094354820171
0.574000000000000399,0.624006650149820929
0.575000000000000400,0.615414080532071472
0.576000000000000401,0.606876232829033690
0.577000000000000401,0.598394882916336912
0.578000000000000402,0.589971736507489464
0.579000000000000403,0.581608430436912460
0.580000000000000404,0.573306533935780571
0.581000000000000405,0.565067549900258315
0.582000000000000406,0.556892916151695783
0.583000000000000407,0.548784006688358583
0.584000000000000408,0.540742132928340946
0.585000000000000409,0.532768544943279854
0.586000000000000409,0.524864432682501159
0.587000000000000410,0.517030927187323908
0.588000000000000411,0.509269101795161383
0.589000000000000412,0.501579973333159512
0.590000000000000413,0.493964503301086488
0.591000000000000414,0.486423599043220301
0.592000000000000415,0.478958114908992871
0.593000000000000416,0.471568853402161703
0.594000000000000417,0.464256566318297925
0.595000000000000417,0.457021955870414054
0.596000000000000418,0.449865675802510800
0.597000000000000419,0.442788332490926251
0.598000000000000420,0.435790486033282687
0.599000000000000421,0.428872651324936904
0.600000000000000422,0.422035299122757945
0.601000000000000423,0.415278857096166021
0.602000000000000424,0.408603710865287184
0.603000000000000425,0.402010205026140877
0.604000000000000425,0.395498644162796509
0.605000000000000426,0.389069293846407871
0.606000000000000427,0.382722381621055541
0.607000000000000428,0.376458097976383910
0.608000000000000429,0.370276597306924082
0.609000000000000430,0.364177998858161267
0.610000000000000431,0.358162387659215764
0.611000000000000432,0.352229815442206495
0.612000000000000433,0.346380301548256442
0.613000000000000433,0.340613833820112899
0.614000000000000434,0.334930369481444168
0.615000000000000435,0.329329836002787812
0.616000000000000436,0.323812131954168414
0.617000000000000437,0.318377127844444552
