# redgrapheneoxide_CS-387-AC
# h[nm],U(h)[kJ/mol]
0.149999999999999994,114.591647993413900508
0.150999999999999995,111.398668275815069251
0.151999999999999996,109.184230390437363667
0.152999999999999997,107.127856254298265526
0.153999999999999998,104.941244277494504900
0.154999999999999999,102.587020736814679367
0.156000000000000000,100.124902298389059752
0.157000000000000001,97.634007783780120349
0.158000000000000002,95.178865486600585655
0.159000000000000002,92.799047690047260062
0.160000000000000003,90.510400801707760365
0.161000000000000004,88.310960451579106234
0.162000000000000005,86.187829111971566931
0.163000000000000006,84.123218739121014664
0.164000000000000007,82.098974363810071964
0.165000000000000008,80.099498069200052441
0.166000000000000009,78.113285132208858386
0.167000000000000010,76.133394145369152284
0.168000000000000010,74.157182557591596606
0.169000000000000011,72.185598914527616898
0.170000000000000012,70.222263319477391974
0.171000000000000013,68.272505292115525322
0.172000000000000014,66.342472031228311380
0.173000000000000015,64.438373825577201615
0.174000000000000016,62.565897830953836944
0.175000000000000017,60.729795905002518452
0.176000000000000018,58.933635198953581380
0.177000000000000018,57.179690049883710401
0.178000000000000019,55.468948748821695460
0.179000000000000020,53.801207517853050888
0.180000000000000021,52.175225297515098077
0.181000000000000022,50.588915760946107980
0.182000000000000023,49.039556603415412894
0.183000000000000024,47.524000076334729670
0.184000000000000025,46.038872580547014479
0.185000000000000026,44.580754672350593637
0.186000000000000026,43.146335934671448342
0.187000000000000027,41.732541765357822783
0.188000000000000028,40.336631226252457338
0.189000000000000029,38.956266705986067223
0.190000000000000030,37.589557322579352672
0.191000000000000031,36.235078786145791696
0.192000000000000032,34.891872918391960923
0.193000000000000033,33.559430244466021520
0.194000000000000034,32.237659090279578322
0.195000000000000034,30.926844485166004262
0.196000000000000035,29.627599929395746159
0.197000000000000036,28.340814775470004605
0.198000000000000037,27.067599621376473351
0.199000000000000038,25.809231747029691917
0.200000000000000039,24.567102260301588501
0.201000000000000040,23.342666269922904831
0.202000000000000041,22.137397078583266108
0.203000000000000042,20.952745096885681875
0.204000000000000042,19.790101920821363990
0.205000000000000043,18.650769793399945229
0.206000000000000044,17.535936484653770862
0.207000000000000045,16.446655471912059454
0.208000000000000046,15.383831181661097531
0.209000000000000047,14.348208962596761040
0.210000000000000048,13.340369393467279124
0.211000000000000049,12.360726485720672230
0.212000000000000050,11.409529316561027201
0.213000000000000050,10.486866619668010259
0.214000000000000051,9.592673865619445905
0.215000000000000052,8.726742379311048126
0.216000000000000053,7.888730064986821944
0.217000000000000054,7.078173338759297550
0.218000000000000055,6.294499901871871472
0.219000000000000056,5.537042023868856688
0.220000000000000057,4.805050041972426911
0.221000000000000058,4.097705820249073483
0.222000000000000058,3.414135948701361833
0.223000000000000059,2.753424497577835250
0.224000000000000060,2.114625175434022175
0.225000000000000061,1.496772770437201361
0.226000000000000062,0.898893782841237554
0.227000000000000063,0.320016182322547915
0.228000000000000064,-0.240821753090451507
0.229000000000000065,-0.784563539434926072
0.230000000000000066,-1.312127535834137992
0.231000000000000066,-1.824400930230217543
0.232000000000000067,-2.322234639184886706
0.233000000000000068,-2.806439088583807084
0.234000000000000069,-3.277780833614674982
0.235000000000000070,-3.736979969794701706
0.236000000000000071,-4.184708281911233563
0.237000000000000072,-4.621588074327169338
0.238000000000000073,-5.048191624007396960
0.239000000000000073,-5.465041196672489221
0.240000000000000074,-5.872609566520866409
0.241000000000000075,-6.271320980823693603
0.242000000000000076,-6.661552512251967428
0.243000000000000077,-7.043635743912536107
0.244000000000000078,-7.417858734632990725
0.245000000000000079,-7.784468214941074216
0.246000000000000080,-8.143671967339406237
0.247000000000000081,-8.495641347801441867
0.248000000000000081,-8.840513908836637569
0.249000000000000082,-9.178396087932927827
0.250000000000000111,-9.509365928631082099
0.251000000000000112,-9.833475804873716086
0.252000000000000113,-10.150755122568991595
0.253000000000000114,-10.461212975481984699
0.254000000000000115,-10.764840735598760091
0.255000000000000115,-11.061614560976549271
0.256000000000000116,-11.351497806789812017
0.257000000000000117,-11.634443327796409662
0.258000000000000118,-11.910395662775552950
0.259000000000000119,-12.179293093630196410
0.260000000000000120,-12.441069573800533021
0.261000000000000121,-12.695656522405183608
0.262000000000000122,-12.942984482119959111
0.263000000000000123,-13.182984640223718742
0.264000000000000123,-13.415590213497925021
0.265000000000000124,-13.640737698766320918
0.266000000000000125,-13.858367991815185860
0.267000000000000126,-14.068427378250026649
0.268000000000000127,-14.270868400533387899
0.269000000000000128,-14.465650606017330659
0.270000000000000129,-14.652741181245541924
0.271000000000000130,-14.832115478161728817
0.272000000000000131,-15.003757438131913204
0.273000000000000131,-15.167659919878769159
0.274000000000000132,-15.323824937542685376
0.275000000000000133,-15.472263815136960474
0.276000000000000134,-15.612997263659281089
0.277000000000000135,-15.746055387066004272
0.278000000000000136,-15.871477623217725039
0.279000000000000137,-15.989312625768107523
0.280000000000000138,-16.099618092800334068
0.281000000000000139,-16.202460547821942782
0.282000000000000139,-16.297915078513007359
0.283000000000000140,-16.386065038390221105
0.284000000000000141,-16.467001716303755643
0.285000000000000142,-16.540823978428157659
0.286000000000000143,-16.607637887147056688
0.287000000000000144,-16.667556300965664207
0.288000000000000145,-16.720698459319045526
0.289000000000000146,-16.767189555878122320
0.290000000000000147,-16.807160303693493120
0.291000000000000147,-16.840746495258834159
0.292000000000000148,-16.868088560324423497
0.293000000000000149,-16.889331124045991572
0.294000000000000150,-16.904622567818343271
0.295000000000000151,-16.914114594915098166
0.296000000000000152,-16.917961802838235030
0.297000000000000153,-16.916321264072909258
0.298000000000000154,-16.909352116745413497
0.299000000000000155,-16.897215166495080041
0.300000000000000155,-16.880072500694240034
0.301000000000000156,-16.858087115984716320
0.302000000000000157,-16.831422559943998607
0.303000000000000158,-16.800242587549377049
0.304000000000000159,-16.764710832974060395
0.305000000000000160,-16.724990497124359479
0.306000000000000161,-16.681244051212676283
0.307000000000000162,-16.633632956555395310
0.308000000000000163,-16.582317400688477704
0.309000000000000163,-16.527456049805959282
0.310000000000000164,-16.469205817447406304
0.311000000000000165,-16.407721649288358634
0.312000000000000166,-16.343156323824803877
0.313000000000000167,-16.275660268684884358
0.314000000000000168,-16.205381392251677397
0.315000000000000169,-16.132464930236466216
0.316000000000000170,-16.057053306804458970
0.317000000000000171,-15.979286009821928261
0.318000000000000171,-15.899299479766700216
0.319000000000000172,-15.817227011821298532
0.320000000000000173,-15.733198670649702677
0.321000000000000174,-15.647341217344504116
0.322000000000000175,-15.559778048020953989
0.323000000000000176,-15.470629143527167670
0.324000000000000177,-15.380011029735944916
0.325000000000000178,-15.288036747882221889
0.326000000000000179,-15.194815834412064959
0.327000000000000179,-15.100454309812343823
0.328000000000000180,-15.005054675895999949
0.329000000000000181,-14.908715921025841311
0.330000000000000182,-14.811533532768072163
0.331000000000000183,-14.713599517478257894
0.332000000000000184,-14.615002426333338903
0.333000000000000185,-14.515827387336733167
0.334000000000000186,-14.416156142836916487
0.335000000000000187,-14.316067092114201031
0.336000000000000187,-14.215635338606006144
0.337000000000000188,-14.114932741355437074
0.338000000000000189,-14.014027970284931968
0.339000000000000190,-13.912986564911994591
0.340000000000000191,-13.811870996140509504
0.341000000000000192,-13.710740730777896346
0.342000000000000193,-13.609652298443856822
0.343000000000000194,-13.508659360553560091
0.344000000000000195,-13.407812781073502606
0.345000000000000195,-13.307160698764736395
0.346000000000000196,-13.206748600643425817
0.347000000000000197,-13.106619396404278532
0.348000000000000198,-13.006813493567387141
0.349000000000000199,-12.907368873123633790
0.350000000000000200,-12.808321165468345981
0.351000000000000201,-12.709703726426422321
0.352000000000000202,-12.611547713185952801
0.353000000000000203,-12.513882159970250996
0.354000000000000203,-12.416734053290735318
0.355000000000000204,-12.320128406635298290
0.356000000000000205,-12.224088334458386385
0.357000000000000206,-12.128635125350324842
0.358000000000000207,-12.033788314273783371
0.359000000000000208,-11.939565753765959855
0.360000000000000209,-11.845983684014463222
0.361000000000000210,-11.753056801724330427
0.362000000000000210,-11.660798327702400101
0.363000000000000211,-11.569220073093685386
0.364000000000000212,-11.478332504212374943
0.365000000000000213,-11.388144805917402635
0.366000000000000214,-11.298664943489985291
0.367000000000000215,-11.209899722976755854
0.368000000000000216,-11.121854849968858758
0.369000000000000217,-11.034534986792879252
0.370000000000000218,-10.947943808095327967
0.371000000000000218,-10.862084054807258582
0.372000000000000219,-10.776957586480644835
0.373000000000000220,-10.692565431992543168
0.374000000000000221,-10.608907838617158248
0.375000000000000222,-10.525984319469836592
0.376000000000000223,-10.443793699330573332
0.377000000000000224,-10.362334158857811062
0.378000000000000225,-10.281603277206402325
0.379000000000000226,-10.201598073066197259
0.380000000000000226,-10.122315044140455242
0.381000000000000227,-10.043750205085137495
0.382000000000000228,-9.965899123932670634
0.383000000000000229,-9.888756957025208294
0.384000000000000230,-9.812318482484091220
0.385000000000000231,-9.736578132243975503
0.386000000000000232,-9.661530022680866026
0.387000000000000233,-9.587167983864826937
0.388000000000000234,-9.513485587468739624
0.389000000000000234,-9.440476173365604851
0.390000000000000235,-9.368132874947177058
0.391000000000000236,-9.296448643197647854
0.392000000000000237,-9.225416269556040660
0.393000000000000238,-9.155028407601809803
0.394000000000000239,-9.085277593597790968
0.395000000000000240,-9.016156265925191704
0.396000000000000241,-8.947656783445060213
0.397000000000000242,-8.879771442820599603
0.398000000000000242,-8.812492494834792467
0.399000000000000243,-8.745812159737237579
0.400000000000000244,-8.679722641653984994
0.401000000000000245,-8.614216142094026196
0.402000000000000246,-8.549284872585213080
0.403000000000000247,-8.484921066472377760
0.404000000000000248,-8.421116989909764428
0.405000000000000249,-8.357864952079395948
0.406000000000000250,-8.295157314666337101
0.407000000000000250,-8.232986500621473525
0.408000000000000251,-8.171345002241491073
0.409000000000000252,-8.110225388595486251
0.410000000000000253,-8.049620312326551286
0.411000000000000254,-7.989522515856447349
0.412000000000000255,-7.929924837020402961
0.413000000000000256,-7.870820214158736228
0.414000000000000257,-7.812201690690942613
0.415000000000000258,-7.754062419197516931
0.416000000000000258,-7.696395665033813671
0.417000000000000259,-7.639194809499660899
0.418000000000000260,-7.582453352587729789
0.419000000000000261,-7.526164915332829608
0.420000000000000262,-7.470323241783772161
0.421000000000000263,-7.414922200618642378
0.422000000000000264,-7.359955786423503454
0.423000000000000265,-7.305418120654098679
0.424000000000000266,-7.251303452299336705
0.425000000000000266,-7.197606158264515663
0.426000000000000267,-7.144320743491829440
0.427000000000000268,-7.091441840834891153
0.428000000000000269,-7.038964210703360536
0.429000000000000270,-6.986882740493236099
0.430000000000000271,-6.935192443817603802
0.431000000000000272,-6.883888459552201411
0.432000000000000273,-6.832966050709356587
0.433000000000000274,-6.782420603153529903
0.434000000000000274,-6.732247624170852873
0.435000000000000275,-6.682442740904710021
0.436000000000000276,-6.633001698668858026
0.437000000000000277,-6.583920359148808465
0.438000000000000278,-6.535194698502095889
0.439000000000000279,-6.486820805367230491
0.440000000000000280,-6.438794878790749188
0.441000000000000281,-6.391113226081374776
0.442000000000000282,-6.343772260599840784
0.443000000000000282,-6.296768499492315208
0.444000000000000283,-6.250098561375265760
0.445000000000000284,-6.203759163978864954
0.446000000000000285,-6.157747121755828168
0.447000000000000286,-6.112059343462258099
0.448000000000000287,-6.066692829716388680
0.449000000000000288,-6.021644670541229871
0.450000000000000289,-5.976912042896297628
0.451000000000000290,-5.932492208203660411
0.452000000000000290,-5.888382509873013149
0.453000000000000291,-5.844580370830204430
0.454000000000000292,-5.801083291053496183
0.455000000000000293,-5.757888845121285293
0.456000000000000294,-5.714994679775081465
0.457000000000000295,-5.672398511500974294
0.458000000000000296,-5.630098124132777215
0.459000000000000297,-5.588091366479728705
0.460000000000000298,-5.546376149981354864
0.461000000000000298,-5.504950446392028240
0.462000000000000299,-5.463812285497390953
0.463000000000000300,-5.422959752864691119
0.464000000000000301,-5.382390987628926204
0.465000000000000302,-5.342104180316456841
0.466000000000000303,-5.302097570707593022
0.467000000000000304,-5.262369445739472518
0.468000000000000305,-5.222918137450525577
0.469000000000000306,-5.183742020967452291
0.470000000000000306,-5.144839512535769543
0.471000000000000307,-5.106209067594539519
0.472000000000000308,-5.067849178896147500
0.473000000000000309,-5.029758374671483345
0.474000000000000310,-4.991935216841109302
0.475000000000000311,-4.954378299272642394
0.476000000000000312,-4.917086246084715562
0.477000000000000313,-4.880057709997517534
0.478000000000000314,-4.843291370730051781
0.479000000000000314,-4.806785933444145620
0.480000000000000315,-4.770540127234978556
0.481000000000000316,-4.734552703668120976
0.482000000000000317,-4.698822435362715488
0.483000000000000318,-4.663348114620605500
0.484000000000000319,-4.628128552101012261
0.485000000000000320,-4.593162575540402415
0.486000000000000321,-4.558449028517047807
0.487000000000000322,-4.523986769259837892
0.488000000000000322,-4.489774669500731008
0.489000000000000323,-4.455811613370387114
0.490000000000000324,-4.422096496336274996
0.491000000000000325,-4.388628224182674842
0.492000000000000326,-4.355405712031852339
0.493000000000000327,-4.322427883405802973
0.494000000000000328,-4.289693669327744097
0.495000000000000329,-4.257202007462728588
0.496000000000000330,-4.224951841296517685
0.497000000000000330,-4.192942119352067287
0.498000000000000331,-4.161171794442696026
0.499000000000000332,-4.129639822961304496
0.500000000000000333,-4.098345164204729940
0.501000000000000334,-4.067286779732453894
0.502000000000000335,-4.036463632758851006
0.503000000000000336,-4.005874687578205418
0.504000000000000337,-3.975518909021569236
0.505000000000000338,-3.945395261944729892
0.506000000000000338,-3.915502710746430637
0.507000000000000339,-3.885840218916004396
0.508000000000000340,-3.856406748609611412
0.509000000000000341,-3.827201260254307957
0.510000000000000342,-3.798222712179032179
0.511000000000000343,-3.769470060271815637
0.512000000000000344,-3.740942257662321246
0.513000000000000345,-3.712638254428975326
0.514000000000000346,-3.684556997329903716
0.515000000000000346,-3.656697429556854395
0.516000000000000347,-3.629058490511352542
0.517000000000000348,-3.601639115602418340
0.518000000000000349,-3.574438236064909180
0.519000000000000350,-3.547454778797948904
0.520000000000000351,-3.520687666222599432
0.521000000000000352,-3.494135816158097096
0.522000000000000353,-3.467798141715952909
0.523000000000000353,-3.441673551211191118
0.524000000000000354,-3.415760948090142080
0.525000000000000355,-3.390059230873994522
0.526000000000000356,-3.364567293117556090
0.527000000000000357,-3.339284023382565803
0.528000000000000358,-3.314208305224877193
0.529000000000000359,-3.289339017194984560
0.530000000000000360,-3.264675032851217740
0.531000000000000361,-3.240215220785090278
0.532000000000000361,-3.215958444658153947
0.533000000000000362,-3.191903563249888887
0.534000000000000363,-3.168049430516010290
0.535000000000000364,-3.144394895656704936
0.536000000000000365,-3.120938803194266864
0.537000000000000366,-3.097679993059645920
0.538000000000000367,-3.074617300687368715
0.539000000000000368,-3.051749557118461187
0.540000000000000369,-3.029075589110760358
0.541000000000000369,-3.006594219256329303
0.542000000000000370,-2.984304266105404668
0.543000000000000371,-2.962204544296521469
0.544000000000000372,-2.940293864692414161
0.545000000000000373,-2.918571034521240559
0.546000000000000374,-2.897034857522793772
0.547000000000000375,-2.875684134099292244
0.548000000000000376,-2.854517661470439283
0.549000000000000377,-2.833534233832343485
0.550000000000000377,-2.812732642519977233
0.551000000000000378,-2.792111676172884582
0.552000000000000379,-2.771670120903776624
0.553000000000000380,-2.751406760469745194
0.554000000000000381,-2.731320376445760090
0.555000000000000382,-2.711409748400248176
0.556000000000000383,-2.691673654072357813
0.557000000000000384,-2.672110869550790024
0.558000000000000385,-2.652720169453817611
0.559000000000000385,-2.633500327110355421
0.560000000000000386,-2.614450114741754483
0.561000000000000387,-2.595568303644195662
0.562000000000000388,-2.576853664371376418
0.563000000000000389,-2.558304966917360979
0.564000000000000390,-2.539920980899349701
0.565000000000000391,-2.521700475740202840
0.566000000000000392,-2.503642220850542888
0.567000000000000393,-2.485744985810255159
0.568000000000000393,-2.468007540549224110
0.569000000000000394,-2.450428655527154831
0.570000000000000395,-2.433007101912350034
0.571000000000000396,-2.415741651759247155
0.572000000000000397,-2.398631078184673804
0.573000000000000398,-2.381674155542587101
0.574000000000000399,-2.364869659597291562
0.575000000000000400,-2.348216367694909490
0.576000000000000401,-2.331713058933090998
0.577000000000000401,-2.315358514328827777
0.578000000000000402,-2.299151516984252019
0.579000000000000403,-2.283090852250364122
0.580000000000000404,-2.267175307888619429
0.581000000000000405,-2.251403674230247454
0.582000000000000406,-2.235774744333276054
0.583000000000000407,-2.220287314137169954
0.584000000000000408,-2.204940182615041877
0.585000000000000409,-2.189732151923341696
0.586000000000000409,-2.174662027549026266
0.587000000000000410,-2.159728618454107352
0.588000000000000411,-2.144930737217566552
0.589000000000000412,-2.130267200174599918
0.590000000000000413,-2.115736827553117205
0.591000000000000414,-2.101338443607509099
0.592000000000000415,-2.087070876749652193
0.593000000000000416,-2.072932959677069142
0.594000000000000417,-2.058923529498293714
0.595000000000000417,-2.045041427855410543
0.596000000000000418,-2.031285501043671449
0.597000000000000419,-2.017654600128327758
0.598000000000000420,-2.004147581058507210
0.599000000000000421,-1.990763304778261356
0.600000000000000422,-1.977500637334685507
0.601000000000000423,-1.964358449983177879
0.602000000000000424,-1.951335619289780166
0.603000000000000425,-1.938431027230665959
0.604000000000000425,-1.925643561288724825
0.605000000000000426,-1.912972114547271785
0.606000000000000427,-1.900415585780940386
0.607000000000000428,-1.887972879543639904
0.608000000000000429,-1.875642906253788045
0.609000000000000430,-1.863424582276602681
0.610000000000000431,-1.851316830003700176
