# redgrapheneoxide_CS-10955-AC
# h[nm],U(h)[kJ/mol]
0.200000000000000011,57.698380402047220628
0.201000000000000012,57.177132105660270156
0.202000000000000013,55.926604532565036720
0.203000000000000014,54.366949083383289576
0.204000000000000015,52.731016660404137042
0.205000000000000016,51.134291936902187103
0.206000000000000016,49.622064696825574970
0.207000000000000017,48.200494185568416583
0.208000000000000018,46.856432644658610798
0.209000000000000019,45.569535260127345566
0.210000000000000020,44.319187689106925632
0.211000000000000021,43.088046053782946387
0.212000000000000022,41.863444019516677486
0.213000000000000023,40.637528477095813173
0.214000000000000024,39.406702170562837750
0.215000000000000024,38.170750024761936459
0.216000000000000025,36.931884478785981685
0.217000000000000026,35.693847650294074469
0.218000000000000027,34.461142510222991575
0.219000000000000028,33.238422390728658229
0.220000000000000029,32.030041378755718995
0.221000000000000030,30.839752535918300680
0.222000000000000031,29.670532842353008363
0.223000000000000032,28.524510700337991409
0.224000000000000032,27.402971912017488165
0.225000000000000033,26.306421976192915224
0.226000000000000034,25.234685448723496393
0.227000000000000035,24.187026390864883041
0.228000000000000036,23.162277212373993507
0.229000000000000037,22.158966273383022383
0.230000000000000038,21.175437316599847293
0.231000000000000039,20.209956105318376274
0.232000000000000040,19.260801535053563072
0.233000000000000040,18.326339988073442555
0.234000000000000041,17.405082847892209941
0.235000000000000042,16.495727930187342736
0.236000000000000043,15.597186165310059636
0.237000000000000044,14.708595232070113212
0.238000000000000045,13.829322035878991670
0.239000000000000046,12.958955985127833088
0.240000000000000047,12.097294981234727018
0.241000000000000048,11.244325928360083822
0.242000000000000048,10.400201411669957707
0.243000000000000049,9.565214007044119171
0.244000000000000050,8.739769485100957525
0.245000000000000051,7.924359969683729688
0.246000000000000052,7.119537913939649521
0.247000000000000053,6.325891571769443722
0.248000000000000054,5.544022472694162040
0.249000000000000055,4.774525256433748588
0.250000000000000056,4.017970090826452179
0.251000000000000056,3.274887783293515042
0.252000000000000057,2.545757601318575869
0.253000000000000058,1.830997740316908651
0.254000000000000059,1.130958316430119792
0.255000000000000060,0.445916715616707815
0.256000000000000061,-0.223924902764215783
0.257000000000000062,-0.878440171555647131
0.258000000000000063,-1.517577386508695003
0.259000000000000064,-2.141356922178685451
0.260000000000000064,-2.749867430662009671
0.261000000000000065,-3.343261053112731140
0.262000000000000066,-3.921747862187730416
0.263000000000000067,-4.485589738749327537
0.264000000000000068,-5.035093869223070229
0.265000000000000069,-5.570606031747752596
0.266000000000000070,-6.092503820320872343
0.267000000000000071,-6.601189937083637105
0.268000000000000071,-7.097085664142125161
0.269000000000000072,-7.580624608235820183
0.270000000000000073,-8.052246794406617170
0.271000000000000074,-8.512393168785767017
0.272000000000000075,-8.961500555838233240
0.273000000000000076,-9.399997101964654433
0.274000000000000077,-9.828298225301480784
0.275000000000000078,-10.246803080882722625
0.276000000000000079,-10.655891541007818546
0.277000000000000079,-11.055921682653597315
0.278000000000000080,-11.447227767007385424
0.279000000000000081,-11.830118690610230914
0.280000000000000082,-12.204876883095113982
0.281000000000000083,-12.571757622997600023
0.282000000000000084,-12.930988740510027668
0.283000000000000085,-13.282770674253587373
0.284000000000000086,-13.627276848063928583
0.285000000000000087,-13.964654333333658798
0.286000000000000087,-14.295024762548631969
0.287000000000000088,-14.618485460210489890
0.288000000000000089,-14.935110758282863941
0.289000000000000090,-15.244953464564005685
0.290000000000000091,-15.548046453909307729
0.291000000000000092,-15.844404353949485653
0.292000000000000093,-16.134025298819246075
0.293000000000000094,-16.416892726383558454
0.294000000000000095,-16.692977196483436586
0.295000000000000095,-16.962238209785404308
0.296000000000000096,-17.224626008878125560
0.297000000000000097,-17.480083345290754693
0.298000000000000098,-17.728547198088747905
0.299000000000000099,-17.969950431616734221
0.300000000000000100,-18.204223381789262248
0.301000000000000101,-18.431295362070152066
0.302000000000000102,-18.651096081917554415
0.303000000000000103,-18.863556972003635792
0.304000000000000103,-19.068612411936182838
0.305000000000000104,-19.266200857516835754
0.306000000000000105,-19.456265865764084566
0.307000000000000106,-19.638757017010753714
0.308000000000000107,-19.813630734357911223
0.309000000000000108,-19.980851001632117914
0.310000000000000109,-20.140389981756513293
0.311000000000000110,-20.292228538110123282
0.312000000000000111,-20.436356662022905795
0.313000000000000111,-20.572773810037340070
0.314000000000000112,-20.701489154970595052
0.315000000000000113,-20.822521755136904176
0.316000000000000114,-20.935900646346187415
0.317000000000000115,-21.041664861485081417
0.318000000000000116,-21.139863382619466847
0.319000000000000117,-21.230555030635287039
0.320000000000000118,-21.313808297465065777
0.321000000000000119,-21.389701125934927006
0.322000000000000119,-21.458320642215799268
0.323000000000000120,-21.519762845778213745
0.324000000000000121,-21.574132261637192443
0.325000000000000122,-21.621541559534851018
0.326000000000000123,-21.662111144549548669
0.327000000000000124,-21.695968723443066040
0.328000000000000125,-21.723248850866763604
0.329000000000000126,-21.744092459344869894
0.330000000000000127,-21.758646376742682094
0.331000000000000127,-21.767062834710600328
0.332000000000000128,-21.769498971374748209
0.333000000000000129,-21.766116331322784561
0.334000000000000130,-21.757080365711551906
0.335000000000000131,-21.742559935103592750
0.336000000000000132,-21.722726817421772694
0.337000000000000133,-21.697755223199397534
0.338000000000000134,-21.667821320095409732
0.339000000000000135,-21.633102768443418285
0.340000000000000135,-21.593778269409515502
0.341000000000000136,-21.550027127147060924
0.342000000000000137,-21.502028826158703367
0.343000000000000138,-21.449962624905641206
0.344000000000000139,-21.394007166543296705
0.345000000000000140,-21.334340107510286089
0.346000000000000141,-21.271137764553927241
0.347000000000000142,-21.204574780641657128
0.348000000000000143,-21.134823810082245643
0.349000000000000143,-21.062055223064049869
0.350000000000000144,-20.986436829710076069
0.351000000000000145,-20.908133623650147825
0.352000000000000146,-20.827307545019500878
0.353000000000000147,-20.744117262710545901
0.354000000000000148,-20.658717975628881902
0.355000000000000149,-20.571261232637279903
0.356000000000000150,-20.481894770810846751
0.357000000000000151,-20.390762371572499490
0.358000000000000151,-20.298003734231031103
0.359000000000000152,-20.203754366402598919
0.360000000000000153,-20.108145490761391017
0.361000000000000154,-20.011303967535280179
0.362000000000000155,-19.913352232137537356
0.363000000000000156,-19.814408247305767219
0.364000000000000157,-19.714585469103596438
0.365000000000000158,-19.613992826129681646
0.366000000000000159,-19.512734711270603327
0.367000000000000159,-19.410910985330463774
0.368000000000000160,-19.308616991869335777
0.369000000000000161,-19.205943582584630747
0.370000000000000162,-19.102977152574453612
0.371000000000000163,-18.999799684829426383
0.372000000000000164,-18.896488803308578497
0.373000000000000165,-18.793117833966690000
0.374000000000000166,-18.689755873113384155
0.375000000000000167,-18.586467862498889048
0.376000000000000167,-18.483314670537527746
0.377000000000000168,-18.380353179096950100
0.378000000000000169,-18.277636375299177729
0.379000000000000170,-18.175213447798590494
0.380000000000000171,-18.073129887021160300
0.381000000000000172,-17.971427588869751446
0.382000000000000173,-17.870144961420017182
0.383000000000000174,-17.769317034153068846
0.384000000000000175,-17.668975569290942929
0.385000000000000175,-17.569149174822435100
0.386000000000000176,-17.469863418827664248
0.387000000000000177,-17.371140944730012023
0.388000000000000178,-17.273001587125513367
0.389000000000000179,-17.175462487859022076
0.390000000000000180,-17.078538212037550181
0.391000000000000181,-16.982240863689845867
0.392000000000000182,-16.886580200801265761
0.393000000000000183,-16.791563749471205114
0.394000000000000183,-16.697196916958976232
0.395000000000000184,-16.603483103401572407
0.396000000000000185,-16.510423812004074051
0.397000000000000186,-16.418018757520076889
0.398000000000000187,-16.326265972855551922
0.399000000000000188,-16.235161913645086429
0.400000000000000189,-16.144701560664234563
0.401000000000000190,-16.054878519956055527
0.402000000000000191,-15.965685120563595234
0.403000000000000191,-15.877112509772882021
0.404000000000000192,-15.789150745783851804
0.405000000000000193,-15.701788887737905043
0.406000000000000194,-15.615015083042568023
0.407000000000000195,-15.528816651944016058
0.408000000000000196,-15.443180169308277527
0.409000000000000197,-15.358091543581707583
0.410000000000000198,-15.273536092909926865
0.411000000000000199,-15.189498618402874186
0.412000000000000199,-15.105963474541695746
0.413000000000000200,-15.022914636730197557
0.414000000000000201,-14.940335766000691464
0.415000000000000202,-14.858210270890150895
0.416000000000000203,-14.776521366508816868
0.417000000000000204,-14.695252130828418302
0.418000000000000205,-14.614385558222512174
0.419000000000000206,-14.533904610295811821
0.420000000000000207,-14.453792264043556770
0.421000000000000207,-14.374031557385938740
0.422000000000000208,-14.294605632125712447
0.423000000000000209,-14.215497774380533968
0.424000000000000210,-14.136691452544038583
0.425000000000000211,-14.058170352832126682
0.426000000000000212,-13.979918412473278266
0.427000000000000213,-13.901919850603112749
0.428000000000000214,-13.824159196925432269
0.429000000000000214,-13.746621318202931761
0.430000000000000215,-13.669291442641949175
0.431000000000000216,-13.592155182236648869
0.432000000000000217,-13.515198553138201731
0.433000000000000218,-13.438407994115413757
0.434000000000000219,-13.361770383173233512
0.435000000000000220,-13.285273052395700333
0.436000000000000221,-13.208903801079765472
0.437000000000000222,-13.132650907226150139
0.438000000000000222,-13.056503137453182362
0.439000000000000223,-12.980449755398746348
0.440000000000000224,-12.904480528675128070
0.441000000000000225,-12.828585734440537180
0.442000000000000226,-12.752756163650570187
0.443000000000000227,-12.676983124051503182
0.444000000000000228,-12.601258441976778357
0.445000000000000229,-12.525574463006602599
0.446000000000000230,-12.449924051549487558
0.447000000000000230,-12.374300589403571138
0.448000000000000231,-12.298697973354048685
0.449000000000000232,-12.223110611861725872
0.450000000000000233,-12.147533420896737155
0.451000000000000234,-12.071961818969489499
0.452000000000000235,-11.996391721410153863
0.453000000000000236,-11.920819533945934410
0.454000000000000237,-11.845242145624608199
0.455000000000000238,-11.769656921130673410
0.456000000000000238,-11.694061692539552411
0.457000000000000239,-11.618454750553480537
0.458000000000000240,-11.542834835261407633
0.459000000000000241,-11.467201126463681504
0.460000000000000242,-11.391553233600959061
0.461000000000000243,-11.315891185325124724
0.462000000000000244,-11.240215418748862319
0.463000000000000245,-11.164526768408688184
0.464000000000000246,-11.088826454975352576
0.465000000000000246,-11.013116073743656642
0.466000000000000247,-10.937397582932653961
0.467000000000000248,-10.861673291825736598
0.468000000000000249,-10.785945848778874634
0.469000000000000250,-10.710218229123801947
0.470000000000000251,-10.634493722991937403
0.471000000000000252,-10.558775923083180359
0.472000000000000253,-10.483068712403115441
0.473000000000000254,-10.407376251990175575
0.474000000000000254,-10.331702968653930341
0.475000000000000255,-10.256053542743915230
0.476000000000000256,-10.180432895967735263
0.477000000000000257,-10.104846179275913443
0.478000000000000258,-10.029298760829819415
0.479000000000000259,-9.953796214068301396
0.480000000000000260,-9.878344305887388543
0.481000000000000261,-9.802948984946535660
0.482000000000000262,-9.727616370114080979
0.483000000000000262,-9.652352739063637443
0.484000000000000263,-9.577164517032141333
0.485000000000000264,-9.502058265749706578
0.486000000000000265,-9.427040672550443645
0.487000000000000266,-9.352118539672684250
0.488000000000000267,-9.277298773756344374
0.489000000000000268,-9.202588375544426214
0.490000000000000269,-9.127994429794956233
0.491000000000000270,-9.053524095409057892
0.492000000000000270,-8.979184595780131062
0.493000000000000271,-8.904983209368639407
0.494000000000000272,-8.830927260506372889
0.495000000000000273,-8.757024110433352604
0.496000000000000274,-8.683281148570433317
0.497000000000000275,-8.609705784029610953
0.498000000000000276,-8.536305437364037019
0.499000000000000277,-8.463087532559073978
0.500000000000000222,-8.390059489265237147
0.501000000000000334,-8.317228715273648376
0.502000000000000224,-8.244602599234200468
0.503000000000000336,-8.172188503615936739
0.504000000000000226,-8.099993757909544456
0.505000000000000338,-8.028025652070535756
0.506000000000000227,-7.956291430202464987
0.507000000000000339,-7.884798284478231167
0.508000000000000229,-7.813553349298118178
0.509000000000000341,-7.742563695682179059
0.510000000000000231,-7.671836325895258213
0.511000000000000343,-7.601378168301549110
0.512000000000000233,-7.531196072446702416
0.513000000000000345,-7.461296804364022428
0.514000000000000234,-7.391687042102381255
0.515000000000000346,-7.322373371471994297
0.516000000000000236,-7.253362282005364925
0.517000000000000348,-7.184660163129459320
0.518000000000000238,-7.116273300545913116
0.519000000000000350,-7.048207872815228647
0.520000000000000240,-6.980469948141520220
0.521000000000000352,-6.913065481353656949
0.522000000000000242,-6.846000311079066591
0.523000000000000353,-6.779280157105968208
0.524000000000000243,-6.712910617930188728
0.525000000000000355,-6.646897168482189144
0.526000000000000245,-6.581245158030405662
0.527000000000000357,-6.515959808256353014
0.528000000000000247,-6.451046211497681426
0.529000000000000359,-6.386509329154501202
0.530000000000000249,-6.322353990255081158
0.531000000000000361,-6.258584890176366322
0.532000000000000250,-6.195206589515313667
0.533000000000000362,-6.132223513106496604
0.534000000000000252,-6.069639949182017880
0.535000000000000364,-6.007460048669217123
0.536000000000000254,-5.945687824622285511
0.537000000000000366,-5.884327151783165455
0.538000000000000256,-5.823381766268139970
0.539000000000000368,-5.762855265375359082
0.540000000000000258,-5.702751107509871353
0.541000000000000369,-5.643072612221463835
0.542000000000000259,-5.583822960351949583
0.543000000000000371,-5.525005194287393451
0.544000000000000261,-5.466622218311786519
0.545000000000000373,-5.408676799058052431
0.546000000000000263,-5.351171566052849826
0.547000000000000375,-5.294109012351016830
0.548000000000000265,-5.237491495256607621
0.549000000000000377,-5.181321237126187640
0.550000000000000266,-5.125600326251476879
0.551000000000000378,-5.070330717817348010
0.552000000000000268,-5.015514234932127557
0.553000000000000380,-4.961152569726526629
0.554000000000000270,-4.907247284518222230
0.555000000000000382,-4.853799813038508049
0.556000000000000272,-4.800811461718236473
0.557000000000000384,-4.748283411029558643
0.558000000000000274,-4.696216716880855735
0.559000000000000385,-4.644612312061483728
0.560000000000000275,-4.593471007733866074
0.561000000000000387,-4.542793494969740387
0.562000000000000277,-4.492580346328095331
0.563000000000000389,-4.442832017471937789
0.564000000000000279,-4.393548848821427377
0.565000000000000391,-4.344731067240690692
0.566000000000000281,-4.296378787755981143
0.567000000000000393,-4.248492015302652192
0.568000000000000282,-4.201070646498791028
0.569000000000000394,-4.154114471442957424
0.570000000000000284,-4.107623175534194537
0.571000000000000396,-4.061596341311788372
0.572000000000000286,-4.016033450313085673
0.573000000000000398,-3.970933884946979298
0.574000000000000288,-3.926296930381474759
0.575000000000000400,-3.882121776443185901
0.576000000000000290,-3.838407519527125888
0.577000000000000401,-3.795153164514884825
0.578000000000000291,-3.752357626699656556
0.579000000000000403,-3.710019733716297452
0.580000000000000293,-3.668138227475049806
0.581000000000000405,-3.626711766097138856
0.582000000000000295,-3.585738925851103431
0.583000000000000407,-3.545218203088110531
0.584000000000000297,-3.505148016175186232
0.585000000000000409,-3.465526707424839259
0.586000000000000298,-3.426352545020027840
0.587000000000000410,-3.387623724933035874
0.588000000000000300,-3.349338372837389333
0.589000000000000412,-3.311494546011394480
0.590000000000000302,-3.274090235232557600
0.591000000000000414,-3.237123366661648127
0.592000000000000304,-3.200591803715582273
0.593000000000000416,-3.164493348928102634
0.594000000000000306,-3.128825745797532587
0.595000000000000417,-3.093586680620588947
0.596000000000000307,-3.058773784311654254
0.597000000000000419,-3.024384634206596534
0.598000000000000309,-2.990416755850588082
0.599000000000000421,-2.956867624769079050
0.600000000000000311,-2.923734668221507960
0.601000000000000423,-2.891015266936901362
0.602000000000000313,-2.858706756831110862
0.603000000000000425,-2.826806430704790873
0.604000000000000314,-2.795311539922059385
0.605000000000000426,-2.764219296068936238
0.606000000000000316,-2.733526872591544254
0.607000000000000428,-2.703231406413324045
0.608000000000000318,-2.673329999531211865
0.609000000000000430,-2.643819720590145472
0.610000000000000320,-2.614697606435880672
0.611000000000000432,-2.585960663645548330
0.612000000000000322,-2.557605870035984275
0.613000000000000433,-2.529630176149328946
0.614000000000000323,-2.502030506715923863
0.615000000000000435,-2.474803762094145210
0.616000000000000325,-2.447946819687153663
0.617000000000000437,-2.421456535336295790
0.618000000000000327,-2.395329744691174323
0.619000000000000439,-2.369563264556151516
0.620000000000000329,-2.344153894213346412
0.621000000000000441,-2.319098416721957712
0.622000000000000330,-2.294393600193965987
0.623000000000000442,-2.270036199046084668
0.624000000000000332,-2.246022955228102802
0.625000000000000444,-2.222350599427469042
0.626000000000000334,-2.199015852250296721
0.627000000000000446,-2.176015425378703405
0.628000000000000336,-2.153346022704645701
0.629000000000000448,-2.131004341440227101
0.630000000000000338,-2.108987073204681817
0.631000000000000449,-2.087290905087968440
0.632000000000000339,-2.065912520691255416
0.633000000000000451,-2.044848601144271250
0.634000000000000341,-2.024095826099765905
0.635000000000000453,-2.003650874705129148
0.636000000000000343,-1.983510426551381656
0.637000000000000455,-1.963671162599663234
0.638000000000000345,-1.944129766085431310
0.639000000000000457,-1.924882923400440315
0.640000000000000346,-1.905927324952866986
0.641000000000000458,-1.887259666005553616
0.642000000000000348,-1.868876647492787368
0.643000000000000460,-1.850774976815615203
0.644000000000000350,-1.832951368616112076
0.645000000000000462,-1.815402545530609757
0.646000000000000352,-1.798125238922315905
0.647000000000000464,-1.781116189593343835
0.648000000000000353,-1.764372148476619273
0.649000000000000465,-1.747889877307630568
0.650000000000000355,-1.731666149276549493
0.651000000000000467,-1.715697749660704208
0.652000000000000357,-1.699981476437869121
0.653000000000000469,-1.684514140880448263
0.654000000000000359,-1.669292568130967824
0.655000000000000471,-1.654313597758960697
0.656000000000000361,-1.639574084299685763
0.657000000000000473,-1.625070897774768763
0.658000000000000362,-1.610800924195178840
