# redgrapheneoxide_CS-8142-AC
# h[nm],U(h)[kJ/mol]
0.149999999999999994,92.049454125084636757
0.150999999999999995,89.123336761444420517
0.151999999999999996,86.877247150757213490
0.152999999999999997,84.767543861465810551
0.153999999999999998,82.604051978720491434
0.154999999999999999,80.361442691404789684
0.156000000000000000,78.076967845773324939
0.157000000000000001,75.799453687813581837
0.158000000000000002,73.567458015237846780
0.159000000000000002,71.403015040557676230
0.160000000000000003,69.312891957474747073
0.161000000000000004,67.292764774381396364
0.162000000000000005,65.331874766856543602
0.163000000000000006,63.417016253829629591
0.164000000000000007,61.535443896848562417
0.165000000000000008,59.676680984841560473
0.166000000000000009,57.833395250386203656
0.167000000000000010,56.001573327921711609
0.168000000000000010,54.180224285405131468
0.169000000000000011,52.370810611074240626
0.170000000000000012,50.576561558936269591
0.171000000000000013,48.801779902640532782
0.172000000000000014,47.051214439424668967
0.173000000000000015,45.329539224918235618
0.174000000000000016,43.640956814043406098
0.175000000000000017,41.988926051015155849
0.176000000000000018,40.376004073271722916
0.177000000000000018,38.803785938306184278
0.178000000000000019,37.272922482522965026
0.179000000000000020,35.783196662770855312
0.180000000000000021,34.333639882006799837
0.181000000000000022,32.922672010177358004
0.182000000000000023,31.548251493685768310
0.183000000000000024,30.208024755140645112
0.184000000000000025,28.899466786113805483
0.185000000000000026,27.620007284362323219
0.186000000000000026,26.367138804751228065
0.187000000000000027,25.138505149230230273
0.188000000000000028,23.931969617965304309
0.189000000000000029,22.745663804776484085
0.190000000000000030,21.578018381607833476
0.191000000000000031,20.427777821177148354
0.192000000000000032,19.294001298095370345
0.193000000000000033,18.176052128978195555
0.194000000000000034,17.073578100361110899
0.195000000000000034,15.986484924060519575
0.196000000000000035,14.914904882569308242
0.197000000000000036,13.859162506749928667
0.198000000000000037,12.819738884402065437
0.199000000000000038,11.797235946857083988
0.200000000000000039,10.792341833423737540
0.201000000000000040,9.805798198863598714
0.202000000000000041,8.838370112978447324
0.203000000000000042,7.890819007491725934
0.204000000000000042,6.963878955577676777
0.205000000000000043,6.058236424147513510
0.206000000000000044,5.174513517820643393
0.207000000000000045,4.313254635142929061
0.208000000000000046,3.474916380309066799
0.209000000000000047,2.659860515348862808
0.210000000000000048,1.868349696236424551
0.211000000000000049,1.100545709431728802
0.212000000000000050,0.356509910764166327
0.213000000000000050,-0.363794435764349222
0.214000000000000051,-1.060498217683263800
0.215000000000000052,-1.733821220118716422
0.216000000000000053,-2.384065830493161453
0.217000000000000054,-3.011609954910842379
0.218000000000000055,-3.616899377599477994
0.219000000000000056,-4.200439771633698527
0.220000000000000057,-4.762788545391112294
0.221000000000000058,-5.304546685453813026
0.222000000000000058,-5.826350733513392832
0.223000000000000059,-6.328865012669092849
0.224000000000000060,-6.812774197641218166
0.225000000000000061,-7.278776304067139158
0.226000000000000062,-7.727576154343372750
0.227000000000000063,-8.159879361499196904
0.228000000000000064,-8.576386858354108966
0.229000000000000065,-8.977789986704728165
0.230000000000000066,-9.364766150448698312
0.231000000000000066,-9.737975027309150988
0.232000000000000067,-10.098055326072039151
0.233000000000000068,-10.445622069884468175
0.234000000000000069,-10.781264381065946978
0.235000000000000070,-11.105543738937225129
0.236000000000000071,-11.418992679251960709
0.237000000000000072,-11.722113901808301151
0.238000000000000073,-12.015379751604532643
0.239000000000000073,-12.299232038378127285
0.240000000000000074,-12.574082159430862049
0.241000000000000075,-12.840311491196947813
0.242000000000000076,-13.098272015972588278
0.243000000000000077,-13.348287151515203064
0.244000000000000078,-13.590652752767738320
0.245000000000000079,-13.825638256705582663
0.246000000000000080,-14.053487943185473341
0.247000000000000081,-14.274422286649544489
0.248000000000000081,-14.488639375560575573
0.249000000000000082,-14.696316378481665055
0.250000000000000111,-14.897611037735719819
0.251000000000000112,-15.092663173560358914
0.252000000000000113,-15.281596183595400618
0.253000000000000114,-15.464518524381697162
0.254000000000000115,-15.641525163305692203
0.255000000000000115,-15.812698991078420363
0.256000000000000116,-15.978112186388685245
0.257000000000000117,-16.137827525811800911
0.258000000000000118,-16.291899633385561685
0.259000000000000119,-16.440376165485371729
0.260000000000000120,-16.583298927740621309
0.261000000000000121,-16.720704921737066684
0.262000000000000122,-16.852627320150048718
0.263000000000000123,-16.979096369752824103
0.264000000000000123,-17.100140222450335159
0.265000000000000124,-17.215785695104699471
0.266000000000000125,-17.326058959451422936
0.267000000000000126,-17.430986163859529370
0.268000000000000127,-17.530593989071395100
0.269000000000000128,-17.624910140373295064
0.270000000000000129,-17.713963778902670043
0.271000000000000130,-17.797785894997613099
0.272000000000000131,-17.876409626643376072
0.273000000000000131,-17.949870526175345731
0.274000000000000132,-18.018206778462353412
0.275000000000000133,-18.081459373823381753
0.276000000000000134,-18.139672238928774561
0.277000000000000135,-18.192892328907635857
0.278000000000000136,-18.241169683831223836
0.279000000000000137,-18.284557452669368161
0.280000000000000138,-18.323111887728359193
0.281000000000000139,-18.356892312475668660
0.282000000000000139,-18.385961065543334314
0.283000000000000140,-18.410383423578913664
0.284000000000000141,-18.430227505483678385
0.285000000000000142,-18.445564160443957746
0.286000000000000143,-18.456466842024475739
0.287000000000000144,-18.463011470453761120
0.288000000000000145,-18.465276285093931818
0.289000000000000146,-18.463341688948435859
0.290000000000000147,-18.457290086926533945
0.291000000000000147,-18.447205719449716099
0.292000000000000148,-18.433174492856416293
0.293000000000000149,-18.415283807935470151
0.294000000000000150,-18.393622387798178153
0.295000000000000151,-18.368280106183188849
0.296000000000000152,-18.339347817177010569
0.297000000000000153,-18.306917187228481936
0.298000000000000154,-18.271080530234989681
0.299000000000000155,-18.231930646384665096
0.300000000000000155,-18.189560665349798541
0.301000000000000156,-18.144063894344057530
0.302000000000000157,-18.095533671478570170
0.303000000000000158,-18.044063224779979038
0.304000000000000159,-17.989745537167110001
0.305000000000000160,-17.932673217620912709
0.306000000000000161,-17.872938378726484387
0.307000000000000162,-17.810632520713710392
0.308000000000000163,-17.745846422076162696
0.309000000000000163,-17.678670036805080201
0.310000000000000164,-17.609192398236842791
0.311000000000000165,-17.537501529477300011
0.312000000000000166,-17.463684360335992807
0.313000000000000167,-17.387826650675442863
0.314000000000000168,-17.310012920056735197
0.315000000000000169,-17.230326383541751056
0.316000000000000170,-17.148848893494061940
0.317000000000000171,-17.065660887205147844
0.318000000000000171,-16.980841340159464892
0.319000000000000172,-16.894467724741375037
0.320000000000000173,-16.806615974178207296
0.321000000000000174,-16.717360451506788621
0.322000000000000175,-16.626773923346370054
0.323000000000000176,-16.534927538257008450
0.324000000000000177,-16.441890809460847578
0.325000000000000178,-16.347731601702953697
0.326000000000000179,-16.252516122029213363
0.327000000000000179,-16.156308914260058884
0.328000000000000180,-16.059172856941479779
0.329000000000000181,-15.961169164558516087
0.330000000000000182,-15.862357391799481121
0.331000000000000183,-15.762795440665200886
0.332000000000000184,-15.662539570221611029
0.333000000000000185,-15.561644408800315631
0.334000000000000186,-15.460162968457709098
0.335000000000000187,-15.358146661509376685
0.336000000000000187,-15.255645318963365398
0.337000000000000188,-15.152707210682322625
0.338000000000000189,-15.049379067111882335
0.339000000000000190,-14.945706102419212158
0.340000000000000191,-14.841732038892825329
0.341000000000000192,-14.737499132462081874
0.342000000000000193,-14.633048199201169837
0.343000000000000194,-14.528418642690059670
0.344000000000000195,-14.423648482111053326
0.345000000000000195,-14.318774380966974746
0.346000000000000196,-14.213831676313052554
0.347000000000000197,-14.108854408401466429
0.348000000000000198,-14.003875350643644637
0.349000000000000199,-13.898926039801414944
0.350000000000000200,-13.794036806324431410
0.351000000000000201,-13.689236804756536259
0.352000000000000202,-13.584554044139707685
0.353000000000000203,-13.480015418349344358
0.354000000000000203,-13.375646736299865225
0.355000000000000204,-13.271472751964385139
0.356000000000000205,-13.167517194157179361
0.357000000000000206,-13.063802796031975362
0.358000000000000207,-12.960351324253270633
0.359000000000000208,-12.857183607802349812
0.360000000000000209,-12.754319566383081508
0.361000000000000210,-12.651778238396625298
0.362000000000000210,-12.549577808457353711
0.363000000000000211,-12.447735634425761475
0.364000000000000212,-12.346268273937184290
0.365000000000000213,-12.245191510407909874
0.366000000000000214,-12.144520378503251834
0.367000000000000215,-12.044269189054359614
0.368000000000000216,-11.944451553413353295
0.369000000000000217,-11.845080407238086195
0.370000000000000218,-11.746168033700433497
0.371000000000000218,-11.647726086113483035
0.372000000000000219,-11.549765609974993907
0.373000000000000220,-11.452297064426216977
0.374000000000000221,-11.355330343126444959
0.375000000000000222,-11.258874794545192799
0.376000000000000223,-11.162939241675209345
0.377000000000000224,-11.067532001170580003
0.378000000000000225,-10.972660901915327614
0.379000000000000226,-10.878333303028707491
0.380000000000000226,-10.784556111314618221
0.381000000000000227,-10.691335798162702631
0.382000000000000228,-10.598678415910130823
0.383000000000000229,-10.506589613673060768
0.384000000000000230,-10.415074652657555276
0.385000000000000231,-10.324138420960306206
0.386000000000000232,-10.233785447869625074
0.387000000000000233,-10.144019917677727705
0.388000000000000234,-10.054845683015496860
0.389000000000000234,-9.966266277721262057
0.390000000000000235,-9.878284929255029212
0.391000000000000236,-9.790904570670171836
0.392000000000000237,-9.704127852154167400
0.393000000000000238,-9.617957152150481193
0.394000000000000239,-9.532394588073348274
0.395000000000000240,-9.447442026627427936
0.396000000000000241,-9.363101093744166548
0.397000000000000242,-9.279373184146539444
0.398000000000000242,-9.196259470553989956
0.399000000000000243,-9.113760912538968029
0.400000000000000244,-9.031878265046483278
0.401000000000000245,-8.950612086588041194
0.402000000000000246,-8.869962747120855084
0.403000000000000247,-8.789930435623285021
0.404000000000000248,-8.710515167377177903
0.405000000000000249,-8.631716790967564279
0.406000000000000250,-8.553534995009936637
0.407000000000000250,-8.475969314615088734
0.408000000000000251,-8.399019137601317908
0.409000000000000252,-8.322683710463547158
0.410000000000000253,-8.246962144108534787
0.411000000000000254,-8.171853419365335824
0.412000000000000255,-8.097356392279687398
0.413000000000000256,-8.023469799200951158
0.414000000000000257,-7.950192261669738691
0.415000000000000258,-7.877522291114407160
0.416000000000000258,-7.805458293364071487
0.417000000000000259,-7.733998572985703035
0.418000000000000260,-7.663141337452593405
0.419000000000000261,-7.592884701151139559
0.420000000000000262,-7.523226689232835440
0.421000000000000263,-7.454165241317947554
0.422000000000000264,-7.385698215057166394
0.423000000000000265,-7.317823389557323033
0.424000000000000266,-7.250538468677097725
0.425000000000000266,-7.183841084198204996
0.426000000000000267,-7.117728798877554830
0.427000000000000268,-7.052199109385578701
0.428000000000000269,-6.987249449135679136
0.429000000000000270,-6.922877191009602527
0.430000000000000271,-6.859079649983326199
0.431000000000000272,-6.795854085657845545
0.432000000000000273,-6.733197704699077413
0.433000000000000274,-6.671107663190921855
0.434000000000000274,-6.609581068905301393
0.435000000000000275,-6.548614983492899277
0.436000000000000276,-6.488206424598127242
0.437000000000000277,-6.428352367901598363
0.438000000000000278,-6.369049749093433022
0.439000000000000279,-6.310295465780399127
0.440000000000000280,-6.252086379329769628
0.441000000000000281,-6.194419316652745700
0.442000000000000282,-6.137291071930075503
0.443000000000000282,-6.080698408282343870
0.444000000000000283,-6.024638059387401157
0.445000000000000284,-5.969106731047177483
0.446000000000000285,-5.914101102705991764
0.447000000000000286,-5.859617828922594640
0.448000000000000287,-5.805653540797641732
0.449000000000000288,-5.752204847358728834
0.450000000000000289,-5.699268336904521171
0.451000000000000290,-5.646840578309793912
0.452000000000000290,-5.594918122292916074
0.453000000000000291,-5.543497502647272590
0.454000000000000292,-5.492575237438080293
0.455000000000000293,-5.442147830165882993
0.456000000000000294,-5.392211770898105883
0.457000000000000295,-5.342763537369751958
0.458000000000000296,-5.293799596054477696
0.459000000000000297,-5.245316403207096023
0.460000000000000298,-5.197310405878498685
0.461000000000000298,-5.149778042904025632
0.462000000000000299,-5.102715745866147401
0.463000000000000300,-5.056119940032310467
0.464000000000000301,-5.009987045268824879
0.465000000000000302,-4.964313476931509150
0.466000000000000303,-4.919095646733831373
0.467000000000000304,-4.874329963593229564
0.468000000000000305,-4.830012834456296922
0.469000000000000306,-4.786140665103381764
0.470000000000000306,-4.742709860933262078
0.471000000000000307,-4.699716827728335211
0.472000000000000308,-4.657157972400979062
0.473000000000000309,-4.615029703721429399
0.474000000000000310,-4.573328433027754159
0.475000000000000311,-4.532050574918260466
0.476000000000000312,-4.491192547926893042
0.477000000000000313,-4.450750775181829155
0.478000000000000314,-4.410721685047791496
0.479000000000000314,-4.371101711752393371
0.480000000000000315,-4.331887295996791565
0.481000000000000316,-4.293074885551081188
0.482000000000000317,-4.254660935834614577
0.483000000000000318,-4.216641910481620847
0.484000000000000319,-4.179014281892335703
0.485000000000000320,-4.141774531769994994
0.486000000000000321,-4.104919151643838582
0.487000000000000322,-4.068444643378445136
0.488000000000000322,-4.032347519669555069
0.489000000000000323,-3.996624304526700477
0.490000000000000324,-3.961271533742770856
0.491000000000000325,-3.926285755350762408
0.492000000000000326,-3.891663530067872578
0.493000000000000327,-3.857401431727191632
0.494000000000000328,-3.823496047697106714
0.495000000000000329,-3.789943979288670217
0.496000000000000330,-3.756741842151028798
0.497000000000000330,-3.723886266655166200
0.498000000000000331,-3.691373898266030018
0.499000000000000332,-3.659201397903332431
0.500000000000000333,-3.627365442291043074
0.501000000000000334,-3.595862724295834312
0.502000000000000335,-3.564689953254569499
0.503000000000000336,-3.533843855291046943
0.504000000000000337,-3.503321173622064411
0.505000000000000338,-3.473118668853027113
0.506000000000000338,-3.443233119263207076
0.507000000000000339,-3.413661321080784461
0.508000000000000340,-3.384400088747836044
0.509000000000000341,-3.355446255175424941
0.510000000000000342,-3.326796671988873300
0.511000000000000343,-3.298448209763414241
0.512000000000000344,-3.270397758250319420
0.513000000000000345,-3.242642226593659416
0.514000000000000346,-3.215178543537844824
0.515000000000000346,-3.188003657626031107
0.516000000000000347,-3.161114537389566159
0.517000000000000348,-3.134508171528644471
0.518000000000000349,-3.108181569084173645
0.519000000000000350,-3.082131759601149046
0.520000000000000351,-3.056355793283553446
0.521000000000000352,-3.030850741140963756
0.522000000000000353,-3.005613695126975404
0.523000000000000353,-2.980641768269578495
0.524000000000000354,-2.955932094793658482
0.525000000000000355,-2.931481830235665775
0.526000000000000356,-2.907288151550665223
0.527000000000000357,-2.883348257211880927
0.528000000000000358,-2.859659367302808342
0.529000000000000359,-2.836218723602104586
0.530000000000000360,-2.813023589661332036
0.531000000000000361,-2.790071250875710618
0.532000000000000361,-2.767359014547982277
0.533000000000000362,-2.744884209945548825
0.534000000000000363,-2.722644188350991978
0.535000000000000364,-2.700636323106091474
0.536000000000000365,-2.678858009649496719
0.537000000000000366,-2.657306665548168745
0.538000000000000367,-2.635979730522685749
0.539000000000000368,-2.614874666466610265
0.540000000000000369,-2.593988957459957057
0.541000000000000369,-2.573320109776954467
0.542000000000000370,-2.552865651888197807
0.543000000000000371,-2.532623134457288483
0.544000000000000372,-2.512590130332148508
0.545000000000000373,-2.492764234531072098
0.546000000000000374,-2.473143064223654708
0.547000000000000375,-2.453724258706714512
0.548000000000000376,-2.434505479375369763
0.549000000000000377,-2.415484409689317769
0.550000000000000377,-2.396658755134466467
0.551000000000000378,-2.378026243180060284
0.552000000000000379,-2.359584623231379297
0.553000000000000380,-2.341331666578139625
0.554000000000000381,-2.323265166338699395
0.555000000000000382,-2.305382937400231480
0.556000000000000383,-2.287682816354867033
0.557000000000000384,-2.270162661432055806
0.558000000000000385,-2.252820352427133965
0.559000000000000385,-2.235653790626298321
0.560000000000000386,-2.218660898728011865
0.561000000000000387,-2.201839620761023131
0.562000000000000388,-2.185187921999049987
0.563000000000000389,-2.168703788872254457
0.564000000000000390,-2.152385228875602241
0.565000000000000391,-2.136230270474210435
0.566000000000000392,-2.120236963005791786
0.567000000000000393,-2.104403376580274987
0.568000000000000393,-2.088727601976709813
0.569000000000000394,-2.073207750537552130
0.570000000000000395,-2.057841954060425138
0.571000000000000396,-2.042628364687423481
0.572000000000000397,-2.027565154792116076
0.573000000000000398,-2.012650516864243677
0.574000000000000399,-1.997882663392298586
0.575000000000000400,-1.983259826743989152
0.576000000000000401,-1.968780259044726533
0.577000000000000401,-1.954442232054218298
0.578000000000000402,-1.940244037041207958
0.579000000000000403,-1.926183984656492099
0.580000000000000404,-1.912260404804264624
0.581000000000000405,-1.898471646511890709
0.582000000000000406,-1.884816077798149747
0.583000000000000407,-1.871292085540070094
0.584000000000000408,-1.857898075338400234
0.585000000000000409,-1.844632471381787209
0.586000000000000409,-1.831493716309757547
0.587000000000000410,-1.818480271074552901
0.588000000000000411,-1.805590614801890981
0.589000000000000412,-1.792823244650726622
0.590000000000000413,-1.780176675672070274
0.591000000000000414,-1.767649440666934524
0.592000000000000415,-1.755240090043481915
0.593000000000000416,-1.742947191673407392
0.594000000000000417,-1.730769330747641277
0.595000000000000417,-1.718705109631445627
0.596000000000000418,-1.706753147718898633
0.597000000000000419,-1.694912081286917838
0.598000000000000420,-1.683180563348784631
0.599000000000000421,-1.671557263507294611
0.600000000000000422,-1.660040867807541343
0.601000000000000423,-1.648630078589421899
0.602000000000000424,-1.637323614339869948
0.603000000000000425,-1.626120209544920758
0.604000000000000425,-1.615018614541601449
0.605000000000000426,-1.604017595369730431
0.606000000000000427,-1.593115933623673097
0.607000000000000428,-1.582312426304039565
0.608000000000000429,-1.571605885669483893
0.609000000000000430,-1.560995139088490635
