# redgrapheneoxide_CS-311940-AC
# h[nm],U(h)[kJ/mol]
0.149999999999999994,79.337205611596942845
0.150999999999999995,76.528234732472498081
0.151999999999999996,74.430283014623583426
0.152999999999999997,72.517316395218117009
0.153999999999999998,70.589356420578099005
0.154999999999999999,68.603434656670600589
0.156000000000000000,66.580607953604243221
0.157000000000000001,64.558431463265065986
0.158000000000000002,62.569562261909744905
0.159000000000000002,60.634565062617014064
0.160000000000000003,58.761775854433537347
0.161000000000000004,56.950117965664027508
0.162000000000000005,55.192651389963501174
0.163000000000000006,53.479772470592003231
0.164000000000000007,51.801637408008673447
0.165000000000000008,50.149739085288061347
0.166000000000000009,48.517740148186064175
0.167000000000000010,46.901732117432104019
0.168000000000000010,45.300098583944944153
0.169000000000000011,43.713139796767464418
0.170000000000000012,42.142583714235627212
0.171000000000000013,40.591074671340209079
0.172000000000000014,39.061700240031782982
0.173000000000000015,37.557591747819110140
0.174000000000000016,36.081614732515049582
0.175000000000000017,34.636151921794791519
0.176000000000000018,33.222972304414568612
0.177000000000000018,31.843174552048743919
0.178000000000000019,30.497190537381094089
0.179000000000000020,29.184834167546238604
0.180000000000000021,27.905381545721883896
0.181000000000000022,26.657670064387058773
0.182000000000000023,25.440206029092859552
0.183000000000000024,24.251272530928513760
0.184000000000000025,23.089031339585183389
0.185000000000000026,21.951614458499751237
0.186000000000000026,20.837202603957695857
0.187000000000000027,19.744089214846550107
0.188000000000000028,18.670729669218509628
0.189000000000000029,17.615776195443327623
0.190000000000000030,16.578099547171746053
0.191000000000000031,15.556798895215255385
0.192000000000000032,14.551201609729536912
0.193000000000000033,13.560854695579262597
0.194000000000000034,12.585509632628781418
0.195000000000000034,11.625102287601432494
0.196000000000000035,10.679729427887734161
0.197000000000000036,9.749623199184988209
0.198000000000000037,8.835124743366696620
0.199000000000000038,7.936657942417445710
0.200000000000000039,7.054704087590534911
0.201000000000000040,6.189778096598550050
0.202000000000000041,5.342406739981223396
0.203000000000000042,4.513109193456206647
0.204000000000000042,3.702380107339733772
0.205000000000000043,2.910675277287305462
0.206000000000000044,2.138399912132799674
0.207000000000000045,1.385899423443966327
0.208000000000000046,0.653452606139221404
0.209000000000000047,-0.058732961509505618
0.210000000000000048,-0.750523498667578615
0.211000000000000049,-1.421859801437631132
0.212000000000000050,-2.072756447651809886
0.213000000000000050,-2.703299654732622681
0.214000000000000051,-3.313644013595903992
0.215000000000000052,-3.904008312093362854
0.216000000000000053,-4.474670648519718519
0.217000000000000054,-5.025963020261732694
0.218000000000000055,-5.558265555615284903
0.219000000000000056,-6.072000538872988962
0.220000000000000057,-6.567626360593971313
0.221000000000000058,-7.045631506986522297
0.222000000000000058,-7.506528684951564223
0.223000000000000059,-7.950849162828139249
0.224000000000000060,-8.379137391465690143
0.225000000000000061,-8.791945956058127010
0.226000000000000062,-9.189830896295564600
0.227000000000000063,-9.573347420858107526
0.228000000000000064,-9.943046032089904784
0.229000000000000065,-10.299469067822020207
0.230000000000000066,-10.643147659702860253
0.231000000000000066,-10.974599100978227995
0.232000000000000067,-11.294324611353772525
0.233000000000000068,-11.602807482284157814
0.234000000000000069,-11.900511582669709654
0.235000000000000070,-12.187880202409695940
0.236000000000000071,-12.465335209466260835
0.237000000000000072,-12.733276494946023760
0.238000000000000073,-12.992081680118456433
0.239000000000000073,-13.242106059180724031
0.240000000000000074,-13.483682751873777406
0.241000000000000075,-13.717123040681212132
0.242000000000000076,-13.942716868240406569
0.243000000000000077,-14.160733471706418385
0.244000000000000078,-14.371422132082912526
0.245000000000000079,-14.575013017925694925
0.246000000000000080,-14.771718104294615515
0.247000000000000081,-14.961732149345531084
0.248000000000000081,-15.145233712485486777
0.249000000000000082,-15.322386199538248874
0.250000000000000111,-15.493338921863863078
0.251000000000000112,-15.658228157827158711
0.252000000000000113,-15.817178206405992924
0.253000000000000114,-15.970302424055990542
0.254000000000000115,-16.117704237203064110
0.255000000000000115,-16.259478123906731639
0.256000000000000116,-16.395710559328158240
0.257000000000000117,-16.526480920642306671
0.258000000000000118,-16.651862347953805710
0.259000000000000119,-16.771922558614136278
0.260000000000000120,-16.886724613092681579
0.261000000000000121,-16.996327631230904842
0.262000000000000122,-17.100787458309827826
0.263000000000000123,-17.200157280889975198
0.264000000000000123,-17.294488192844561070
0.265000000000000124,-17.383829712404256895
0.266000000000000125,-17.468230251371458905
0.267000000000000126,-17.547737537946026976
0.268000000000000127,-17.622398994839482356
0.269000000000000128,-17.692262074543357642
0.270000000000000129,-17.757374553765085778
0.271000000000000130,-17.817784789155393099
0.272000000000000131,-17.873541936527939100
0.273000000000000131,-17.924696135819914389
0.274000000000000132,-17.971298664063034778
0.275000000000000133,-18.013402058633818825
0.276000000000000134,-18.051060213030446278
0.277000000000000135,-18.084328447385310312
0.278000000000000136,-18.113263555870624089
0.279000000000000137,-18.137923833089708125
0.280000000000000138,-18.158369081472599760
0.281000000000000139,-18.174660601612963262
0.282000000000000139,-18.186861167395171890
0.283000000000000140,-18.195034987668243787
0.284000000000000141,-18.199247656127486295
0.285000000000000142,-18.199566090967984167
0.286000000000000143,-18.196058465775344359
0.287000000000000144,-18.188794133021644939
0.288000000000000145,-18.177843541437653130
0.289000000000000146,-18.163278148436759807
0.290000000000000147,-18.145170328673621896
0.291000000000000147,-18.123593279729881544
0.292000000000000148,-18.098620925832616280
0.293000000000000149,-18.070327820427152687
0.294000000000000150,-18.038789048346259847
0.295000000000000151,-18.004080128241518821
0.296000000000000152,-17.966276915870558639
0.297000000000000153,-17.925455508765853807
0.298000000000000154,-17.881692152746762048
0.299000000000000155,-17.835063150676660371
0.300000000000000155,-17.785644773811025487
0.301000000000000156,-17.733513176030573533
0.302000000000000157,-17.678744311205232265
0.303000000000000158,-17.621413853890700807
0.304000000000000159,-17.561597123518481567
0.305000000000000160,-17.499369012202890872
0.306000000000000161,-17.434803916255049216
0.307000000000000162,-17.367975671462694720
0.308000000000000163,-17.298957492167215122
0.309000000000000163,-17.227821914144293203
0.310000000000000164,-17.154640741272423554
0.311000000000000165,-17.079484995953805537
0.312000000000000166,-17.002424873234865288
0.313000000000000167,-16.923529698558578360
0.314000000000000168,-16.842867889067534293
0.315000000000000169,-16.760506918365514650
0.316000000000000170,-16.676513284636250489
0.317000000000000171,-16.590952482009630131
0.318000000000000171,-16.503888975059656019
0.319000000000000172,-16.415386176313397470
0.320000000000000173,-16.325506426646235525
0.321000000000000174,-16.234310978436127471
0.322000000000000175,-16.141859981347781883
0.323000000000000176,-16.048212470617176706
0.324000000000000177,-15.953426357706399941
0.325000000000000178,-15.857558423199765940
0.326000000000000179,-15.760664311813647132
0.327000000000000179,-15.662798529393928249
0.328000000000000180,-15.564014441777663578
0.329000000000000181,-15.464364275398427395
0.330000000000000182,-15.363899119517350655
0.331000000000000183,-15.262668929966077158
0.332000000000000184,-15.160722534290808738
0.333000000000000185,-15.058107638190907807
0.334000000000000186,-14.954870833149280784
0.335000000000000187,-14.851057605155995489
0.336000000000000187,-14.746712344430736863
0.337000000000000188,-14.641878356053803500
0.338000000000000189,-14.536597871419843386
0.339000000000000190,-14.430912060432621757
0.340000000000000191,-14.324861044363071727
0.341000000000000192,-14.218483909297727763
0.342000000000000193,-14.111818720107766723
0.343000000000000194,-14.004902534873917119
0.344000000000000195,-13.897771419705431839
0.345000000000000195,-13.790460463896000221
0.346000000000000196,-13.683003795362509436
0.347000000000000197,-13.575434596316537039
0.348000000000000198,-13.467785119121804982
0.349000000000000199,-13.360086702293997973
0.350000000000000200,-13.252369786602912427
0.351000000000000201,-13.144663931239495724
0.352000000000000202,-13.036997830013635991
0.353000000000000203,-12.929399327551186261
0.354000000000000203,-12.821895435461346580
0.355000000000000204,-12.714512348448073098
0.356000000000000205,-12.607275460341663020
0.357000000000000206,-12.500209380028749706
0.358000000000000207,-12.393337947261139576
0.359000000000000208,-12.286684248326032787
0.360000000000000209,-12.180270631561878503
0.361000000000000210,-12.074118722706023377
0.362000000000000210,-11.968249440061816458
0.363000000000000211,-11.862683009474556783
0.364000000000000212,-11.757438979106982657
0.365000000000000213,-11.652536234006319660
0.366000000000000214,-11.547993010456252705
0.367000000000000215,-11.443826910108203521
0.368000000000000216,-11.340054913887536614
0.369000000000000217,-11.236693395670979356
0.370000000000000218,-11.133758135732849226
0.371000000000000218,-11.031264333958080925
0.372000000000000219,-10.929226622821110126
0.373000000000000220,-10.827659080130157321
0.374000000000000221,-10.726575241537174676
0.375000000000000222,-10.625988112814230391
0.376000000000000223,-10.525910181897534912
0.377000000000000224,-10.426353430700952885
0.378000000000000225,-10.327329346700981461
0.379000000000000226,-10.228848934295744044
0.380000000000000226,-10.130922725940745721
0.381000000000000227,-10.033560793064385308
0.382000000000000228,-9.936772756766528047
0.383000000000000229,-9.840567798303608171
0.384000000000000230,-9.744954669363755428
0.385000000000000231,-9.649941702135921062
0.386000000000000232,-9.555536819176623453
0.387000000000000233,-9.461747543078420364
0.388000000000000234,-9.368581005943996232
0.389000000000000234,-9.276043958670030065
0.390000000000000235,-9.184142780044735943
0.391000000000000236,-9.092883485663339371
0.392000000000000237,-9.002271736665333535
0.393000000000000238,-8.912312848297778700
0.394000000000000239,-8.823011798308396436
0.395000000000000240,-8.734373235172604666
0.396000000000000241,-8.646401486158314498
0.397000000000000242,-8.559100565232256486
0.398000000000000242,-8.472474180811719435
0.399000000000000243,-8.386525743365325525
0.400000000000000244,-8.301258372866350044
0.401000000000000245,-8.216674906102307219
0.402000000000000246,-8.132777903844058187
0.403000000000000247,-8.049569657877807316
0.404000000000000248,-7.967052197903274013
0.405000000000000249,-7.885227298301183296
0.406000000000000250,-7.804096484773049625
0.407000000000000250,-7.723661040856304005
0.408000000000000251,-7.643922014317524827
0.409000000000000252,-7.564880223426643013
0.410000000000000253,-7.486536263114649259
0.411000000000000254,-7.408890511017524716
0.412000000000000255,-7.331943133408728386
0.413000000000000256,-7.255694091022766301
0.414000000000000257,-7.180143144772020314
0.415000000000000258,-7.105289861359136871
0.416000000000000258,-7.031133618787075434
0.417000000000000259,-6.957673611768834476
0.418000000000000260,-6.884908857038896102
0.419000000000000261,-6.812838198568182513
0.420000000000000262,-6.741460312684431244
0.421000000000000263,-6.670773713099718449
0.422000000000000264,-6.600776755846749388
0.423000000000000265,-6.531467644125562799
0.424000000000000266,-6.462844433062285177
0.425000000000000266,-6.394905034381264564
0.426000000000000267,-6.327647220992131949
0.427000000000000268,-6.261068631493146519
0.428000000000000269,-6.195166774592122394
0.429000000000000270,-6.129939033446253127
0.430000000000000271,-6.065382669922025904
0.431000000000000272,-6.001494828776444912
0.432000000000000273,-5.938272541760686529
0.433000000000000274,-5.875712731647323217
0.434000000000000274,-5.813812216182133952
0.435000000000000275,-5.752567711961587449
0.436000000000000276,-5.691975838236996488
0.437000000000000277,-5.632033120646235957
0.438000000000000278,-5.572735994874109977
0.439000000000000279,-5.514080810242167452
0.440000000000000280,-5.456063833228881776
0.441000000000000281,-5.398681250921120167
0.442000000000000282,-5.341929174397697544
0.443000000000000282,-5.285803642045847184
0.444000000000000283,-5.230300622811451028
0.445000000000000284,-5.175416019383825450
0.446000000000000285,-5.121145671315747272
0.447000000000000286,-5.067485358079686364
0.448000000000000287,-5.014430802060739545
0.449000000000000288,-4.961977671487272090
0.450000000000000289,-4.910121583299773995
0.451000000000000290,-4.858858105958788087
0.452000000000000290,-4.808182762192613424
0.453000000000000291,-4.758091031685397709
0.454000000000000292,-4.708578353706455388
0.455000000000000293,-4.659640129681363874
0.456000000000000294,-4.611271725705653246
0.457000000000000295,-4.563468475001673852
0.458000000000000296,-4.516225680319370994
0.459000000000000297,-4.469538616281647947
0.460000000000000298,-4.423402531674939908
0.461000000000000298,-4.377812651685730749
0.462000000000000299,-4.332764180083631622
0.463000000000000300,-4.288252301351703544
0.464000000000000301,-4.244272182764682100
0.465000000000000302,-4.200818976415797934
0.466000000000000303,-4.157887821192781885
0.467000000000000304,-4.115473844703767092
0.468000000000000305,-4.073572165153764857
0.469000000000000306,-4.032177893172281813
0.470000000000000306,-3.991286133592859553
0.471000000000000307,-3.950891987185045195
0.472000000000000308,-3.910990552339616677
0.473000000000000309,-3.871576926707535282
0.474000000000000310,-3.832646208793433207
0.475000000000000311,-3.794193499504169953
0.476000000000000312,-3.756213903653242259
0.477000000000000313,-3.718702531421523183
0.478000000000000314,-3.681654499775127931
0.479000000000000314,-3.645064933841012156
0.480000000000000315,-3.608928968240893376
0.481000000000000316,-3.573241748384245575
0.482000000000000317,-3.537998431720910109
0.483000000000000318,-3.503194188954034782
0.484000000000000319,-3.468824205213945966
0.485000000000000320,-3.434883681193630967
0.486000000000000321,-3.401367834246431521
0.487000000000000322,-3.368271899446602990
0.488000000000000322,-3.335591130613353439
0.489000000000000323,-3.303320801299057141
0.490000000000000324,-3.271456205742174550
0.491000000000000325,-3.239992659785613682
0.492000000000000326,-3.208925501761035637
0.493000000000000327,-3.178250093339855642
0.494000000000000328,-3.147961820351445894
0.495000000000000329,-3.118056093569234744
0.496000000000000330,-3.088528349465251566
0.497000000000000330,-3.059374050933780786
0.498000000000000331,-3.030588687984675733
0.499000000000000332,-3.002167778406976240
0.500000000000000333,-2.974106868403399773
0.501000000000000334,-2.946401533196305600
0.502000000000000335,-2.919047377605696436
0.503000000000000336,-2.892040036599905051
0.504000000000000337,-2.865375175819453002
0.505000000000000338,-2.839048492074718766
0.506000000000000338,-2.813055713817967707
0.507000000000000339,-2.787392601590285679
0.508000000000000340,-2.762054948443997571
0.509000000000000341,-2.737038580341117466
0.510000000000000342,-2.712339356528369549
0.511000000000000343,-2.687953169889316207
0.512000000000000344,-2.663875947274141787
0.513000000000000345,-2.640103649807608477
0.514000000000000346,-2.616632273175734547
0.515000000000000346,-2.593457847891658563
0.516000000000000347,-2.570576439541240710
0.517000000000000348,-2.547984149008941213
0.518000000000000349,-2.525677112684353798
0.519000000000000350,-2.503651502650028338
0.520000000000000351,-2.481903526850981034
0.521000000000000352,-2.460429429246393962
0.522000000000000353,-2.439225489943984915
0.523000000000000353,-2.418288025317486323
0.524000000000000354,-2.397613388107757260
0.525000000000000355,-2.377197967507894916
0.526000000000000356,-2.357038189232851355
0.527000000000000357,-2.337130515574008527
0.528000000000000358,-2.317471445439065914
0.529000000000000359,-2.298057514377761290
0.530000000000000360,-2.278885294593789190
0.531000000000000361,-2.259951394943339853
0.532000000000000361,-2.241252460920669431
0.533000000000000362,-2.222785174631110472
0.534000000000000363,-2.204546254751905909
0.535000000000000364,-2.186532456481237396
0.536000000000000365,-2.168740571475872958
0.537000000000000366,-2.151167427777755048
0.538000000000000367,-2.133809889729925580
0.539000000000000368,-2.116664857882158302
0.540000000000000369,-2.099729268886605382
0.541000000000000369,-2.083000095383862771
0.542000000000000370,-2.066474345879758534
0.543000000000000371,-2.050149064613184358
0.544000000000000372,-2.034021331415361455
0.545000000000000373,-2.018088261560783803
0.546000000000000374,-2.002347005610197961
0.547000000000000375,-1.986794749245916591
0.548000000000000376,-1.971428713099782515
0.549000000000000377,-1.956246152574056651
0.550000000000000377,-1.941244357655505626
0.551000000000000378,-1.926420652723030980
0.552000000000000379,-1.911772396349051606
0.553000000000000380,-1.897296981094953594
0.554000000000000381,-1.882991833300842632
0.555000000000000382,-1.868854412869896731
0.556000000000000383,-1.854882213047513106
0.557000000000000384,-1.841072760195565650
0.558000000000000385,-1.827423613561955040
0.559000000000000385,-1.813932365045735295
0.560000000000000386,-1.800596638957997486
0.561000000000000387,-1.787414091778787739
0.562000000000000388,-1.774382411910241375
0.563000000000000389,-1.761499319426159671
0.564000000000000390,-1.748762565818238413
0.565000000000000391,-1.736169933739154514
0.566000000000000392,-1.723719236742697891
0.567000000000000393,-1.711408319021158420
0.568000000000000393,-1.699235055140136286
0.569000000000000394,-1.687197349770976018
0.570000000000000395,-1.675293137420995837
0.571000000000000396,-1.663520382161674194
0.572000000000000397,-1.651877077354995560
0.573000000000000398,-1.640361245378070265
0.574000000000000399,-1.628970937346243320
0.575000000000000400,-1.617704232834789480
0.576000000000000401,-1.606559239599392397
0.577000000000000401,-1.595534093295540190
0.578000000000000402,-1.584626957196957564
0.579000000000000403,-1.573836021913240568
0.580000000000000404,-1.563159505106814562
0.581000000000000405,-1.552595651209349947
0.582000000000000406,-1.542142731137748468
0.583000000000000407,-1.531799042009841738
0.584000000000000408,-1.521562906859899700
0.585000000000000409,-1.511432674354078465
0.586000000000000409,-1.501406718505908788
0.587000000000000410,-1.491483438391934424
0.588000000000000411,-1.481661257867601389
0.589000000000000412,-1.471938625283512270
0.590000000000000413,-1.462314013202104634
0.591000000000000414,-1.452785918114890995
0.592000000000000415,-1.443352860160330708
0.593000000000000416,-1.434013382842402651
0.594000000000000417,-1.424766052749989464
0.595000000000000417,-1.415609459277150872
0.596000000000000418,-1.406542214344328245
0.597000000000000419,-1.397562952120615432
0.598000000000000420,-1.388670328747102500
0.599000000000000421,-1.379863022061410760
0.600000000000000422,-1.371139731323453015
0.601000000000000423,-1.362499176942509660
0.602000000000000424,-1.353940100205641928
0.603000000000000425,-1.345461263007551311
0.604000000000000425,-1.337061447581894047
0.605000000000000426,-1.328739456234125260
0.606000000000000427,-1.320494111075942723
0.607000000000000428,-1.312324253761307791
0.608000000000000429,-1.304228745224207842
0.609000000000000430,-1.296206465418058507
