# redgrapheneoxide_WaterUCD
# h[nm],U(h)[kJ/mol]
0.149999999999999994,52.887917690093239287
0.150999999999999995,51.742885591462936645
0.151999999999999996,50.697696714935105433
0.152999999999999997,49.649472874192930760
0.153999999999999998,48.579088678682197155
0.154999999999999999,47.498161276697331346
0.156000000000000000,46.424080497566919234
0.157000000000000001,45.370136014432986826
0.158000000000000002,44.343169773936857325
0.159000000000000002,43.344503940252323559
0.160000000000000003,42.371898644291043468
0.161000000000000004,41.421463832564533902
0.162000000000000005,40.489102100339124490
0.163000000000000006,39.571399078082649226
0.164000000000000007,38.666034742120523049
0.165000000000000008,37.771843992148816938
0.166000000000000009,36.888657234402380425
0.167000000000000010,36.017030450531450469
0.168000000000000010,35.157945482558382366
0.169000000000000011,34.312533380160381569
0.170000000000000012,33.481850373231324625
0.171000000000000013,32.666718478594383157
0.172000000000000014,31.867630690329576737
0.173000000000000015,31.084713285324141907
0.174000000000000016,30.317733953434164107
0.175000000000000017,29.566143223337498114
0.176000000000000018,28.829137129721868149
0.177000000000000018,28.105730560927355555
0.178000000000000019,27.394832719734829141
0.179000000000000020,26.695318259265651051
0.180000000000000021,26.006089683062896256
0.181000000000000022,25.326128383392671140
0.182000000000000023,24.654533166645489217
0.183000000000000024,23.990546261541680906
0.184000000000000025,23.333567639418735240
0.185000000000000026,22.683159030309795412
0.186000000000000026,22.039039337542323693
0.187000000000000027,21.401073283781379075
0.188000000000000028,20.769255107811247285
0.189000000000000029,20.143689014625920208
0.190000000000000030,19.524567896651095822
0.191000000000000031,18.912151620059340473
0.192000000000000032,18.306745930021655511
0.193000000000000033,17.708682789634515586
0.194000000000000034,17.118302741541505441
0.195000000000000034,16.535939677153258742
0.196000000000000035,15.961908220705922190
0.197000000000000036,15.396493786377803303
0.198000000000000037,14.839945246490000130
0.199000000000000038,14.292470056188189886
0.200000000000000039,13.754231612698045950
0.201000000000000040,13.225348582426812882
0.202000000000000041,12.705895903706059258
0.203000000000000042,12.195907163623008529
0.204000000000000042,11.695378051042556677
0.205000000000000043,11.204270601663143481
0.206000000000000044,10.722517972132733277
0.207000000000000045,10.250029506555023318
0.208000000000000046,9.786695888149800737
0.209000000000000047,9.332394199736778972
0.210000000000000048,8.886992747743921228
0.211000000000000049,8.450355534546533320
0.212000000000000050,8.022346292324945338
0.213000000000000050,7.602832017724534985
0.214000000000000051,7.191685970036104436
0.215000000000000052,6.788790116182822132
0.216000000000000053,6.394037023425619637
0.217000000000000054,6.007331215413258541
0.218000000000000055,5.628590019119224408
0.219000000000000056,5.257743939498178420
0.220000000000000057,4.894736605572021837
0.221000000000000058,4.539524336364512358
0.222000000000000058,4.192075377892459542
0.223000000000000059,3.852368863553922385
0.224000000000000060,3.520393549978220626
0.225000000000000061,3.196146378963512724
0.226000000000000062,2.879630913751226817
0.227000000000000063,2.570855694781803091
0.228000000000000064,2.269832556432317627
0.229000000000000065,1.976574942220253206
0.230000000000000066,1.691096251717842280
0.231000000000000066,1.413408248082027585
0.232000000000000067,1.143519550774809934
0.233000000000000068,0.881434233813913059
0.234000000000000069,0.627150545826596906
0.235000000000000070,0.380659764334608353
0.236000000000000071,0.141945193118198754
0.237000000000000072,-0.089018691780173145
0.238000000000000073,-0.312266944826269377
0.239000000000000073,-0.527844702605147487
0.240000000000000074,-0.735807586669661839
0.241000000000000075,-0.936221962033338406
0.242000000000000076,-1.129165057416710027
0.243000000000000077,-1.314724954762984233
0.244000000000000078,-1.493000456667743059
0.245000000000000079,-1.664100841237579065
0.246000000000000080,-1.828145514524617044
0.247000000000000081,-1.985263571100477353
0.248000000000000081,-2.135593273554911686
0.249000000000000082,-2.279281461754400162
0.250000000000000111,-2.416482902595389781
0.251000000000000112,-2.547359590755960301
0.252000000000000113,-2.672080010609384715
0.253000000000000114,-2.790818369029953061
0.254000000000000115,-2.903753808315435503
0.255000000000000115,-3.011069607885016097
0.256000000000000116,-3.112952382803070961
0.257000000000000117,-3.209591286539741795
0.258000000000000118,-3.301177224720905024
0.259000000000000119,-3.387902085953714781
0.260000000000000120,-3.469957995148071461
0.261000000000000121,-3.547536594096950324
0.262000000000000122,-3.620828353436858826
0.263000000000000123,-3.690021919488519764
0.264000000000000123,-3.755303498882788915
0.265000000000000124,-3.816856283310555931
0.266000000000000125,-3.874859916201734311
0.267000000000000126,-3.929490002638642121
0.268000000000000127,-3.980917663345492574
0.269000000000000128,-4.029309133168163193
0.270000000000000129,-4.074825404068167956
0.271000000000000130,-4.117621912301096643
0.272000000000000131,-4.157848269132288443
0.273000000000000131,-4.195648034160524453
0.274000000000000132,-4.231158530072642421
0.275000000000000133,-4.264510697437128961
0.276000000000000134,-4.295828987961196610
0.277000000000000135,-4.325231294481908684
0.278000000000000136,-4.352828915836180812
0.279000000000000137,-4.378726554654575054
0.280000000000000138,-4.403022346048340196
0.281000000000000139,-4.425807915105920642
0.282000000000000139,-4.447168461082577018
0.283000000000000140,-4.467182866152640486
0.284000000000000141,-4.485923826596819985
0.285000000000000142,-4.503458004314891738
0.286000000000000143,-4.519846196585481479
0.287000000000000144,-4.535143522037701658
0.288000000000000145,-4.549399620853096238
0.289000000000000146,-4.562658867278331698
0.290000000000000147,-4.574960592599136788
0.291000000000000147,-4.586339316801756993
0.292000000000000148,-4.596824987229436665
0.293000000000000149,-4.606443222626291245
0.294000000000000150,-4.615215561048896298
0.295000000000000151,-4.623159710216052432
0.296000000000000152,-4.630289798958195036
0.297000000000000153,-4.636616628519766081
0.298000000000000154,-4.642147922559253459
0.299000000000000155,-4.646888574782287229
0.300000000000000155,-4.650840893232572881
0.301000000000000156,-4.654004840352943262
0.302000000000000157,-4.656378268014252697
0.303000000000000158,-4.657957146792602643
0.304000000000000159,-4.658735788855578264
0.305000000000000160,-4.658707063894937939
0.306000000000000161,-4.657862607617173190
0.307000000000000162,-4.656193022373591894
0.308000000000000163,-4.653688069578434394
0.309000000000000163,-4.650336853626872546
0.310000000000000164,-4.646127997084382955
0.311000000000000165,-4.641049806974953285
0.312000000000000166,-4.635090432048126097
0.313000000000000167,-4.628238010953498183
0.314000000000000168,-4.620480811296723722
0.315000000000000169,-4.611807359592710931
0.316000000000000170,-4.602206562170235493
0.317000000000000171,-4.591667817117101258
0.318000000000000171,-4.580181117387032153
0.319000000000000172,-4.567737145218189632
0.320000000000000173,-4.554327358039103046
0.321000000000000174,-4.539944066060773054
0.322000000000000175,-4.524580501774073227
0.323000000000000176,-4.508230881589279093
0.324000000000000177,-4.490890459869893547
0.325000000000000178,-4.472555575625829505
0.326000000000000179,-4.453223692142092460
0.327000000000000179,-4.432893429827618803
0.328000000000000180,-4.411564592576014299
0.329000000000000181,-4.389238187935127655
0.330000000000000182,-4.365916441385623514
0.331000000000000183,-4.341602805031058665
0.332000000000000184,-4.316301961002191767
0.333000000000000185,-4.290019819877831431
0.334000000000000186,-4.262763514422433175
0.335000000000000187,-4.234541388937850925
0.336000000000000187,-4.205362984522678538
0.337000000000000188,-4.175239020527794054
0.338000000000000189,-4.144181372491300586
0.339000000000000190,-4.112203046829696618
0.340000000000000191,-4.079318152555260646
0.341000000000000192,-4.045541870282471031
0.342000000000000193,-4.010890418778146227
0.343000000000000194,-3.975381019302171914
0.344000000000000195,-3.939031857976790896
0.345000000000000195,-3.901862046414048102
0.346000000000000196,-3.863891580821714022
0.347000000000000197,-3.825141299799069916
0.348000000000000198,-3.785632841024729967
0.349000000000000199,-3.745388597029305711
0.350000000000000200,-3.704431670236608909
0.351000000000000201,-3.662785827447669895
0.352000000000000202,-3.620475453932773924
0.353000000000000203,-3.577525507287588447
0.354000000000000203,-3.533961471200416149
0.355000000000000204,-3.489809309268797843
0.356000000000000205,-3.445095418994995384
0.357000000000000206,-3.399846586081401334
0.358000000000000207,-3.354089939138496845
0.359000000000000208,-3.307852904910045133
0.360000000000000209,-3.261163164112214297
0.361000000000000210,-3.214048607975704464
0.362000000000000210,-3.166537295572593447
0.363000000000000211,-3.118657412002426188
0.364000000000000212,-3.070437227505242728
0.365000000000000213,-3.021905057562534580
0.366000000000000214,-2.973089224040826206
0.367000000000000215,-2.924018017426435190
0.368000000000000216,-2.874719660194166249
0.369000000000000217,-2.825222271347083591
0.370000000000000218,-2.775553832159260992
0.371000000000000218,-2.725742153148275726
0.372000000000000219,-2.675814842299533147
0.373000000000000220,-2.625799274559878604
0.374000000000000221,-2.575722562613764755
0.375000000000000222,-2.525611528951085205
0.376000000000000223,-2.475492679232123461
0.377000000000000224,-2.425392176951385981
0.378000000000000225,-2.375335819398821879
0.379000000000000226,-2.325349014913762780
0.380000000000000226,-2.275456761424103025
0.381000000000000227,-2.225683626260381853
0.382000000000000228,-2.176053727232140300
0.383000000000000229,-2.126590714951482664
0.384000000000000230,-2.077317756386643399
0.385000000000000231,-2.028257519626599503
0.386000000000000232,-1.979432159835778693
0.387000000000000233,-1.930863306376484179
0.388000000000000234,-1.882572051075121156
0.389000000000000234,-1.834578937607114879
0.390000000000000235,-1.786903951974119664
0.391000000000000236,-1.739566514046307244
0.392000000000000237,-1.692585470141417359
0.393000000000000238,-1.645979086611726760
0.394000000000000239,-1.599765044409250825
0.395000000000000240,-1.553960434599116924
0.396000000000000241,-1.508581754790544682
0.397000000000000242,-1.463644906454535377
0.398000000000000242,-1.419165193097222000
0.399000000000000243,-1.375157319257588329
0.400000000000000244,-1.331635390298201216
0.401000000000000245,-1.288612912957764367
0.402000000000000246,-1.246102796634147580
0.403000000000000247,-1.204117355366841169
0.404000000000000248,-1.162668310488005785
0.405000000000000249,-1.121766793911445736
0.406000000000000250,-1.081423352029225349
0.407000000000000250,-1.041647950186008309
0.408000000000000251,-1.002449977701537431
0.409000000000000252,-0.963838253412234502
0.410000000000000253,-0.925821031703238928
0.411000000000000254,-0.888406009002847830
0.412000000000000255,-0.851600330711765330
0.413000000000000256,-0.815410598540207920
0.414000000000000257,-0.779842878226418734
0.415000000000000258,-0.744902707610876846
0.416000000000000258,-0.710595105040975783
0.417000000000000259,-0.676924578081699813
0.418000000000000260,-0.643895132508428114
0.419000000000000261,-0.611510281558650393
0.420000000000000262,-0.579773055420106820
0.421000000000000263,-0.548686010933483237
0.422000000000000264,-0.518251241488516312
0.423000000000000265,-0.488470387092990233
0.424000000000000266,-0.459344644594926688
0.425000000000000266,-0.430874778038753459
0.426000000000000267,-0.403061129137104235
0.427000000000000268,-0.375903627840477261
0.428000000000000269,-0.349401802987679200
0.429000000000000270,-0.323554793020681131
0.430000000000000271,-0.298361356748101714
0.431000000000000272,-0.273819884142275094
0.432000000000000273,-0.249928407155432991
0.433000000000000274,-0.226684610541216219
0.434000000000000274,-0.204085842668311923
0.435000000000000275,-0.182129126313673589
0.436000000000000276,-0.160811169423355466
0.437000000000000277,-0.140128375829568441
0.438000000000000278,-0.120076855913199013
0.439000000000000279,-0.100652437201546444
0.440000000000000280,-0.081850674891608244
0.441000000000000281,-0.063666862289769213
0.442000000000000282,-0.046096041159334702
0.443000000000000282,-0.029133011967739941
0.444000000000000283,-0.012772344025924887
0.445000000000000284,0.002991614487284400
0.446000000000000285,0.018164726622443107
0.447000000000000286,0.032753056884495327
0.448000000000000287,0.046762861591368818
0.449000000000000288,0.060200579371374262
0.450000000000000289,0.073072821804353288
0.451000000000000290,0.085386364211043397
0.452000000000000290,0.097148136594766704
0.453000000000000291,0.108365214739173599
0.454000000000000292,0.119044811465401690
0.455000000000000293,0.129194268051684963
0.456000000000000294,0.138821045818080580
0.457000000000000295,0.147932717878703213
0.458000000000000296,0.156536961063495794
0.459000000000000297,0.164641548011334099
0.460000000000000298,0.172254339435904569
0.461000000000000298,0.179383276565604655
0.462000000000000299,0.186036373758373258
0.463000000000000300,0.192221711292191788
0.464000000000000301,0.197947428331690739
0.465000000000000302,0.203221716071112113
0.466000000000000303,0.208052811053655196
0.467000000000000304,0.212448988667039179
0.468000000000000305,0.216418556814873236
0.469000000000000306,0.219969849763325204
0.470000000000000306,0.223111222162327788
0.471000000000000307,0.225851043240446803
0.472000000000000308,0.228197691172350448
0.473000000000000309,0.230159547617704435
0.474000000000000310,0.231744992430146901
0.475000000000000311,0.232962398534886705
0.476000000000000312,0.233820126973346920
0.477000000000000313,0.234326522113165236
0.478000000000000314,0.234489907021750627
0.479000000000000314,0.234318579001484034
0.480000000000000315,0.233820805284610522
0.481000000000000316,0.233004818885713505
0.482000000000000317,0.231878814609655842
0.483000000000000318,0.230450945212743175
0.484000000000000319,0.228729317714852165
0.485000000000000320,0.226721989860145079
0.486000000000000321,0.224436966724011644
0.487000000000000322,0.221882197463767777
0.488000000000000322,0.219065572210640658
0.489000000000000323,0.215994919100501587
0.490000000000000324,0.212678001440796738
0.491000000000000325,0.209122515011087529
0.492000000000000326,0.205336085494593451
0.493000000000000327,0.201326266038102053
0.494000000000000328,0.197100534937595023
0.495000000000000329,0.192666293446950326
0.496000000000000330,0.188030863707025014
0.497000000000000330,0.183201486792473750
0.498000000000000331,0.178185320873604197
0.499000000000000332,0.172989439490621677
0.500000000000000333,0.167620829937561389
0.501000000000000334,0.162086391753275244
0.502000000000000335,0.156392935316799153
0.503000000000000336,0.150547180544471942
0.504000000000000337,0.144555755686168685
0.505000000000000338,0.138425196218045554
0.506000000000000338,0.132161943829192552
0.507000000000000339,0.125772345499634536
0.508000000000000340,0.119262652667116845
0.509000000000000341,0.112639020480160390
0.510000000000000342,0.105907507134873111
0.511000000000000343,0.099074073293054593
0.512000000000000344,0.092144581579135548
0.513000000000000345,0.085124796153550050
0.514000000000000346,0.078020382360129259
0.515000000000000346,0.070836906445191666
0.516000000000000347,0.063579835345987212
0.517000000000000348,0.056254536546203535
0.518000000000000349,0.048866277996293596
0.519000000000000350,0.041420228096406615
0.520000000000000351,0.033921455739702018
0.521000000000000352,0.026374930413952880
0.522000000000000353,0.018785522359283081
0.523000000000000353,0.011158002779981139
0.524000000000000354,0.003497044108356581
0.525000000000000355,-0.004192779681377613
0.526000000000000356,-0.011906992711130559
0.527000000000000357,-0.019641216790820943
0.528000000000000358,-0.027391170965996064
0.529000000000000359,-0.035152671023020332
0.530000000000000360,-0.042921628953663110
0.531000000000000361,-0.050694052380840147
0.532000000000000361,-0.058466043947244771
0.533000000000000362,-0.066233800668564893
0.534000000000000363,-0.073993613252933577
0.535000000000000364,-0.081741865388239035
0.536000000000000365,-0.089475032998865639
0.537000000000000366,-0.097189683473411545
0.538000000000000367,-0.104882474864883043
0.539000000000000368,-0.112550155064841700
0.540000000000000369,-0.120189560952919883
0.541000000000000369,-0.127797617523109086
0.542000000000000370,-0.135371336988178992
0.543000000000000371,-0.142907817863534625
0.544000000000000372,-0.150404244031821066
0.545000000000000373,-0.157857883789499748
0.546000000000000374,-0.165266088876638517
0.547000000000000375,-0.172626293491072502
0.548000000000000376,-0.179936013288113233
0.549000000000000377,-0.187192844366887767
0.550000000000000377,-0.194394462244418115
0.551000000000000378,-0.201538620818480757
0.552000000000000379,-0.208623151320251221
0.553000000000000380,-0.215645961257751206
0.554000000000000381,-0.222605033351019138
0.555000000000000382,-0.229498424459958494
0.556000000000000383,-0.236324264505739456
0.557000000000000384,-0.243080755386633346
0.558000000000000385,-0.249766169889108325
0.559000000000000385,-0.256378850595009644
0.560000000000000386,-0.262917208785580003
0.561000000000000387,-0.269379723343107114
0.562000000000000388,-0.275764939650899266
0.563000000000000389,-0.282071468492312016
0.564000000000000390,-0.288297984949476338
0.565000000000000391,-0.294443227302411181
0.566000000000000392,-0.300505995929118697
0.567000000000000393,-0.306485152207280787
0.568000000000000393,-0.312379617418125088
0.569000000000000394,-0.318188371653037316
0.570000000000000395,-0.323910452723417897
0.571000000000000396,-0.329544955074328461
0.572000000000000397,-0.335091028702406923
0.573000000000000398,-0.340547878078506006
0.574000000000000399,-0.345914761075528321
0.575000000000000400,-0.351190987901869367
0.576000000000000401,-0.356375920040880645
0.577000000000000401,-0.361468969196751588
0.578000000000000402,-0.366469596247178342
0.579000000000000403,-0.371377310203159727
0.580000000000000404,-0.376191667176282496
0.581000000000000405,-0.380912269353796185
0.582000000000000406,-0.385538763981781996
0.583000000000000407,-0.390070842356715519
0.584000000000000408,-0.394508238825677315
0.585000000000000409,-0.398850729795473424
0.586000000000000409,-0.403098132750916882
0.587000000000000410,-0.407250305282481850
0.588000000000000411,-0.411307144123544688
0.589000000000000412,-0.415268584197427404
0.590000000000000413,-0.419134597674401754
0.591000000000000414,-0.422905193038852989
0.592000000000000415,-0.426580414166746746
0.593000000000000416,-0.430160339413554915
0.594000000000000417,-0.433645080712777964
0.595000000000000417,-0.437034782685181700
0.596000000000000418,-0.440329621758874024
0.597000000000000419,-0.443529805300318158
0.598000000000000420,-0.446635570756377831
0.599000000000000421,-0.449647184807478451
0.600000000000000422,-0.452564942531963776
0.601000000000000423,-0.455389166581701255
0.602000000000000424,-0.458120206369003857
0.603000000000000425,-0.460758437264920828
0.604000000000000425,-0.463304259808911656
0.605000000000000426,-0.465758098929962672
0.606000000000000427,-0.468120403179164923
0.607000000000000428,-0.470391643973740059
0.608000000000000429,-0.472572314852585218
0.609000000000000430,-0.474662930743258105
0.610000000000000431,-0.476664027240482291
0.611000000000000432,-0.478576159896094588
0.612000000000000433,-0.480399903520451310
0.613000000000000433,-0.482135851495279266
0.614000000000000434,-0.483784615097911874
0.615000000000000435,-0.485346822836897562
