# redgrapheneoxide_THYMINE
# h[nm],U(h)[kJ/mol]
0.149999999999999994,99.207646681663931076
0.150999999999999995,96.463641913887357759
0.151999999999999996,93.478513205816256004
0.152999999999999997,90.477738048303734786
0.153999999999999998,87.549166301551224478
0.154999999999999999,84.713793814259034320
0.156000000000000000,81.964526401180336279
0.157000000000000001,79.286016784137103741
0.158000000000000002,76.663728160258671096
0.159000000000000002,74.087187971741315096
0.160000000000000003,71.550362424218604929
0.161000000000000004,69.050811116086620700
0.162000000000000005,66.588505302088577764
0.163000000000000006,64.164734667586316164
0.164000000000000007,61.781268144892507621
0.165000000000000008,59.439797190235047708
0.166000000000000009,57.141625415254928555
0.167000000000000010,54.887545135010725517
0.168000000000000010,52.677839863112332353
0.169000000000000011,50.512360446829895011
0.170000000000000012,48.390634745784609549
0.171000000000000013,46.311982964763885207
0.172000000000000014,44.275621273049083015
0.173000000000000015,42.280744583749076071
0.174000000000000016,40.326585322277558987
0.175000000000000017,38.412448966366511627
0.176000000000000018,36.537729482835786143
0.177000000000000018,34.701908919970023248
0.178000000000000019,32.904545698791352493
0.179000000000000020,31.145255879635755036
0.180000000000000021,29.423691094039089222
0.181000000000000022,27.739516096666012146
0.182000000000000023,26.092388126418530447
0.183000000000000024,24.481939546577613953
0.184000000000000025,22.907764605393907686
0.185000000000000026,21.369410642020120861
0.186000000000000026,19.866373662825207447
0.187000000000000027,18.398097924081159960
0.188000000000000028,16.963978966587710318
0.189000000000000029,15.563369440678863853
0.190000000000000030,14.195587019978001209
0.191000000000000031,12.859923713512262822
0.192000000000000032,11.555655934060494516
0.193000000000000033,10.282054753495092569
0.194000000000000034,9.038395863083023229
0.195000000000000034,7.823968849989998198
0.196000000000000035,6.638085494279016174
0.197000000000000036,5.480086878909341763
0.198000000000000037,4.349349185490885006
0.199000000000000038,3.245288118910898412
0.200000000000000039,2.167361963470074926
0.201000000000000040,1.115073321634649117
0.202000000000000041,0.087969624275092959
0.203000000000000042,-0.914357470947318007
0.204000000000000042,-1.892273657587654867
0.205000000000000043,-2.846104388428034149
0.206000000000000044,-3.776137962860605768
0.207000000000000045,-4.682629144283052547
0.208000000000000046,-5.565803163816305243
0.209000000000000047,-6.425859975686295300
0.210000000000000048,-7.262978641078257525
0.211000000000000049,-8.077321730357759577
0.212000000000000050,-8.869039647564020967
0.213000000000000050,-9.638274795431023279
0.214000000000000051,-10.385165513413463501
0.215000000000000052,-11.109849734910772767
0.216000000000000053,-11.812468322812435417
0.217000000000000054,-12.493168054427858493
0.218000000000000055,-13.152104237679173693
0.219000000000000056,-13.789442950045572189
0.220000000000000057,-14.405362900128594106
0.221000000000000058,-15.000056918858263089
0.222000000000000058,-15.573733093329924060
0.223000000000000059,-16.126615561100980045
0.224000000000000060,-16.658944986571235347
0.225000000000000061,-17.170978743904846908
0.226000000000000062,-17.662990832921710904
0.227000000000000063,-18.135271555590314563
0.228000000000000064,-18.588126981288233708
0.229000000000000065,-19.021878228959494095
0.230000000000000066,-19.436860593774877515
0.231000000000000066,-19.833422544984109948
0.232000000000000067,-20.211924620409682518
0.233000000000000068,-20.572738241547803284
0.234000000000000069,-20.916244471573627095
0.235000000000000070,-21.242832736754465373
0.236000000000000071,-21.552899529903747577
0.237000000000000072,-21.846847112607338914
0.238000000000000073,-22.125082231053301740
0.239000000000000073,-22.388014858430732801
0.240000000000000074,-22.636056975057556429
0.241000000000000075,-22.869621395668254138
0.242000000000000076,-23.089120651658397776
0.243000000000000077,-23.294965934553395925
0.244000000000000078,-23.487566105552879492
0.245000000000000079,-23.667326774701933800
0.246000000000000080,-23.834649452061206887
0.247000000000000081,-23.989930772187324948
0.248000000000000081,-24.133561792291267523
0.249000000000000082,-24.265927363613073453
0.250000000000000111,-24.387405574830829380
0.251000000000000112,-24.498367265704651174
0.252000000000000113,-24.599175608637903423
0.253000000000000114,-24.690185755407746626
0.254000000000000115,-24.771744545973824358
0.255000000000000115,-24.844190276004262330
0.256000000000000116,-24.907852519560641724
0.257000000000000117,-24.963052003247561572
0.258000000000000118,-25.010100528052142010
0.259000000000000119,-25.049300935068600893
0.260000000000000120,-25.080947111316188369
0.261000000000000121,-25.105324031907848337
0.262000000000000122,-25.122707834910180225
0.263000000000000123,-25.133365925342765479
0.264000000000000123,-25.137557104896878002
0.265000000000000124,-25.135531724101223716
0.266000000000000125,-25.127531853825896491
0.267000000000000126,-25.113791473187554004
0.268000000000000127,-25.094536671100005520
0.269000000000000128,-25.069985858898323983
0.270000000000000129,-25.040349991651360995
0.271000000000000130,-25.005832795964302306
0.272000000000000131,-24.966631002256981731
0.273000000000000131,-24.922934579685133372
0.274000000000000132,-24.874926972047166629
0.275000000000000133,-24.822785333190065415
0.276000000000000134,-24.766680760590620736
0.277000000000000135,-24.706778525944379510
0.278000000000000136,-24.643238301742435681
0.279000000000000137,-24.576214382955420490
0.280000000000000138,-24.505855903075023150
0.281000000000000139,-24.432307043885039377
0.282000000000000139,-24.355707238447322993
0.283000000000000140,-24.276191366892525991
0.284000000000000141,-24.193889944701162165
0.285000000000000142,-24.108929303248249454
0.286000000000000143,-24.021431762464345638
0.287000000000000144,-23.931515795536750346
0.288000000000000145,-23.839296185639756942
0.289000000000000146,-23.744884174738956517
0.290000000000000147,-23.648387604565261455
0.291000000000000147,-23.549911049898231141
0.292000000000000148,-23.449555944336061941
0.293000000000000149,-23.347420698762071822
0.294000000000000150,-23.243600812744652728
0.295000000000000151,-23.138188979130113410
0.296000000000000152,-23.031275182105794386
0.297000000000000153,-22.922946789024972958
0.298000000000000154,-22.813288636295066425
0.299000000000000155,-22.702383109638109460
0.300000000000000155,-22.590310219036048522
0.301000000000000156,-22.477147668674874126
0.302000000000000157,-22.362970922200688051
0.303000000000000158,-22.247853263597349383
0.304000000000000159,-22.131865853990603910
0.305000000000000160,-22.015077784676783779
0.306000000000000161,-21.897556126666273713
0.307000000000000162,-21.779365977022944634
0.308000000000000163,-21.660570502270282134
0.309000000000000163,-21.541230979124538436
0.310000000000000164,-21.421406832803345566
0.311000000000000165,-21.301155673146517699
0.312000000000000166,-21.180533328773272217
0.313000000000000167,-21.059593879487874091
0.314000000000000168,-20.938389687132691108
0.315000000000000169,-20.816971425075315949
0.316000000000000170,-20.695388106503997960
0.317000000000000171,-20.573687111692755991
0.318000000000000171,-20.451914214385816138
0.319000000000000172,-20.330113607438992318
0.320000000000000173,-20.208327927844131011
0.321000000000000174,-20.086598281251283993
0.322000000000000175,-19.964964266092909639
0.323000000000000176,-19.843463997403741672
0.324000000000000177,-19.722134130420126752
0.325000000000000178,-19.601009884033182118
0.326000000000000179,-19.480125064161285309
0.327000000000000179,-19.359512087098753597
0.328000000000000180,-19.239202002889516763
0.329000000000000181,-19.119224518767573784
0.330000000000000182,-18.999608022698129872
0.331000000000000183,-18.880379607047718338
0.332000000000000184,-18.761565092404811850
0.333000000000000185,-18.643189051567116366
0.334000000000000186,-18.525274833706614430
0.335000000000000187,-18.407844588718440093
0.336000000000000187,-18.290919291755642462
0.337000000000000188,-18.174518767947610343
0.338000000000000189,-18.058661717296789817
0.339000000000000190,-17.943365739744905341
0.340000000000000191,-17.828647360396875143
0.341000000000000192,-17.714522054888831804
0.342000000000000193,-17.601004274883536027
0.343000000000000194,-17.488107473675462700
0.344000000000000195,-17.375844131885525456
0.345000000000000195,-17.264225783224706134
0.346000000000000196,-17.153263040304203457
0.347000000000000197,-17.042965620469296084
0.348000000000000198,-16.933342371633152368
0.349000000000000199,-16.824401298086538503
0.350000000000000200,-16.716149586259099635
0.351000000000000201,-16.608593630407657571
0.352000000000000202,-16.501739058207139266
0.353000000000000203,-16.395590756219924344
0.354000000000000203,-16.290152895219616624
0.355000000000000204,-16.185428955345713575
0.356000000000000205,-16.081421751066251602
0.357000000000000206,-15.978133455925998874
0.358000000000000207,-15.875565627058486839
0.359000000000000208,-15.773719229440924749
0.360000000000000209,-15.672594659871995404
0.361000000000000210,-15.572191770653130760
0.362000000000000210,-15.472509892955025990
0.363000000000000211,-15.373547859851942832
0.364000000000000212,-15.275304029007457984
0.365000000000000213,-15.177776304996132950
0.366000000000000214,-15.080962161246725728
0.367000000000000215,-14.984858661593571938
0.368000000000000216,-14.889462481423702656
0.369000000000000217,-14.794769928408371129
0.370000000000000218,-14.700776962808614456
0.371000000000000218,-14.607479217345533229
0.372000000000000219,-14.514872016626890527
0.373000000000000220,-14.422950396122709904
0.374000000000000221,-14.331709120683431280
0.375000000000000222,-14.241142702595102065
0.376000000000000223,-14.151245419167130635
0.377000000000000224,-14.062011329848797203
0.378000000000000225,-13.973434292871791840
0.379000000000000226,-13.885507981416711942
0.380000000000000226,-13.798225899302476449
0.381000000000000227,-13.711581396197965788
0.382000000000000228,-13.625567682356495069
0.383000000000000229,-13.540177842873998060
0.384000000000000230,-13.455404851472554384
0.385000000000000231,-13.371241583811837472
0.386000000000000232,-13.287680830331169091
0.387000000000000233,-13.204715308625903702
0.388000000000000234,-13.122337675362075515
0.389000000000000234,-13.040540537734051085
0.390000000000000235,-12.959316464470083119
0.391000000000000236,-12.878657996391405405
0.392000000000000237,-12.798557656530743287
0.393000000000000238,-12.719007959816590159
0.394000000000000239,-12.640001422329879333
0.395000000000000240,-12.561530570140117646
0.396000000000000241,-12.483587947728256751
0.397000000000000242,-12.406166126003840944
0.398000000000000242,-12.329257709924414499
0.399000000000000243,-12.252855345725009784
0.400000000000000244,-12.176951727766098799
0.401000000000000245,-12.101539605008495570
0.402000000000000246,-12.026611787123606234
0.403000000000000247,-11.952161150247784249
0.404000000000000248,-11.878180642389676080
0.405000000000000249,-11.804663288499334328
0.406000000000000250,-11.731602195208106210
0.407000000000000250,-11.658990555248294640
0.408000000000000251,-11.586821651561580282
0.409000000000000252,-11.515088861105372331
0.410000000000000253,-11.443785658365928981
0.411000000000000254,-11.372905618587513032
0.412000000000000255,-11.302442420726389827
0.413000000000000256,-11.232389850138751797
0.414000000000000257,-11.162741801011380360
0.415000000000000258,-11.093492278543916285
0.416000000000000258,-11.024635400891531489
0.417000000000000259,-10.956165400876576754
0.418000000000000260,-10.888076627477875746
0.419000000000000261,-10.820363547106017776
0.420000000000000262,-10.753020744673102982
0.421000000000000263,-10.686042924465144921
0.422000000000000264,-10.619424910825141950
0.423000000000000265,-10.553161648654864280
0.424000000000000266,-10.487248203743220643
0.425000000000000266,-10.421679762928780733
0.426000000000000267,-10.356451634104034909
0.427000000000000268,-10.291559246068798572
0.428000000000000269,-10.226998148239950126
0.429000000000000270,-10.162764010224579536
0.430000000000000271,-10.098852621263436191
0.431000000000000272,-10.035259889551458201
0.432000000000000273,-9.971981841441897032
0.433000000000000274,-9.909014620540510521
0.434000000000000274,-9.846354486696030861
0.435000000000000275,-9.783997814892945399
0.436000000000000276,-9.721941094052636956
0.437000000000000277,-9.660180925748404590
0.438000000000000278,-9.598714022840143301
0.439000000000000279,-9.537537208033976199
0.440000000000000280,-9.476647412372077639
0.441000000000000281,-9.416041673657797872
0.442000000000000282,-9.355717134821016856
0.443000000000000282,-9.295671042228368819
0.444000000000000283,-9.235900743943053826
0.445000000000000284,-9.176403687938599063
0.446000000000000285,-9.117177420270781596
0.447000000000000286,-9.058219583212018478
0.448000000000000287,-8.999527913351894171
0.449000000000000288,-8.941100239667976624
0.450000000000000289,-8.882934481570284646
0.451000000000000290,-8.825028646923122722
0.452000000000000290,-8.767380830047589058
0.453000000000000291,-8.709989209707968527
0.454000000000000292,-8.652852047085223930
0.455000000000000293,-8.595967683740365572
0.456000000000000294,-8.539334539570734961
0.457000000000000295,-8.482951110761792535
0.458000000000000296,-8.426815967736997592
0.459000000000000297,-8.370927753108299285
0.460000000000000298,-8.315285179629514190
0.461000000000000298,-8.259887028154860644
0.462000000000000299,-8.204732145604769045
0.463000000000000300,-8.149819442940891889
0.464000000000000301,-8.095147893152311980
0.465000000000000302,-8.040716529254677170
0.466000000000000303,-7.986524442303993609
0.467000000000000304,-7.932570779426558083
0.468000000000000305,-7.878854741866726741
0.469000000000000306,-7.825375583053693518
0.470000000000000306,-7.772132606688828105
0.471000000000000307,-7.719125164854546028
0.472000000000000308,-7.666352656146099953
0.473000000000000309,-7.613814523827208802
0.474000000000000310,-7.561510254010540777
0.475000000000000311,-7.509439373863943779
0.476000000000000312,-7.457601449843397567
0.477000000000000313,-7.405996085953212571
0.478000000000000314,-7.354622922034377730
0.479000000000000314,-7.303481632081648911
0.480000000000000315,-7.252571922589858389
0.481000000000000316,-7.201893530930112419
0.482000000000000317,-7.151446223756190435
0.483000000000000318,-7.101229795441637016
0.484000000000000319,-7.051244066547840639
0.485000000000000320,-7.001488882323485541
0.486000000000000321,-6.951964111235480637
0.487000000000000322,-6.902669643531739396
0.488000000000000322,-6.853605389835780493
0.489000000000000323,-6.804771279773468962
0.490000000000000324,-6.756167260631817051
0.491000000000000325,-6.707793296049961107
0.492000000000000326,-6.659649364742259436
0.493000000000000327,-6.611735459253575087
0.494000000000000328,-6.564051584746539270
0.495000000000000329,-6.516597757820856707
0.496000000000000330,-6.469374005364363356
0.497000000000000330,-6.422380363435840067
0.498000000000000331,-6.375616876179241999
0.499000000000000332,-6.329083594769294052
0.500000000000000333,-6.282780576388114824
0.501000000000000334,-6.236707883232641692
0.502000000000000335,-6.190865581552602137
0.503000000000000336,-6.145253740718753299
0.504000000000000337,-6.099872432321038040
0.505000000000000338,-6.054721729296350219
0.506000000000000338,-6.009801705085588530
0.507000000000000339,-5.965112432819608124
0.508000000000000340,-5.920653984533704950
0.509000000000000341,-5.876426430410309543
0.510000000000000342,-5.832429838049391968
0.511000000000000343,-5.788664271766277736
0.512000000000000344,-5.745129791916360418
0.513000000000000345,-5.701826454246395670
0.514000000000000346,-5.658754309271881944
0.515000000000000346,-5.615913401680076689
0.516000000000000347,-5.573303769758243043
0.517000000000000348,-5.530925444846731764
0.518000000000000349,-5.488778450816250043
0.519000000000000350,-5.446862803569142208
0.520000000000000351,-5.405178510563960259
0.521000000000000352,-5.363725570363051531
0.522000000000000353,-5.322503972202595079
0.523000000000000353,-5.281513695584613366
0.524000000000000354,-5.240754709890637741
0.525000000000000355,-5.200226974016326054
0.526000000000000356,-5.159930436026778366
0.527000000000000357,-5.119865032831990348
0.528000000000000358,-5.080030689881955830
0.529000000000000359,-5.040427320881019746
0.530000000000000360,-5.001054827520976076
0.531000000000000361,-4.961913099232482693
0.532000000000000361,-4.923002012954295736
0.533000000000000362,-4.884321432919898065
0.534000000000000363,-4.845871210461099921
0.535000000000000364,-4.807651183828073549
0.536000000000000365,-4.769661178025488724
0.537000000000000366,-4.731901004664243793
0.538000000000000367,-4.694370461828341057
0.539000000000000368,-4.657069333956579626
0.540000000000000369,-4.619997391738470682
0.541000000000000369,-4.583154392024153978
0.542000000000000370,-4.546540077747732056
0.543000000000000371,-4.510154177863695324
0.544000000000000372,-4.473996407296030320
0.545000000000000373,-4.438066466899597273
0.546000000000000374,-4.402364043433374619
0.547000000000000375,-4.366888809545175221
0.548000000000000376,-4.331640423767535886
0.549000000000000377,-4.296618530524287216
0.550000000000000377,-4.261822760147485845
0.551000000000000378,-4.227252728904367984
0.552000000000000379,-4.192908039033953926
0.553000000000000380,-4.158788278792916238
0.554000000000000381,-4.124893022510399021
0.555000000000000382,-4.091221830651496916
0.556000000000000383,-4.057774249888911555
0.557000000000000384,-4.024549813182672686
0.558000000000000385,-3.991548039867397701
0.559000000000000385,-3.958768435746930603
0.560000000000000386,-3.926210493195955387
0.561000000000000387,-3.893873691268344039
0.562000000000000388,-3.861757495811913632
0.563000000000000389,-3.829861359589311398
0.564000000000000390,-3.798184722404754243
0.565000000000000391,-3.766727011236326916
0.566000000000000392,-3.735487640373612805
0.567000000000000393,-3.704466011560345606
0.568000000000000393,-3.673661514141846940
0.569000000000000394,-3.643073525216992348
0.570000000000000395,-3.612701409794520480
0.571000000000000396,-3.582544520953299561
0.572000000000000397,-3.552602200006508504
0.573000000000000398,-3.522873776669352086
0.574000000000000399,-3.493358569230180510
0.575000000000000400,-3.464055884724738466
0.576000000000000401,-3.434965019113383811
0.577000000000000401,-3.406085257461060500
0.578000000000000402,-3.377415874119784611
0.579000000000000403,-3.348956132913502692
0.580000000000000404,-3.320705287325130595
0.581000000000000405,-3.292662580685559170
0.582000000000000406,-3.264827246364467861
0.583000000000000407,-3.237198507962784966
0.584000000000000408,-3.209775579506610743
0.585000000000000409,-3.182557665642456346
0.586000000000000409,-3.155543961833623179
0.587000000000000410,-3.128733654557597443
0.588000000000000411,-3.102125921504287565
0.589000000000000412,-3.075719931774984595
0.590000000000000413,-3.049514846081879949
0.591000000000000414,-3.023509816948032558
0.592000000000000415,-2.997703988907670869
0.593000000000000416,-2.972096498706636947
0.594000000000000417,-2.946686475502922509
0.595000000000000417,-2.921473041067195631
0.596000000000000418,-2.896455309983072990
0.597000000000000419,-2.871632389847239786
0.598000000000000420,-2.847003381469099370
0.599000000000000421,-2.822567379070020976
0.600000000000000422,-2.798323470481974606
0.601000000000000423,-2.774270737345543747
0.602000000000000424,-2.750408255307157823
0.603000000000000425,-2.726735094215514632
0.604000000000000425,-2.703250318317073297
0.605000000000000426,-2.679952986450552910
0.606000000000000427,-2.656842152240397326
0.607000000000000428,-2.633916864289020943
0.608000000000000429,-2.611176166367946028
