# redgrapheneoxide_BSAI18
# h[nm],U(h)[kJ/mol]
0.149999999999999994,82.021106455635717225
0.150999999999999995,79.691442249394384589
0.151999999999999996,76.942153952485654145
0.152999999999999997,74.156763211688172532
0.153999999999999998,71.465221325220880999
0.154999999999999999,68.884219605878939774
0.156000000000000000,66.390097834950168476
0.157000000000000001,63.953253013767628943
0.158000000000000002,61.551639125533618824
0.159000000000000002,59.173751088443772517
0.160000000000000003,56.816991538143746254
0.161000000000000004,54.484578382592630419
0.162000000000000005,52.182531240963534458
0.163000000000000006,49.917358041529340085
0.164000000000000007,47.694576682542347612
0.165000000000000008,45.517975619050581315
0.166000000000000009,43.389431026229814847
0.167000000000000010,41.309088705652435181
0.168000000000000010,39.275745470465551534
0.169000000000000011,37.287304126052852382
0.170000000000000012,35.341215945601121007
0.171000000000000013,33.434858851352252884
0.172000000000000014,31.565826258328019804
0.173000000000000015,29.732120674514327163
0.174000000000000016,27.932258630931151799
0.175000000000000017,26.165300661888444722
0.176000000000000018,24.430823225376602892
0.177000000000000018,22.728849858530217887
0.178000000000000019,21.059757502555790154
0.179000000000000020,19.424171578578249608
0.180000000000000021,17.822860615697511122
0.181000000000000022,16.256638413846086877
0.182000000000000023,14.726279114357149425
0.183000000000000024,13.232448290584745365
0.184000000000000025,11.775651321585158371
0.185000000000000026,10.356198882232682479
0.186000000000000026,8.974188347171565994
0.187000000000000027,7.629499217665303590
0.188000000000000028,6.321800284171038342
0.189000000000000029,5.050566075629089546
0.190000000000000030,3.815100163867188421
0.191000000000000031,2.614563038456400701
0.192000000000000032,1.448002500990311692
0.193000000000000033,0.314384812636622990
0.194000000000000034,-0.787374863295278282
0.195000000000000034,-1.858383872695662742
0.196000000000000035,-2.899746189758462211
0.197000000000000036,-3.912539827603782605
0.198000000000000037,-4.897797885656497208
0.199000000000000038,-5.856493375421304215
0.200000000000000039,-6.789527798451972629
0.201000000000000040,-7.697723317212981087
0.202000000000000041,-8.581818258870381300
0.203000000000000042,-9.442465620688194505
0.204000000000000042,-10.280234200044214177
0.205000000000000043,-11.095611948318923723
0.206000000000000044,-11.889011142292051915
0.207000000000000045,-12.660774975606591042
0.208000000000000046,-13.411185193020127571
0.209000000000000047,-14.140470418582328449
0.210000000000000048,-14.848814862952176341
0.211000000000000049,-15.536367132574323335
0.212000000000000050,-16.203248902517330521
0.213000000000000050,-16.849563253927172468
0.214000000000000051,-17.475402515084308419
0.215000000000000052,-18.080855481067324320
0.216000000000000053,-18.666013920370609469
0.217000000000000054,-19.230978307062425614
0.218000000000000055,-19.775862743947602240
0.219000000000000056,-20.300799065607201044
0.220000000000000057,-20.805940130143728339
0.221000000000000058,-21.291462325061498717
0.222000000000000058,-21.757567326143878006
0.223000000000000059,-22.204483158666675990
0.224000000000000060,-22.632464618076404861
0.225000000000000061,-23.041793112637371621
0.226000000000000062,-23.432775993797651637
0.227000000000000063,-23.805745441426957143
0.228000000000000064,-24.161056970911545250
0.229000000000000065,-24.499087627618159502
0.230000000000000066,-24.820233931700169450
0.231000000000000066,-25.124909632843525742
0.232000000000000067,-25.413543330536388254
0.233000000000000068,-25.686576010978377838
0.234000000000000069,-25.944458546980154523
0.235000000000000070,-26.187649202279590810
0.236000000000000071,-26.416611176733560740
0.237000000000000072,-26.631810223934451187
0.238000000000000073,-26.833712368024634998
0.239000000000000073,-27.022781741907294872
0.240000000000000074,-27.199478564728128305
0.241000000000000075,-27.364257272463635928
0.242000000000000076,-27.517564811726636265
0.243000000000000077,-27.659839103502342539
0.244000000000000078,-27.791507680467567809
0.245000000000000079,-27.912986498819730485
0.246000000000000080,-28.024678923148940157
0.247000000000000081,-28.126974880812980473
0.248000000000000081,-28.220250180508958948
0.249000000000000082,-28.304865988259869880
0.250000000000000111,-28.381168452830586091
0.251000000000000112,-28.449488471635572040
0.252000000000000113,-28.510141587480454461
0.253000000000000114,-28.563428005966237322
0.254000000000000115,-28.609632723063572968
0.255000000000000115,-28.649025752207229800
0.256000000000000116,-28.681862440253166113
0.257000000000000117,-28.708383861760104594
0.258000000000000118,-28.728817281286133323
0.259000000000000119,-28.743376673712891289
0.260000000000000120,-28.752263293008276435
0.261000000000000121,-28.755666280297937476
0.262000000000000122,-28.753763302624882670
0.263000000000000123,-28.746721214320700710
0.264000000000000123,-28.734696733481808195
0.265000000000000124,-28.717837126629632394
0.266000000000000125,-28.696280895225914520
0.267000000000000126,-28.670158458305870397
0.268000000000000127,-28.639592826077336696
0.269000000000000128,-28.604700259905609272
0.270000000000000129,-28.565590914659310329
0.271000000000000130,-28.522369459926903090
0.272000000000000131,-28.475135677123624589
0.273000000000000131,-28.423985029992650198
0.274000000000000132,-28.369009206460201966
0.275000000000000133,-28.310296630230872950
0.276000000000000134,-28.247932940905876364
0.277000000000000135,-28.182001441772762007
0.278000000000000136,-28.112583514750959068
0.279000000000000137,-28.039759002282767852
0.280000000000000138,-27.963606556235681921
0.281000000000000139,-27.884203954129095138
0.282000000000000139,-27.801628383218162099
0.283000000000000140,-27.715956693160997304
0.284000000000000141,-27.627265618163164618
0.285000000000000142,-27.535631969637638150
0.286000000000000143,-27.441132800539993042
0.287000000000000144,-27.343845542639165558
0.288000000000000145,-27.243848118065223218
0.289000000000000146,-27.141219026538514925
0.290000000000000147,-27.036037409730859338
0.291000000000000147,-26.928383094240349038
0.292000000000000148,-26.818336614679054719
0.293000000000000149,-26.705979218377127182
0.294000000000000150,-26.591392853200716218
0.295000000000000151,-26.474660139964790062
0.296000000000000152,-26.355864330896331182
0.297000000000000153,-26.235089255571363509
0.298000000000000154,-26.112419255708779531
0.299000000000000155,-25.987939110159793188
0.300000000000000155,-25.861733951381467023
0.301000000000000156,-25.733889174629013041
0.302000000000000157,-25.604490341045096358
0.303000000000000158,-25.473623075764738388
0.304000000000000159,-25.341372962093686283
0.305000000000000160,-25.207825432755843309
0.306000000000000161,-25.073065659142720563
0.307000000000000162,-24.937178439434944721
0.308000000000000163,-24.800248086403176018
0.309000000000000163,-24.662358315634129724
0.310000000000000164,-24.523592134866291303
0.311000000000000165,-24.384031735060425206
0.312000000000000166,-24.243758383771929488
0.313000000000000167,-24.102852321335852537
0.314000000000000168,-23.961392660320957049
0.315000000000000169,-23.819457288657183369
0.316000000000000170,-23.677122776790639591
0.317000000000000171,-23.534464289172596807
0.318000000000000171,-23.391555500343617524
0.319000000000000172,-23.248468515831007153
0.320000000000000173,-23.105273798037138988
0.321000000000000174,-22.962040097258139326
0.322000000000000175,-22.818834387936878016
0.323000000000000176,-22.675721810220700547
0.324000000000000177,-22.532765616863677849
0.325000000000000178,-22.390027125484202486
0.326000000000000179,-22.247565676162963655
0.327000000000000179,-22.105438594341634939
0.328000000000000180,-21.963701158960844850
0.329000000000000181,-21.822406575756378544
0.330000000000000182,-21.681605955613669323
0.331000000000000183,-21.541348297865781092
0.332000000000000184,-21.401680478404642827
0.333000000000000185,-21.262647242463430075
0.334000000000000186,-21.124291201916868488
0.335000000000000187,-20.986652836936670496
0.336000000000000187,-20.849770501831688563
0.337000000000000188,-20.713680434895355376
0.338000000000000189,-20.578416772078149677
0.339000000000000190,-20.444011564298456562
0.340000000000000191,-20.310494798201894184
0.341000000000000192,-20.177894420178176915
0.342000000000000193,-20.046236363442226036
0.343000000000000194,-19.915544577987400743
0.344000000000000195,-19.785841063218292391
0.345000000000000195,-19.657145903072894555
0.346000000000000196,-19.529477303445172964
0.347000000000000197,-19.402851631722313641
0.348000000000000198,-19.277283458253872794
0.349000000000000199,-19.152785599573800113
0.350000000000000200,-19.029369163200453130
0.351000000000000201,-18.907043593844100826
0.352000000000000202,-18.785816720856409745
0.353000000000000203,-18.665694806761372604
0.354000000000000203,-18.546682596712525282
0.355000000000000204,-18.428783368726715963
0.356000000000000205,-18.311998984550630354
0.357000000000000206,-18.196329941021918586
0.358000000000000207,-18.081775421792507075
0.359000000000000208,-17.968333349288030831
0.360000000000000209,-17.856000436783084240
0.361000000000000210,-17.744772240477907133
0.362000000000000210,-17.634643211468294055
0.363000000000000211,-17.525606747506444094
0.364000000000000212,-17.417655244456245356
0.365000000000000213,-17.310780147352346603
0.366000000000000214,-17.204972000978266067
0.367000000000000215,-17.100220499884098757
0.368000000000000216,-16.996514537770259778
0.369000000000000217,-16.893842256168746019
0.370000000000000218,-16.792191092358947913
0.371000000000000218,-16.691547826459931514
0.372000000000000219,-16.591898627646141762
0.373000000000000220,-16.493229099438387664
0.374000000000000221,-16.395524324026428786
0.375000000000000222,-16.298768905584047673
0.376000000000000223,-16.202947012541859095
0.377000000000000224,-16.108042418787185568
0.378000000000000225,-16.014038543764218758
0.379000000000000226,-15.920918491451669041
0.380000000000000226,-15.828665088198686561
0.381000000000000227,-15.737260919403009751
0.382000000000000228,-15.646688365019187472
0.383000000000000229,-15.556929633887241593
0.384000000000000230,-15.467966796875339597
0.385000000000000231,-15.379781818833109241
0.386000000000000232,-15.292356589354350049
0.387000000000000233,-15.205672952350800742
0.388000000000000234,-15.119712734440700075
0.389000000000000234,-15.034457772158429378
0.390000000000000235,-14.949889937992910660
0.391000000000000236,-14.865991165265185714
0.392000000000000237,-14.782743471856516493
0.393000000000000238,-14.700128982800800159
0.394000000000000239,-14.618129951755753027
0.395000000000000240,-14.536728781369586017
0.396000000000000241,-14.455908042560384530
0.397000000000000242,-14.375650492727050533
0.398000000000000242,-14.295939092911552848
0.399000000000000243,-14.216757023933187298
0.400000000000000244,-14.138087701516250050
0.401000000000000245,-14.059914790433614584
0.402000000000000246,-13.982222217689047383
0.403000000000000247,-13.904994184761601872
0.404000000000000248,-13.828215178936435592
0.405000000000000249,-13.751869983746127346
0.406000000000000250,-13.675943688547386401
0.407000000000000250,-13.600421697258099130
0.408000000000000251,-13.525289736279882291
0.409000000000000252,-13.450533861631573274
0.410000000000000253,-13.376140465318835382
0.411000000000000254,-13.302096280965614028
0.412000000000000255,-13.228388388732497560
0.413000000000000256,-13.155004219547555167
0.414000000000000257,-13.081931558674686045
0.415000000000000258,-13.009158548644553122
0.416000000000000258,-12.936673691572917022
0.417000000000000259,-12.864465850890891119
0.418000000000000260,-12.792524252511523031
0.419000000000000261,-12.720838485456543054
0.420000000000000262,-12.649398501967066721
0.421000000000000263,-12.578194617121534193
0.422000000000000264,-12.507217507983741100
0.423000000000000265,-12.436458212303481474
0.424000000000000266,-12.365908126792067634
0.425000000000000266,-12.295559004994156993
0.426000000000000267,-12.225402954777230491
0.427000000000000268,-12.155432435459450957
0.428000000000000269,-12.085640254596171417
0.429000000000000270,-12.016019564444857082
0.430000000000000271,-11.946563858127733582
0.431000000000000272,-11.877266965510951735
0.432000000000000273,-11.808123048818561784
0.433000000000000274,-11.739126597999083756
0.434000000000000274,-11.670272425861931254
0.435000000000000275,-11.601555663000448604
0.436000000000000276,-11.532971752517884312
0.437000000000000277,-11.464516444571865250
0.438000000000000278,-11.396185790752820566
0.439000000000000279,-11.327976138310930310
0.440000000000000280,-11.259884124245825632
0.441000000000000281,-11.191906669272828623
0.442000000000000282,-11.124040971678949674
0.443000000000000282,-11.056284501081274030
0.444000000000000283,-10.988634992100111631
0.445000000000000284,-10.921090437958696384
0.446000000000000285,-10.853649084020522864
0.447000000000000286,-10.786309421275568354
0.448000000000000287,-10.719070179785317620
0.449000000000000288,-10.651930322096941239
0.450000000000000289,-10.584889036635892978
0.451000000000000290,-10.517945731086054906
0.452000000000000290,-10.451100025766168145
0.453000000000000291,-10.384351747010692080
0.454000000000000292,-10.317700920563005695
0.455000000000000293,-10.251147764988363775
0.456000000000000294,-10.184692685113692079
0.457000000000000295,-10.118336265500959215
0.458000000000000296,-10.052079263960386868
0.459000000000000297,-9.985922605109534445
0.460000000000000298,-9.919867373983883851
0.461000000000000298,-9.853914809704223288
0.462000000000000299,-9.788066299205819831
0.463000000000000300,-9.722323371034045536
0.464000000000000301,-9.656687689210796677
0.465000000000000302,-9.591161047175852161
0.466000000000000303,-9.525745361806846390
0.467000000000000304,-9.460442667521439475
0.468000000000000305,-9.395255110464908910
0.469000000000000306,-9.330184942786127422
0.470000000000000306,-9.265234517004747872
0.471000000000000307,-9.200406280471888465
0.472000000000000308,-9.135702769926904665
0.473000000000000309,-9.071126606151970861
0.474000000000000310,-9.006680488726516387
0.475000000000000311,-8.942367190883047101
0.476000000000000312,-8.878189554465908628
0.477000000000000313,-8.814150484994025092
0.478000000000000314,-8.750252946828862122
0.479000000000000314,-8.686499958448496983
0.480000000000000315,-8.622894587828387358
0.481000000000000316,-8.559439947929575965
0.482000000000000317,-8.496139192294638320
0.483000000000000318,-8.432995510751714718
0.484000000000000319,-8.370012125226695687
0.485000000000000320,-8.307192285663722586
0.486000000000000321,-8.244539266053696025
0.487000000000000322,-8.182056360570729936
0.488000000000000322,-8.119746879816084117
0.489000000000000323,-8.057614147169257279
0.490000000000000324,-7.995661495245609096
0.491000000000000325,-7.933892262459911748
0.492000000000000326,-7.872309789695060900
0.493000000000000327,-7.810917417075248004
0.494000000000000328,-7.749718480842572532
0.495000000000000329,-7.688716310336261017
0.496000000000000330,-7.627914225073359589
0.497000000000000330,-7.567315531929930117
0.498000000000000331,-7.506923522421443451
0.499000000000000332,-7.446741470081374992
0.500000000000000333,-7.386772627936549540
0.501000000000000334,-7.327020226078056808
0.502000000000000335,-7.267487469326335159
0.503000000000000336,-7.208177534989116175
0.504000000000000337,-7.149093570710713941
0.505000000000000338,-7.090238692411269028
0.506000000000000338,-7.031615982314477264
0.507000000000000339,-6.973228487062238301
0.508000000000000340,-6.915079215914738953
0.509000000000000341,-6.857171139034467622
0.510000000000000342,-6.799507185852457170
0.511000000000000343,-6.742090243515316494
0.512000000000000344,-6.684923155411361506
0.513000000000000345,-6.628008719774281410
0.514000000000000346,-6.571349688362758457
0.515000000000000346,-6.514948765214308324
0.516000000000000347,-6.458808605471848985
0.517000000000000348,-6.402931814281343392
0.518000000000000349,-6.347320945758771593
0.519000000000000350,-6.291978502025003195
0.520000000000000351,-6.236906932306793827
0.521000000000000352,-6.182108632102378820
0.522000000000000353,-6.127585942410028963
0.523000000000000353,-6.073341149017903895
0.524000000000000354,-6.019376481853802474
0.525000000000000355,-5.965694114392963598
0.526000000000000356,-5.912296163122571890
0.527000000000000357,-5.859184687061318897
0.528000000000000358,-5.806361687332444177
0.529000000000000359,-5.753829106788818315
0.530000000000000360,-5.701588829688468252
0.531000000000000361,-5.649642681419126511
0.532000000000000361,-5.597992428270240239
0.533000000000000362,-5.546639777251044734
0.534000000000000363,-5.495586375953264380
0.535000000000000364,-5.444833812456937316
0.536000000000000365,-5.394383615278056432
0.537000000000000366,-5.344237253356579842
0.538000000000000367,-5.294396136083444837
0.539000000000000368,-5.244861613365333852
0.540000000000000369,-5.195634975725690552
0.541000000000000369,-5.146717454440900674
0.542000000000000370,-5.098110221710201451
0.543000000000000371,-5.049814390858104574
0.544000000000000372,-5.001831016568148769
0.545000000000000373,-4.954161095146721649
0.546000000000000374,-4.906805564815743814
0.547000000000000375,-4.859765306033100529
0.548000000000000376,-4.813041141839673465
0.549000000000000377,-4.766633838231827625
0.550000000000000377,-4.720544104558209497
0.551000000000000378,-4.674772593939923837
0.552000000000000379,-4.629319903712887374
0.553000000000000380,-4.584186575891425974
0.554000000000000381,-4.539373097652031674
0.555000000000000382,-4.494879901836434044
0.556000000000000383,-4.450707367472809928
0.557000000000000384,-4.406855820314424577
0.558000000000000385,-4.363325533394617040
0.559000000000000385,-4.320116727597328676
0.560000000000000386,-4.277229572242251976
0.561000000000000387,-4.234664185683800319
0.562000000000000388,-4.192420635923027383
0.563000000000000389,-4.150498941231687944
0.564000000000000390,-4.108899070787705554
0.565000000000000391,-4.067620945321218429
0.566000000000000392,-4.026664437770504534
0.567000000000000393,-3.986029373947050036
0.568000000000000393,-3.945715533209042114
0.569000000000000394,-3.905722649142605807
0.570000000000000395,-3.866050410250183145
0.571000000000000396,-3.826698460645286737
0.572000000000000397,-3.787666400753129547
0.573000000000000398,-3.748953788016437194
0.574000000000000399,-3.710560137605921405
0.575000000000000400,-3.672484923134760493
0.576000000000000401,-3.634727577376624108
0.577000000000000401,-3.597287492986682711
0.578000000000000402,-3.560164023225018237
0.579000000000000403,-3.523356482682037161
0.580000000000000404,-3.486864148005346387
0.581000000000000405,-3.450686258627633229
0.582000000000000406,-3.414822017495102280
0.583000000000000407,-3.379270591796025514
0.584000000000000408,-3.344031113689019286
0.585000000000000409,-3.309102681030607673
0.586000000000000409,-3.274484358101681813
0.587000000000000410,-3.240175176332536378
0.588000000000000411,-3.206174135026042649
0.589000000000000412,-3.172480202078683753
0.590000000000000413,-3.139092314699062580
0.591000000000000414,-3.106009380123607055
0.592000000000000415,-3.073230276329163679
0.593000000000000416,-3.040753852742130281
0.594000000000000417,-3.008578930943917928
0.595000000000000417,-2.976704305372477322
0.596000000000000418,-2.945128744019505973
0.597000000000000419,-2.913850989123311308
0.598000000000000420,-2.882869757856858062
0.599000000000000421,-2.852183743010971551
0.600000000000000422,-2.821791613672350429
0.601000000000000423,-2.791692015896289902
0.602000000000000424,-2.761883573373828948
0.603000000000000425,-2.732364888093222977
0.604000000000000425,-2.703134540995519863
0.605000000000000426,-2.674191092624086608
0.606000000000000427,-2.645533083767982685
0.607000000000000428,-2.617159036098915870
