# redgrapheneoxide_BSAI24
# h[nm],U(h)[kJ/mol]
0.149999999999999994,89.327900895748555854
0.150999999999999995,86.870745780870748831
0.151999999999999996,84.155959763370873361
0.152999999999999997,81.423875993912631088
0.153999999999999998,78.760595301017829684
0.154999999999999999,76.182012581054209477
0.156000000000000000,73.677675722504361033
0.157000000000000001,71.231721718879697391
0.158000000000000002,68.831357586751579447
0.159000000000000002,66.469054374006915964
0.160000000000000003,64.141946576235767452
0.161000000000000004,61.850303381272752290
0.162000000000000005,59.595981032701544677
0.163000000000000006,57.381226278639985594
0.164000000000000007,55.207916227260042774
0.165000000000000008,53.077185537547450167
0.166000000000000009,50.989342137728584703
0.167000000000000010,48.943967373620125727
0.168000000000000010,46.940111785883338769
0.169000000000000011,44.976520082844132276
0.170000000000000012,43.051841188739714994
0.171000000000000013,41.164798206713101081
0.172000000000000014,39.314307633241611484
0.173000000000000015,37.499547258320419019
0.174000000000000016,35.719978498769776820
0.175000000000000017,33.975332249233403559
0.176000000000000018,32.265568503094257835
0.177000000000000018,30.590819701753787285
0.178000000000000019,28.951326588850605503
0.179000000000000020,27.347373711245882788
0.180000000000000021,25.779229931660250230
0.181000000000000022,24.247097605494676742
0.182000000000000023,22.751072551714116798
0.183000000000000024,21.291115678773984143
0.184000000000000025,19.867036132207704924
0.185000000000000026,18.478485102590319400
0.186000000000000026,17.124958945399065158
0.187000000000000027,15.805809982697462956
0.188000000000000028,14.520263242005412962
0.189000000000000029,13.267437402136028624
0.190000000000000030,12.046368324134306249
0.191000000000000031,10.856033717088690693
0.192000000000000032,9.695377697830348751
0.193000000000000033,8.563334229745109383
0.194000000000000034,7.458848653207949653
0.195000000000000034,6.380896736853246765
0.196000000000000035,5.328500877021857818
0.197000000000000036,4.300743247308596473
0.198000000000000037,3.296775848631881445
0.199000000000000038,2.315827532002566524
0.200000000000000039,1.357208161915059552
0.201000000000000040,0.420310159732407151
0.202000000000000041,-0.495392284060738153
0.203000000000000042,-1.390346009594493060
0.204000000000000042,-2.264923366302245888
0.205000000000000043,-3.119428037152674804
0.206000000000000044,-3.954101885452399046
0.207000000000000045,-4.769132519972309581
0.208000000000000046,-5.564661298912110254
0.209000000000000047,-6.340791522037109829
0.210000000000000048,-7.097596591509381270
0.211000000000000049,-7.835127954083421109
0.212000000000000050,-8.553422669304922010
0.213000000000000050,-9.252510479237308516
0.214000000000000051,-9.932420284370078178
0.215000000000000052,-10.593185957244864781
0.216000000000000053,-11.234851449648244781
0.217000000000000054,-11.857475170780785945
0.218000000000000055,-12.461133632550231098
0.219000000000000056,-13.045924374072338736
0.220000000000000057,-13.611968190694316405
0.221000000000000058,-14.159410703520473263
0.222000000000000058,-14.688423313713633078
0.223000000000000059,-15.199203591968000637
0.224000000000000060,-15.691975157731452128
0.225000000000000061,-16.166987105223967092
0.226000000000000062,-16.624513034282486501
0.227000000000000063,-17.064849743783032210
0.228000000000000064,-17.488315644057159659
0.229000000000000065,-17.895248942529711655
0.230000000000000066,-18.286005653935283988
0.231000000000000066,-18.660957483088687070
0.232000000000000067,-19.020489624431242248
0.233000000000000068,-19.364998518581426623
0.234000000000000069,-19.694889601993416761
0.235000000000000070,-20.010575081666420516
0.236000000000000071,-20.312471762729828129
0.237000000000000072,-20.600998952720917856
0.238000000000000073,-20.876576462523065203
0.239000000000000073,-21.139622720285775159
0.240000000000000074,-21.390553011233897962
0.241000000000000075,-21.629777853112166497
0.242000000000000076,-21.857701514116651964
0.243000000000000077,-22.074720677545158765
0.244000000000000078,-22.281223255052911014
0.245000000000000079,-22.477587348325393179
0.246000000000000080,-22.664180357169705360
0.247000000000000081,-22.841358230468795654
0.248000000000000081,-23.009464855124985405
0.249000000000000082,-23.168831577028129232
0.250000000000000111,-23.319776847201342918
0.251000000000000112,-23.462605985588261603
0.252000000000000113,-23.597611054433777156
0.253000000000000114,-23.725070832854818548
0.254000000000000115,-23.845250883988203583
0.255000000000000115,-23.958403706015680257
0.256000000000000116,-24.064768958392402709
0.257000000000000117,-24.164573754725530819
0.258000000000000118,-24.258033013951230572
0.259000000000000119,-24.345349861729722818
0.260000000000000120,-24.426716074305041104
0.261000000000000121,-24.502312557447694985
0.262000000000000122,-24.572309853506958177
0.263000000000000123,-24.636868670032196604
0.264000000000000123,-24.696140423874428649
0.265000000000000124,-24.750267795141198235
0.266000000000000125,-24.799385285844088855
0.267000000000000126,-24.843619778543086341
0.268000000000000127,-24.883091090750848906
0.269000000000000128,-24.917912521308704044
0.270000000000000129,-24.948191385380866336
0.271000000000000130,-24.974029535132963531
0.272000000000000131,-24.995523863560194400
0.273000000000000131,-25.012766789311207560
0.274000000000000132,-25.025846720711236060
0.275000000000000133,-25.034848497524713196
0.276000000000000134,-25.039853809309601473
0.277000000000000135,-25.040941589505557374
0.278000000000000136,-25.038188384664316288
0.279000000000000137,-25.031668698474028645
0.280000000000000138,-25.021455310449901788
0.281000000000000139,-25.007619569362855572
0.282000000000000139,-24.990231661655386119
0.283000000000000140,-24.969360855251643727
0.284000000000000141,-24.945075719306998963
0.285000000000000142,-24.917444320562246673
0.286000000000000143,-24.886534397070576574
0.287000000000000144,-24.852413510151603049
0.288000000000000145,-24.815149175498866896
0.289000000000000146,-24.774808974424111341
0.290000000000000147,-24.731460646266633319
0.291000000000000147,-24.685172163028692438
0.292000000000000148,-24.636011787320065025
0.293000000000000149,-24.584048114706696708
0.294000000000000150,-24.529350101562236830
0.295000000000000151,-24.471987079516434704
0.296000000000000152,-24.412028757582778127
0.297000000000000153,-24.349545213030289403
0.298000000000000154,-24.284606872041067049
0.299000000000000155,-24.217284481167418164
0.300000000000000155,-24.147649070570775365
0.301000000000000156,-24.075771909989335029
0.302000000000000157,-24.001724458343680624
0.303000000000000158,-23.925578307849566073
0.304000000000000159,-23.847405123465438948
0.305000000000000160,-23.767276578458957914
0.306000000000000161,-23.685264286833689340
0.307000000000000162,-23.601439733312084002
0.308000000000000163,-23.515874201527253717
0.309000000000000163,-23.428638701031275104
0.310000000000000164,-23.339803893684702985
0.311000000000000165,-23.249440019948018232
0.312000000000000166,-23.157616825554690365
0.313000000000000167,-23.064403489003343140
0.314000000000000168,-22.969868550267442231
0.315000000000000169,-22.874079841081613296
0.316000000000000170,-22.777104417127350899
0.317000000000000171,-22.679008492404371111
0.318000000000000171,-22.579857376040347816
0.319000000000000172,-22.479715411759180199
0.320000000000000173,-22.378645920196948538
0.321000000000000174,-22.276711144225771477
0.322000000000000175,-22.173972197418162722
0.323000000000000176,-22.070489015758784745
0.324000000000000177,-21.966320312686129057
0.325000000000000178,-21.861523537524440997
0.326000000000000179,-21.756154837345000885
0.327000000000000179,-21.650269022276553699
0.328000000000000180,-21.543919534266848359
0.329000000000000181,-21.437158419281150401
0.330000000000000182,-21.330036302907913637
0.331000000000000183,-21.222602369329081284
0.332000000000000184,-21.114904343599583569
0.333000000000000185,-21.006988477169834084
0.334000000000000186,-20.898899536575228808
0.335000000000000187,-20.790680795207812537
0.336000000000000187,-20.682374028078037043
0.337000000000000188,-20.574019509467255773
0.338000000000000189,-20.465656013367002686
0.339000000000000190,-20.357320816595393609
0.340000000000000191,-20.249049704477631195
0.341000000000000192,-20.140876978974766587
0.342000000000000193,-20.032835469141620166
0.343000000000000194,-19.924956543794337449
0.344000000000000195,-19.817270126265828623
0.345000000000000195,-19.709804711127787868
0.346000000000000196,-19.602587382757583612
0.347000000000000197,-19.495643835629074658
0.348000000000000198,-19.388998396207348662
0.349000000000000199,-19.282674046328828865
0.350000000000000200,-19.176692447950056675
0.351000000000000201,-19.071073969150262428
0.352000000000000202,-18.965837711275675304
0.353000000000000203,-18.861001537115811288
0.354000000000000203,-18.756582100004916214
0.355000000000000204,-18.652594873744952508
0.356000000000000205,-18.549054183249520378
0.357000000000000206,-18.445973235811706559
0.358000000000000207,-18.343364152901983744
0.359000000000000208,-18.241238002406255703
0.360000000000000209,-18.139604831217425840
0.361000000000000210,-18.038473698097778453
0.362000000000000210,-17.937852706732975605
0.363000000000000211,-17.837749038902369847
0.364000000000000212,-17.738168987694006518
0.365000000000000213,-17.639117990696259852
0.366000000000000214,-17.540600663101994172
0.367000000000000215,-17.442620830664495202
0.368000000000000216,-17.345181562448278356
0.369000000000000217,-17.248285203321159997
0.370000000000000218,-17.151933406137736426
0.371000000000000218,-17.056127163567506244
0.372000000000000219,-16.960866839524399552
0.373000000000000220,-16.866152200157678465
0.374000000000000221,-16.771982444367310450
0.375000000000000222,-16.678356233809818576
0.376000000000000223,-16.585271722363863489
0.377000000000000224,-16.492726585027398301
0.378000000000000225,-16.400718046221115287
0.379000000000000226,-16.309242907475518081
0.380000000000000226,-16.218297574481645995
0.381000000000000227,-16.127878083487509286
0.382000000000000228,-16.037980127025235788
0.383000000000000229,-15.948599078955671970
0.384000000000000230,-15.859730018819401920
0.385000000000000231,-15.771367755485536932
0.386000000000000232,-15.683506850090981999
0.387000000000000233,-15.596141638265214269
0.388000000000000234,-15.509266251636944389
0.389000000000000234,-15.422874638621172139
0.390000000000000235,-15.336960584485916925
0.391000000000000236,-15.251517730700253850
0.392000000000000237,-15.166539593565815380
0.393000000000000238,-15.082019582135890445
0.394000000000000239,-14.997951015426778554
0.395000000000000240,-14.914327138927777838
0.396000000000000241,-14.831141140416738367
0.397000000000000242,-14.748386165089266697
0.398000000000000242,-14.666055330010602020
0.399000000000000243,-14.584141737899745550
0.400000000000000244,-14.502638490256355652
0.401000000000000245,-14.421538699841590869
0.402000000000000246,-14.340835502524550193
0.403000000000000247,-14.260522068506499949
0.404000000000000248,-14.180591612935780077
0.405000000000000249,-14.101037405926451385
0.406000000000000250,-14.021852781994232018
0.407000000000000250,-13.943031148923614282
0.408000000000000251,-13.864565996080250088
0.409000000000000252,-13.786450902183034373
0.410000000000000253,-13.708679542550367358
0.411000000000000254,-13.631245695835394471
0.412000000000000255,-13.554143250264880649
0.413000000000000256,-13.477366209396834051
0.414000000000000257,-13.400908697411505699
0.415000000000000258,-13.324764963951011509
0.416000000000000258,-13.248929388522219242
0.417000000000000259,-13.173396484477914115
0.418000000000000260,-13.098160902591027721
0.419000000000000261,-13.023217434236480372
0.420000000000000262,-12.948561014195373531
0.421000000000000263,-12.874186723095885299
0.422000000000000264,-12.800089789505042503
0.423000000000000265,-12.726265591685608669
0.424000000000000266,-12.652709659031879497
0.425000000000000266,-12.579417673198099337
0.426000000000000267,-12.506385468932940341
0.427000000000000268,-12.433609034633292367
0.428000000000000269,-12.361084512630325705
0.429000000000000270,-12.288808199220600414
0.430000000000000271,-12.216776544454621245
0.431000000000000272,-12.144986151695112753
0.432000000000000273,-12.073433776956871810
0.433000000000000274,-12.002116328039916127
0.434000000000000274,-11.931030863467203318
0.435000000000000275,-11.860174591238049402
0.436000000000000276,-11.789544867408086048
0.437000000000000277,-11.719139194506038137
0.438000000000000278,-11.648955219797759497
0.439000000000000279,-11.578990733407312774
0.440000000000000280,-11.509243666304621811
0.441000000000000281,-11.439712088169152082
0.442000000000000282,-11.370394205138568466
0.443000000000000282,-11.301288357451026556
0.444000000000000283,-11.232393016989648871
0.445000000000000284,-11.163706784737282618
0.446000000000000285,-11.095228388149282139
0.447000000000000286,-11.026956678452149774
0.448000000000000287,-10.958890627875049972
0.449000000000000288,-10.891029326821442424
0.450000000000000289,-10.823371980987406715
0.451000000000000290,-10.755917908433332286
0.452000000000000290,-10.688666536614993774
0.453000000000000291,-10.621617399380143709
0.454000000000000292,-10.554770133936258958
0.455000000000000293,-10.488124477794892542
0.456000000000000294,-10.421680265697897738
0.457000000000000295,-10.355437426530508915
0.458000000000000296,-10.289395980225940264
0.459000000000000297,-10.223556034666207992
0.460000000000000298,-10.157917782583274047
0.461000000000000298,-10.092481498464771050
0.462000000000000299,-10.027247535468083228
0.463000000000000300,-9.962216322346495900
0.464000000000000301,-9.897388360390911188
0.465000000000000302,-9.832764220390366461
0.466000000000000303,-9.768344539614485456
0.467000000000000304,-9.704130018820752213
0.468000000000000305,-9.640121419289380711
0.469000000000000306,-9.576319559888274213
0.470000000000000306,-9.512725314170605628
0.471000000000000307,-9.449339607507051042
0.472000000000000308,-9.386163414255010551
0.473000000000000309,-9.323197754966553674
0.474000000000000310,-9.260443693636956297
0.475000000000000311,-9.197902334995465168
0.476000000000000312,-9.135574821839901105
0.477000000000000313,-9.073462332416299958
0.478000000000000314,-9.011566077844985756
0.479000000000000314,-8.949887299594283974
0.480000000000000315,-8.888427267002658283
0.481000000000000316,-8.827187274850512466
0.482000000000000317,-8.766168640982183291
0.483000000000000318,-8.705372703979016080
0.484000000000000319,-8.644800820884054104
0.485000000000000320,-8.584454364978927998
0.486000000000000321,-8.524334723613296916
0.487000000000000322,-8.464443296087278412
0.488000000000000322,-8.404781491587018039
0.489000000000000323,-8.345350727173764582
0.490000000000000324,-8.286152425826378121
0.491000000000000325,-8.227188014537500038
0.492000000000000326,-8.168458922463150529
0.493000000000000327,-8.109966579125931219
0.494000000000000328,-8.051712412671474084
0.495000000000000329,-7.993697848178074494
0.496000000000000330,-7.935924306019183305
0.497000000000000330,-7.878393200278518194
0.498000000000000331,-7.821105937217379456
0.499000000000000332,-7.764063913793867400
0.500000000000000333,-7.707268516233486189
0.501000000000000334,-7.650721118650727348
0.502000000000000335,-7.594423081721030755
0.503000000000000336,-7.538375751402755398
0.504000000000000337,-7.482580457708385424
0.505000000000000338,-7.427038513524496288
0.506000000000000338,-7.371751213479834419
0.507000000000000339,-7.316719832860803407
0.508000000000000340,-7.261945626573724333
0.509000000000000341,-7.207429828153195217
0.510000000000000342,-7.153173648815752017
0.511000000000000343,-7.099178276558172129
0.512000000000000344,-7.045444875299605947
0.513000000000000345,-6.991974584066831255
0.514000000000000346,-6.938768516221837324
0.515000000000000346,-6.885827758730886039
0.516000000000000347,-6.833153371474336879
0.517000000000000348,-6.780746386596438136
0.518000000000000349,-6.728607807894114501
0.519000000000000350,-6.676738610244171923
0.520000000000000351,-6.625139739067885003
0.521000000000000352,-6.573812109832269712
0.522000000000000353,-6.522756607587169242
0.523000000000000353,-6.471974086537270132
0.524000000000000354,-6.421465369648380772
0.525000000000000355,-6.371231248286905569
0.526000000000000356,-6.321272481891919703
0.527000000000000357,-6.271589797678878142
0.528000000000000358,-6.222183890374153314
0.529000000000000359,-6.173055421979655399
0.530000000000000360,-6.124205021566628382
0.531000000000000361,-6.075633285097898018
0.532000000000000361,-6.027340775277694185
0.533000000000000362,-5.979328021428313100
0.534000000000000363,-5.931595519392810267
0.535000000000000364,-5.884143731462918581
0.536000000000000365,-5.836973086331456173
0.537000000000000366,-5.790083979068467279
0.538000000000000367,-5.743476771120244351
0.539000000000000368,-5.697151790330668319
0.540000000000000369,-5.651109330983915768
0.541000000000000369,-5.605349653867988557
0.542000000000000370,-5.559872986358243452
0.543000000000000371,-5.514679522520220090
0.544000000000000372,-5.469769423231158001
0.545000000000000373,-5.425142816319417527
0.546000000000000374,-5.380799796721168704
0.547000000000000375,-5.336740426653689084
0.548000000000000376,-5.292964735804650545
0.549000000000000377,-5.249472721536717401
0.550000000000000377,-5.206264349106776379
0.551000000000000378,-5.163339551899319702
0.552000000000000379,-5.120698231673268097
0.553000000000000380,-5.078340258821656406
0.554000000000000381,-5.036265472643628449
0.555000000000000382,-4.994473681628203821
0.556000000000000383,-4.952964663749121144
0.557000000000000384,-4.911738166770419411
0.558000000000000385,-4.870793908562029095
0.559000000000000385,-4.830131577424992884
0.560000000000000386,-4.789750832425711202
0.561000000000000387,-4.749651303738789743
0.562000000000000388,-4.709832592997958756
0.563000000000000389,-4.670294273654578276
0.564000000000000390,-4.631035891343325162
0.565000000000000391,-4.592056964254544127
0.566000000000000392,-4.553356983512879985
0.567000000000000393,-4.514935413561726563
0.568000000000000393,-4.476791692553084623
0.569000000000000394,-4.438925232742410465
0.570000000000000395,-4.401335420888130123
0.571000000000000396,-4.364021618655297807
0.572000000000000397,-4.326983163023187196
0.573000000000000398,-4.290219366696311099
0.574000000000000399,-4.253729518518634123
0.575000000000000400,-4.217512883890533359
0.576000000000000401,-4.181568705188248636
0.577000000000000401,-4.145896202185495483
0.578000000000000402,-4.110494572476873998
0.579000000000000403,-4.075362991902816034
0.580000000000000404,-4.040500614975803373
0.581000000000000405,-4.005906575307507822
0.582000000000000406,-3.971579986036625431
0.583000000000000407,-3.937519940257122819
0.584000000000000408,-3.903725511446663798
0.585000000000000409,-3.870195753894932977
0.586000000000000409,-3.836929703131640057
0.587000000000000410,-3.803926376353989447
0.588000000000000411,-3.771184772853354961
0.589000000000000412,-3.738703874440996167
0.590000000000000413,-3.706482645872552162
0.591000000000000414,-3.674520035271173324
0.592000000000000415,-3.642814974549074325
0.593000000000000416,-3.611366379827318784
0.594000000000000417,-3.580173151853658364
0.595000000000000417,-3.549234176418338826
0.596000000000000418,-3.518548324767525770
0.597000000000000419,-3.488114454014456189
0.598000000000000420,-3.457931407547909064
0.599000000000000421,-3.427998015438056711
0.600000000000000422,-3.398313094839434889
0.601000000000000423,-3.368875450390977910
0.602000000000000424,-3.339683874612958014
0.603000000000000425,-3.310737148300729960
0.604000000000000425,-3.282034040915163153
0.605000000000000426,-3.253573310969664956
0.606000000000000427,-3.225353706413721877
0.607000000000000428,-3.197373965012760610
