# redgrapheneoxide_PROPAN1AMINE-AC
# h[nm],U(h)[kJ/mol]
0.149999999999999994,107.042575925791624059
0.150999999999999995,104.294656380542534180
0.151999999999999996,102.149544882354803121
0.152999999999999997,100.133568059580099430
0.153999999999999998,98.083718201017774163
0.154999999999999999,95.978468077886532228
0.156000000000000000,93.848155889802555407
0.157000000000000001,91.731597125006416604
0.158000000000000002,89.658336126110924624
0.159000000000000002,87.644164754767373893
0.160000000000000003,85.692736373421865892
0.161000000000000004,83.799326631184669623
0.162000000000000005,81.954735707993975780
0.163000000000000006,80.148454920675433755
0.164000000000000007,78.370840857845337268
0.165000000000000008,76.614352383533486091
0.166000000000000009,74.874038050641090081
0.167000000000000010,73.147494168239262535
0.168000000000000010,71.434496202964027134
0.169000000000000011,69.736467416540207864
0.170000000000000012,68.055904911092369503
0.171000000000000013,66.395842924564192344
0.172000000000000014,64.759399913469309240
0.173000000000000015,63.149430607566316098
0.174000000000000016,61.568286327958162474
0.175000000000000017,60.017675286042241112
0.176000000000000018,58.498607987653862494
0.177000000000000018,57.011409964071823708
0.178000000000000019,55.555783714563482079
0.179000000000000020,54.130903057981569759
0.180000000000000021,52.735525347359370585
0.181000000000000022,51.368109683835143642
0.182000000000000023,50.026932015400291220
0.183000000000000024,48.710190589212380985
0.184000000000000025,47.416097507451681281
0.185000000000000026,46.142954050513488085
0.186000000000000026,44.889208961623339178
0.187000000000000027,43.653500050085895623
0.188000000000000028,42.434680302264865759
0.189000000000000029,41.231830236124906719
0.190000000000000030,40.044258546331704451
0.191000000000000031,38.871493211128914425
0.192000000000000032,37.713265214377194923
0.193000000000000033,36.569486915836158403
0.194000000000000034,35.440226913629551575
0.195000000000000034,34.325683012444223152
0.196000000000000035,33.226154661263919365
0.197000000000000036,32.142015972051623862
0.198000000000000037,31.073690187995310907
0.199000000000000038,30.021626245163304247
0.200000000000000039,28.986277870004897750
0.201000000000000040,27.968085479939770011
0.202000000000000041,26.967461006261821410
0.203000000000000042,25.984775637279927452
0.204000000000000042,25.020350383565887142
0.205000000000000043,24.074449294255238385
0.206000000000000044,23.147275101025083899
0.207000000000000045,22.238967031954111064
0.208000000000000046,21.349600518222565881
0.209000000000000047,20.479188509895166703
0.210000000000000048,19.627684120379790045
0.211000000000000049,18.794984330321749866
0.212000000000000050,17.980934498675299693
0.213000000000000050,17.185333449756942770
0.214000000000000051,16.407938928741657492
0.215000000000000052,15.648473243083575568
0.216000000000000053,14.906628932719954150
0.217000000000000054,14.182074336855444940
0.218000000000000055,13.474458949012094067
0.219000000000000056,12.783418474421321065
0.220000000000000057,12.108579524413190853
0.221000000000000058,11.449563901038978031
0.222000000000000058,10.805992441637837231
0.223000000000000059,10.177488407416948490
0.224000000000000060,9.563680412389626184
0.225000000000000061,8.964204899298854556
0.226000000000000062,8.378708177563423121
0.227000000000000063,7.806848044965069455
0.228000000000000064,7.248295019906637826
0.229000000000000065,6.702733214777131465
0.230000000000000066,6.169860883430593468
0.231000000000000066,5.649390677181639120
0.232000000000000067,5.141049644203274482
0.233000000000000068,4.644579006927310516
0.234000000000000069,4.159733751134857549
0.235000000000000070,3.686282059008266998
0.236000000000000071,3.224004616611680696
0.237000000000000072,2.772693824173910748
0.238000000000000073,2.332152935256000426
0.239000000000000073,1.902195148472350938
0.240000000000000074,1.482642672962289909
0.241000000000000075,1.073325786337738119
0.242000000000000076,0.674081901403783101
0.243000000000000077,0.284754655600798601
0.244000000000000078,-0.094806965121750159
0.245000000000000079,-0.464749458397569648
0.246000000000000080,-0.825215585859958578
0.247000000000000081,-1.176345096045159799
0.248000000000000081,-1.518275385585552195
0.249000000000000082,-1.851142095971715973
0.250000000000000111,-2.175079644474809282
0.251000000000000112,-2.490221688972304115
0.252000000000000113,-2.796701527419379829
0.253000000000000114,-3.094652433558011673
0.254000000000000115,-3.384207931170824857
0.255000000000000115,-3.665502009770274405
0.256000000000000116,-3.938669285080703020
0.257000000000000117,-4.203845108028703592
0.258000000000000118,-4.461165626216781810
0.259000000000000119,-4.710767802027978846
0.260000000000000120,-4.952789391603826807
0.261000000000000121,-5.187368888963775682
0.262000000000000122,-5.414645439502230317
0.263000000000000123,-5.634758727015542590
0.264000000000000123,-5.847848838286206608
0.265000000000000124,-6.054056109090465654
0.266000000000000125,-6.253520955306925089
0.267000000000000126,-6.446383692592573489
0.268000000000000127,-6.632784347865586128
0.269000000000000128,-6.812862465595041606
0.270000000000000129,-6.986756911651949231
0.271000000000000130,-7.154605677227094063
0.272000000000000131,-7.316545685072060046
0.273000000000000131,-7.472712600074340905
0.274000000000000132,-7.623240645937045201
0.275000000000000133,-7.768262429501473498
0.276000000000000134,-7.907908774027388787
0.277000000000000135,-8.042308562533120764
0.278000000000000136,-8.171588592096963310
0.279000000000000137,-8.295873439832503138
0.280000000000000138,-8.415285341074934422
0.281000000000000139,-8.529944080153097019
0.282000000000000139,-8.639966893972715667
0.283000000000000140,-8.745468388500622581
0.284000000000000141,-8.846560468116933862
0.285000000000000142,-8.943352277692264707
0.286000000000000143,-9.035950157149612139
0.287000000000000144,-9.124457608184565416
0.288000000000000145,-9.208975272743858298
0.289000000000000146,-9.289600922798163296
0.290000000000000147,-9.366429460892309322
0.291000000000000147,-9.439552930911904838
0.292000000000000148,-9.509060538470958335
0.293000000000000149,-9.575038680297916827
0.294000000000000150,-9.637570981978834439
0.295000000000000151,-9.696738343403964677
0.296000000000000152,-9.752618991258232839
0.297000000000000153,-9.805288537895673784
0.298000000000000154,-9.854820045942766171
0.299000000000000155,-9.901284097984760280
0.300000000000000155,-9.944748870702433408
0.301000000000000156,-9.985280212843020919
0.302000000000000157,-10.022941726429138498
0.303000000000000158,-10.057794850630962458
0.304000000000000159,-10.089898947751679614
0.305000000000000160,-10.119311390801485118
0.306000000000000161,-10.146087652162938397
0.307000000000000162,-10.170281392878454341
0.308000000000000163,-10.191944552119446499
0.309000000000000163,-10.211127436426014725
0.310000000000000164,-10.227878808335395533
0.311000000000000165,-10.242245974046671364
0.312000000000000166,-10.254274869798463143
0.313000000000000167,-10.264010146664906742
0.314000000000000168,-10.271495253503307055
0.315000000000000169,-10.276772517814261931
0.316000000000000170,-10.279883224301723743
0.317000000000000171,-10.280867690945962423
0.318000000000000171,-10.279765342427110042
0.319000000000000172,-10.276614780760738199
0.320000000000000173,-10.271453853029234082
0.321000000000000174,-10.264319716114149728
0.322000000000000175,-10.255248898355104004
0.323000000000000176,-10.244277358079560969
0.324000000000000177,-10.231440538965927090
0.325000000000000178,-10.216773422218782486
0.326000000000000179,-10.200310575550961545
0.327000000000000179,-10.182086198981069813
0.328000000000000180,-10.162134167468504842
0.329000000000000181,-10.140488070420252242
0.330000000000000182,-10.117181248114260228
0.331000000000000183,-10.092246825094759899
0.332000000000000184,-10.065717740603428609
0.333000000000000185,-10.037626776118489857
0.334000000000000186,-10.008006580080811787
0.335000000000000187,-9.976889689892379565
0.336000000000000187,-9.944308551277753594
0.337000000000000188,-9.910295535103619713
0.338000000000000189,-9.874882951755555638
0.339000000000000190,-9.838103063174070684
0.340000000000000191,-9.799988092654256633
0.341000000000000192,-9.760570232515636491
0.342000000000000193,-9.719881649749481767
0.343000000000000194,-9.677954489752059075
0.344000000000000195,-9.634820878252011056
0.345000000000000195,-9.590512921540263136
0.346000000000000196,-9.545062705109781831
0.347000000000000197,-9.498502290811675408
0.348000000000000198,-9.450863712632727953
0.349000000000000199,-9.402178971197537649
0.350000000000000200,-9.352480027096797599
0.351000000000000201,-9.301798793140587662
0.352000000000000202,-9.250167125633437237
0.353000000000000203,-9.197616814765083859
0.354000000000000203,-9.144179574208109784
0.355000000000000204,-9.089887030010583402
0.356000000000000205,-9.034770708868865796
0.357000000000000206,-8.978862025862639484
0.358000000000000207,-8.922192271730589042
0.359000000000000208,-8.864792599762406411
0.360000000000000209,-8.806694012379034930
0.361000000000000210,-8.747927347469833137
0.362000000000000210,-8.688523264551994529
0.363000000000000211,-8.628512230814154194
0.364000000000000212,-8.567924507102743448
0.365000000000000213,-8.506790133906358520
0.366000000000000214,-8.445138917390101696
0.367000000000000215,-8.383000415528574223
0.368000000000000216,-8.320403924383153793
0.369000000000000217,-8.257378464565860554
0.370000000000000218,-8.193952767929276959
0.371000000000000218,-8.130155264518792890
0.372000000000000219,-8.066014069820793608
0.373000000000000220,-8.001556972337343865
0.374000000000000221,-7.936811421515477249
0.375000000000000222,-7.871804516056194245
0.376000000000000223,-7.806562992626171926
0.377000000000000224,-7.741113214992401126
0.378000000000000225,-7.675481163597737577
0.379000000000000226,-7.609692425593118870
0.380000000000000226,-7.543772185340093195
0.381000000000000227,-7.477745215395017908
0.382000000000000228,-7.411635867984665893
0.383000000000000229,-7.345468066980846977
0.384000000000000230,-7.279265300379907266
0.385000000000000231,-7.213050613291528634
0.386000000000000232,-7.146846601439326818
0.387000000000000233,-7.080675405174531534
0.388000000000000234,-7.014558704002432421
0.389000000000000234,-6.948517711620179504
0.390000000000000235,-6.882573171462996520
0.391000000000000236,-6.816745352755080312
0.392000000000000237,-6.751054047059996677
0.393000000000000238,-6.685518565324805706
0.394000000000000239,-6.620157735410849398
0.395000000000000240,-6.554989900103583622
0.396000000000000241,-6.490032915592953700
0.397000000000000242,-6.425304150415016124
0.398000000000000242,-6.360820484845140399
0.399000000000000243,-6.296598310732221648
0.400000000000000244,-6.232653531763036270
0.401000000000000245,-6.169001564145442096
0.402000000000000246,-6.105657337698525922
0.403000000000000247,-6.042635297337588085
0.404000000000000248,-5.979949404941612201
0.405000000000000249,-5.917613141590466697
0.406000000000000250,-5.855639510158932026
0.407000000000000250,-5.794041038254578169
0.408000000000000251,-5.732829781486194598
0.409000000000000252,-5.672017327049618807
0.410000000000000253,-5.611614797617527906
0.411000000000000254,-5.551632855519944343
0.412000000000000255,-5.492081707202022045
0.413000000000000256,-5.432971107945962608
0.414000000000000257,-5.374310366843625175
0.415000000000000258,-5.316108352006942539
0.416000000000000258,-5.258373496002911374
0.417000000000000259,-5.201113801500423683
0.418000000000000260,-5.144336847116155020
0.419000000000000261,-5.088049793446954183
0.420000000000000262,-5.032259389276432238
0.421000000000000263,-4.976971977943582814
0.422000000000000264,-4.922193503861498343
0.423000000000000265,-4.867929519174476916
0.424000000000000266,-4.814185190542194626
0.425000000000000266,-4.760965306039584455
0.426000000000000267,-4.708274282161634794
0.427000000000000268,-4.656116170922407704
0.428000000000000269,-4.604494667037863920
0.429000000000000270,-4.553413115182527449
0.430000000000000271,-4.502874517310020863
0.431000000000000272,-4.452881540028117868
0.432000000000000273,-4.403436522018988164
0.433000000000000274,-4.354541481495792787
0.434000000000000274,-4.306198123686937329
0.435000000000000275,-4.258407848339716750
0.436000000000000276,-4.211171757235339541
0.437000000000000277,-4.164490661707506369
0.438000000000000278,-4.118365090157218411
0.439000000000000279,-4.072795295556659312
0.440000000000000280,-4.027781262935235418
0.441000000000000281,-3.983322716841283473
0.442000000000000282,-3.939419128773208545
0.443000000000000282,-3.896069724573925974
0.444000000000000283,-3.853273491783084204
0.445000000000000284,-3.811029186941491620
0.446000000000000285,-3.769335342842596415
0.447000000000000286,-3.728190275726266378
0.448000000000000287,-3.687592092409984534
0.449000000000000288,-3.647538697353325254
0.450000000000000289,-3.608027799651398304
0.451000000000000290,-3.569056919953447871
0.452000000000000290,-3.530623397302966815
0.453000000000000291,-3.492724395895858258
0.454000000000000292,-3.455356911753500349
0.455000000000000293,-3.418517779307695292
0.456000000000000294,-3.382203677894806138
0.457000000000000295,-3.346411138156482501
0.458000000000000296,-3.311136548344651764
0.459000000000000297,-3.276376160528646775
0.460000000000000298,-3.242126096702460991
0.461000000000000298,-3.208382354790424440
0.462000000000000299,-3.175140814549676893
0.463000000000000300,-3.142397243367977211
0.464000000000000301,-3.110147301955671129
0.465000000000000302,-3.078386549930690386
0.466000000000000303,-3.047110451295603095
0.467000000000000304,-3.016314379805984380
0.468000000000000305,-2.985993624229442922
0.469000000000000306,-2.956143393494759852
0.470000000000000306,-2.926758821730835347
0.471000000000000307,-2.897834973195081432
0.472000000000000308,-2.869366847091262329
0.473000000000000309,-2.841349382276647351
0.474000000000000310,-2.813777461858647300
0.475000000000000311,-2.786645917681089379
0.476000000000000312,-2.759949534700505858
0.477000000000000313,-2.733683055252713157
0.478000000000000314,-2.707841183210270231
0.479000000000000314,-2.682418588031372675
0.480000000000000315,-2.657409908700772316
0.481000000000000316,-2.632809757563560282
0.482000000000000317,-2.608612724052511211
0.483000000000000318,-2.584813378309948728
0.484000000000000319,-2.561406274704995045
0.485000000000000320,-2.538385955247288273
0.486000000000000321,-2.515746952898147093
0.487000000000000322,-2.493483794780335217
0.488000000000000322,-2.471591005287542053
0.489000000000000323,-2.450063109094853697
0.490000000000000324,-2.428894634071398606
0.491000000000000325,-2.408080114096478930
0.492000000000000326,-2.387614091780489556
0.493000000000000327,-2.367491121092027306
0.494000000000000328,-2.347705769892522554
0.495000000000000329,-2.328252622379844539
0.496000000000000330,-2.309126281442288597
0.497000000000000330,-2.290321370924449873
0.498000000000000331,-2.271832537806386831
0.499000000000000332,-2.253654454297669751
0.500000000000000333,-2.235781819847752594
0.501000000000000334,-2.218209363074201690
0.502000000000000335,-2.200931843610352878
0.503000000000000336,-2.183944053873910995
0.504000000000000337,-2.167240820758040254
0.505000000000000338,-2.150817007246518475
0.506000000000000338,-2.134667513954498386
0.507000000000000339,-2.118787280596433842
0.508000000000000340,-2.103171287382736843
0.509000000000000341,-2.087814556346731187
0.510000000000000342,-2.072712152603426894
0.511000000000000343,-2.057859185541694558
0.512000000000000344,-2.043250809951353109
0.513000000000000345,-2.028882227086728385
0.514000000000000346,-2.014748685668223516
0.515000000000000346,-2.000845482823355947
0.516000000000000347,-1.987167964968827860
0.517000000000000348,-1.973711528635131884
0.518000000000000349,-1.960471621235094775
0.519000000000000350,-1.947443741777918902
0.520000000000000351,-1.934623441530133103
0.521000000000000352,-1.922006324624892404
0.522000000000000353,-1.909588048621061018
0.523000000000000353,-1.897364325013473962
0.524000000000000354,-1.885330919695799468
0.525000000000000355,-1.873483653377333580
0.526000000000000356,-1.861818401955109392
0.527000000000000357,-1.850331096842673162
0.528000000000000358,-1.839017725256787639
0.529000000000000359,-1.827874330463451047
0.530000000000000360,-1.816897011984415444
0.531000000000000361,-1.806081925765555596
0.532000000000000361,-1.795425284308245661
0.533000000000000362,-1.784923356765043323
0.534000000000000363,-1.774572469000817110
0.535000000000000364,-1.764369003620528176
0.536000000000000365,-1.754309399964820271
0.537000000000000366,-1.744390154074559218
0.538000000000000367,-1.734607818625407916
0.539000000000000368,-1.724959002833597266
0.540000000000000369,-1.715440372333881580
0.541000000000000369,-1.706048649030815323
0.542000000000000370,-1.696780610924318422
0.543000000000000371,-1.687633091910572203
0.544000000000000372,-1.678602981559238261
0.545000000000000373,-1.669687224867956177
0.546000000000000374,-1.660882821995063097
0.547000000000000375,-1.652186827971473759
0.548000000000000376,-1.643596352392641791
0.549000000000000377,-1.635108559091450475
0.550000000000000377,-1.626720665792913634
0.551000000000000378,-1.618429943751556355
0.552000000000000379,-1.610233717372257400
0.553000000000000380,-1.602129363815397056
0.554000000000000381,-1.594114312587052051
0.555000000000000382,-1.586186045115068444
0.556000000000000383,-1.578342094311665722
0.557000000000000384,-1.570580044123400798
0.558000000000000385,-1.562897529069108726
0.559000000000000385,-1.555292233766583099
0.560000000000000386,-1.547761892448602961
0.561000000000000387,-1.540304288469013017
0.562000000000000388,-1.532917253799451318
0.563000000000000389,-1.525598668517366807
0.564000000000000390,-1.518346460285907140
0.565000000000000391,-1.511158603826273428
0.566000000000000392,-1.504033120383094335
0.567000000000000393,-1.496968077183383539
0.568000000000000393,-1.489961586889589018
0.569000000000000394,-1.483011807047271091
0.570000000000000395,-1.476116939527908567
0.571000000000000396,-1.469275229967282437
0.572000000000000397,-1.462484967199974450
0.573000000000000398,-1.455744482690350949
0.574000000000000399,-1.449052149960548430
0.575000000000000400,-1.442406384015822551
0.576000000000000401,-1.435805640767710889
0.577000000000000401,-1.429248416455399573
0.578000000000000402,-1.422733247065665285
0.579000000000000403,-1.416258707751746559
0.580000000000000404,-1.409823412251564934
0.581000000000000405,-1.403426012305557746
0.582000000000000406,-1.397065197074509602
0.583000000000000407,-1.390739692557676932
0.584000000000000408,-1.384448261011526737
0.585000000000000409,-1.378189700369362169
0.586000000000000409,-1.371962843662149822
0.587000000000000410,-1.365766558440793421
0.588000000000000411,-1.359599746200123471
0.589000000000000412,-1.353461341804871543
0.590000000000000413,-1.347350312917831472
0.591000000000000414,-1.341265659430474377
0.592000000000000415,-1.335206412896224659
0.593000000000000416,-1.329171635966591491
0.594000000000000417,-1.323160421830378741
0.595000000000000417,-1.317171893656174264
0.596000000000000418,-1.311205204038238037
0.597000000000000419,-1.305259534446070013
0.598000000000000420,-1.299334094677705664
0.599000000000000421,-1.293428122316990336
0.600000000000000422,-1.287540882194931458
0.601000000000000423,-1.281671665855276476
0.602000000000000424,-1.275819791024467520
0.603000000000000425,-1.269984601086088016
0.604000000000000425,-1.264165464559906749
0.605000000000000426,-1.258361774585653459
0.606000000000000427,-1.252572948411646570
0.607000000000000428,-1.246798426888279909
0.608000000000000429,-1.241037673966628452
0.609000000000000430,-1.235290176202050727
0.610000000000000431,-1.229555442263073228
0.611000000000000432,-1.223833002445474660
0.612000000000000433,-1.218122408191705475
