# Gypsum-011_HMB
# h[nm],U(h)[kJ/mol]
0.149999999999999994,172.250485428614382499
0.150999999999999995,170.141895777345865781
0.151999999999999996,168.152955861177758834
0.152999999999999997,166.177459764399088726
0.153999999999999998,164.179000117266042480
0.154999999999999999,162.155666328118570618
0.156000000000000000,160.119579584558749730
0.157000000000000001,158.085845023605742199
0.158000000000000002,156.067275574125972071
0.159000000000000002,154.072484138230180406
0.160000000000000003,152.105799367329410643
0.161000000000000004,150.168044778021254615
0.162000000000000005,148.257611559965255310
0.163000000000000006,146.371510489916488496
0.164000000000000007,144.506249959670412863
0.165000000000000008,142.658485320249042161
0.166000000000000009,140.825440804807755057
0.167000000000000010,139.005134074714817416
0.168000000000000010,137.196445167730615822
0.169000000000000011,135.399073237001715597
0.170000000000000012,133.613420537003577238
0.171000000000000013,131.840436584333730252
0.172000000000000014,130.081448117981125279
0.173000000000000015,128.337993464627345475
0.174000000000000016,126.611673736045119654
0.175000000000000017,124.904028182057643903
0.176000000000000018,123.216437030672494757
0.177000000000000018,121.550052190675700103
0.178000000000000019,119.905754137508779422
0.179000000000000020,118.284131995223035005
0.180000000000000021,116.685483110300765475
0.181000000000000022,115.109828144086989710
0.182000000000000023,113.556937764995339535
0.183000000000000024,112.026367295713384920
0.184000000000000025,110.517496080948831150
0.185000000000000026,109.029568823186835402
0.186000000000000026,107.561736639232691459
0.187000000000000027,106.113096084549923148
0.188000000000000028,104.682724852389355874
0.189000000000000029,103.269713266148073672
0.190000000000000030,101.873191038837063616
0.191000000000000031,100.492349070573297354
0.192000000000000032,99.126456294852573592
0.193000000000000033,97.774871770641681223
0.194000000000000034,96.437052355208123799
0.195000000000000034,95.112556388040729871
0.196000000000000035,93.801043875454524823
0.197000000000000036,92.502273694685754890
0.198000000000000037,91.216098341289182372
0.199000000000000038,89.942456729774661994
0.200000000000000039,88.681365529407543136
0.201000000000000040,87.432909479044283785
0.202000000000000041,86.197231080279081539
0.203000000000000042,84.974520019917150648
0.204000000000000042,83.765002623203869803
0.205000000000000043,82.568931590162378598
0.206000000000000044,81.386576220219922106
0.207000000000000045,80.218213286054350419
0.208000000000000046,79.064118676962380050
0.209000000000000047,77.924559895471887216
0.210000000000000048,76.799789458601438241
0.211000000000000049,75.690039227159630286
0.212000000000000050,74.595515662675339286
0.213000000000000050,73.516395991775169705
0.214000000000000051,72.452825241808710643
0.215000000000000052,71.404914098960475144
0.216000000000000053,70.372737530645721904
0.217000000000000054,69.356334107311752746
0.218000000000000055,68.355705954516409406
0.219000000000000056,67.370819263989119463
0.220000000000000057,66.401605291973311296
0.221000000000000058,65.447961774209517216
0.222000000000000058,64.509754689157972507
0.223000000000000059,63.586820304239701329
0.224000000000000060,62.678967443763077938
0.225000000000000061,61.785979921605999721
0.226000000000000062,60.907619086470958791
0.227000000000000063,60.043626432470638576
0.228000000000000064,59.193726232816629818
0.229000000000000065,58.357628159364978160
0.230000000000000066,57.535029855639571394
0.231000000000000066,56.725619435638463983
0.232000000000000067,55.929077885179580676
0.233000000000000068,55.145081346720772331
0.234000000000000069,54.373303272470138836
0.235000000000000070,53.613416434167973534
0.236000000000000071,52.865094781164160054
0.237000000000000072,52.128015141332319615
0.238000000000000073,51.401858761959957178
0.239000000000000073,50.686312690041269491
0.240000000000000074,49.981070993386722989
0.241000000000000075,49.285835825670076815
0.242000000000000076,48.600318339973782145
0.243000000000000077,47.924239456586278152
0.244000000000000078,47.257330491772059133
0.245000000000000079,46.599333654992356912
0.246000000000000080,45.950002422626702980
0.247000000000000081,45.309101796646118032
0.248000000000000081,44.676408456942191094
0.249000000000000082,44.051710816136399274
0.250000000000000111,43.434808985699795869
0.251000000000000112,42.825514662119964271
0.252000000000000113,42.223650941674570447
0.253000000000000114,41.629052072123712946
0.254000000000000115,41.041563149327394910
0.255000000000000115,40.461039766442965515
0.256000000000000116,39.887347622968974292
0.257000000000000117,39.320362100487884049
0.258000000000000118,38.759967811526138348
0.259000000000000119,38.206058127505976074
0.260000000000000120,37.658534691312738119
0.261000000000000121,37.117306919553051614
0.262000000000000122,36.582291499133738455
0.263000000000000123,36.053411882357096374
0.264000000000000123,35.530597784304035258
0.265000000000000124,35.013784685869069335
0.266000000000000125,34.502913345419869984
0.267000000000000126,33.997929321681901627
0.268000000000000127,33.498782510095828968
0.269000000000000128,33.005426694564725665
0.270000000000000129,32.517819116197188123
0.271000000000000130,32.035920060363856976
0.272000000000000131,31.559692463118278027
0.273000000000000131,31.089101537786341112
0.274000000000000132,30.624114422304280936
0.275000000000000133,30.164699847679962375
0.276000000000000134,29.710827827767161580
0.277000000000000135,29.262469370376646083
0.278000000000000136,28.819596209598984160
0.279000000000000137,28.382180559082826221
0.280000000000000138,27.950194885897769126
0.281000000000000139,27.523611704510017262
0.282000000000000139,27.102403390313895670
0.283000000000000140,26.686542012089081055
0.284000000000000141,26.275999182693169587
0.285000000000000142,25.870745927249856777
0.286000000000000143,25.470752568053914189
0.287000000000000144,25.075988625385047470
0.288000000000000145,24.686422733401133911
0.289000000000000146,24.302022570268938750
0.290000000000000147,23.922754801683382198
0.291000000000000147,23.548585036926979797
0.292000000000000148,23.179477796626134278
0.293000000000000149,22.815396491371643606
0.294000000000000150,22.456303410385039854
0.295000000000000151,22.102159719430751750
0.296000000000000152,21.752925467195343145
0.297000000000000153,21.408559599379291427
0.298000000000000154,21.069019979772416917
0.299000000000000155,20.734263417612734060
0.300000000000000155,20.404245700557009258
0.301000000000000156,20.078921632622556359
0.302000000000000157,19.758245076490073444
0.303000000000000158,19.442168999589547695
0.304000000000000159,19.130645523422657561
0.305000000000000160,18.823625975607171767
0.306000000000000161,18.521060944160105066
0.307000000000000162,18.222900333567913833
0.308000000000000163,17.929093422222344145
0.309000000000000163,17.639588920831023700
0.310000000000000164,17.354335031440548676
0.311000000000000165,17.073279506738824551
0.312000000000000166,16.796369709330353004
0.313000000000000167,16.523552670705015544
0.314000000000000168,16.254775149646054189
0.315000000000000169,15.989983689847552029
0.316000000000000170,15.729124676534599558
0.317000000000000171,15.472144391901759164
0.318000000000000171,15.218989069206426024
0.319000000000000172,14.969604945373117033
0.320000000000000173,14.723938311984019478
0.321000000000000174,14.481935564548376050
0.322000000000000175,14.243543249959856212
0.323000000000000176,14.008708112066676321
0.324000000000000177,13.777377135293420451
0.325000000000000178,13.549497586267136739
0.326000000000000179,13.325017053412452128
0.327000000000000179,13.103883484492154565
0.328000000000000180,12.886045222079999917
0.329000000000000181,12.671451036962409376
0.330000000000000182,12.460050159474366893
0.331000000000000183,12.251792308782832208
0.332000000000000184,12.046627720138477713
0.333000000000000185,11.844507170122877682
0.334000000000000186,11.645381999924145688
0.335000000000000187,11.449204136679412613
0.336000000000000187,11.255926112926717408
0.337000000000000188,11.065501084213545724
0.338000000000000189,10.877882844912004856
0.339000000000000190,10.693025842294062500
0.340000000000000191,10.510885188922715727
0.341000000000000192,10.331416673416887519
0.342000000000000193,10.154576769649557022
0.343000000000000194,9.980322644439874935
0.344000000000000195,9.808612163801273098
0.345000000000000195,9.639403897807458321
0.346000000000000196,9.472657124139370666
0.347000000000000197,9.308331830375632165
0.348000000000000198,9.146388715088971111
0.349000000000000199,8.986789187810938273
0.350000000000000200,8.829495367926197602
0.351000000000000201,8.674470082557242279
0.352000000000000202,8.521676863499305199
0.353000000000000203,8.371079943264108536
0.354000000000000203,8.222644250289858903
0.355000000000000204,8.076335403373803956
0.356000000000000205,7.932119705381964536
0.357000000000000206,7.789964136289137642
0.358000000000000207,7.649836345601165988
0.359000000000000208,7.511704644209233450
0.360000000000000209,7.375537995724604556
0.361000000000000210,7.241306007340658546
0.362000000000000210,7.108978920266954660
0.363000000000000211,6.978527599778675317
0.364000000000000212,6.849923524922855833
0.365000000000000213,6.723138777921133347
0.366000000000000214,6.598146033306941050
0.367000000000000215,6.474918546833473343
0.368000000000000216,6.353430144186729578
0.369000000000000217,6.233655209536686392
0.370000000000000218,6.115568673957522350
0.371000000000000218,5.999146003746546718
0.372000000000000219,5.884363188669569311
0.373000000000000220,5.771196730159049437
0.374000000000000221,5.659623629489803243
0.375000000000000222,5.549621375955558378
0.376000000000000223,5.441167935067934280
0.377000000000000224,5.334241736798484013
0.378000000000000225,5.228821663882590620
0.379000000000000226,5.124887040203018884
0.380000000000000226,5.022417619269329059
0.381000000000000227,4.921393572808502981
0.382000000000000228,4.821795479480533331
0.383000000000000229,4.723604313731884830
0.384000000000000230,4.626801434798530899
0.385000000000000231,4.531368575869096915
0.386000000000000232,4.437287833417920879
0.387000000000000233,4.344541656716501166
0.388000000000000234,4.253112837531267232
0.389000000000000234,4.162984500014430544
0.390000000000000235,4.074140090793977542
0.391000000000000236,3.986563369268119494
0.392000000000000237,3.900238398108601956
0.393000000000000238,3.815149533976740948
0.394000000000000239,3.731281418455285603
0.395000000000000240,3.648618969198589745
0.396000000000000241,3.567147371302963332
0.397000000000000242,3.486852068898605328
0.398000000000000242,3.407718756963819651
0.399000000000000243,3.329733373361971616
0.400000000000000244,3.252882091100880224
0.401000000000000245,3.177151310814164908
0.402000000000000246,3.102527653463650559
0.403000000000000247,3.028997953261272524
0.404000000000000248,2.956549250809027196
0.405000000000000249,2.885168786454808121
0.406000000000000250,2.814843993861968929
0.407000000000000250,2.745562493789936109
0.408000000000000251,2.677312088083156905
0.409000000000000252,2.610080753865352321
0.410000000000000253,2.543856637935810738
0.411000000000000254,2.478628051364391016
0.412000000000000255,2.414383464281669056
0.413000000000000256,2.351111500860438852
0.414000000000000257,2.288800934484917171
0.415000000000000258,2.227440683103497854
0.416000000000000258,2.167019804761269874
0.417000000000000259,2.107527493307967514
0.418000000000000260,2.048953074277369613
0.419000000000000261,1.991286000933758960
0.420000000000000262,1.934515850481339116
0.421000000000000263,1.878632320432138680
0.422000000000000264,1.823625225128272076
0.423000000000000265,1.769484492414094223
0.424000000000000266,1.716200160453946966
0.425000000000000266,1.663762374691291512
0.426000000000000267,1.612161384944758025
0.427000000000000268,1.561387542636979209
0.428000000000000269,1.511431298151903135
0.429000000000000270,1.462283198316357336
0.430000000000000271,1.413933884001778551
0.431000000000000272,1.366374087841871532
0.432000000000000273,1.319594632062270012
0.433000000000000274,1.273586426418077844
0.434000000000000274,1.228340466235390060
0.435000000000000275,1.183847830552939628
0.436000000000000276,1.140099680359992540
0.437000000000000277,1.097087256926792875
0.438000000000000278,1.054801880223881216
0.439000000000000279,1.013234947426660426
0.440000000000000280,0.972377931501714365
0.441000000000000281,0.932222379871466500
0.442000000000000282,0.892759913153708395
0.443000000000000282,0.853982223972879817
0.444000000000000283,0.815881075839728354
0.445000000000000284,0.778448302096374056
0.446000000000000285,0.741675804923673798
0.447000000000000286,0.705555554407898633
0.448000000000000287,0.670079587663972687
0.449000000000000288,0.635240008012342705
0.450000000000000289,0.601028984206895212
0.451000000000000290,0.567438749711251300
0.452000000000000290,0.534461602020837367
0.453000000000000291,0.502089902028410862
0.454000000000000292,0.470316073430526782
0.455000000000000293,0.439132602172718656
0.456000000000000294,0.408532035931170934
0.457000000000000295,0.378506983628666305
0.458000000000000296,0.349050114982861426
0.459000000000000297,0.320154160084776374
0.460000000000000298,0.291811909005654013
0.461000000000000298,0.264016211430302572
0.462000000000000299,0.236759976315162213
0.463000000000000300,0.210036171569403074
0.464000000000000301,0.183837823757357133
0.465000000000000302,0.158158017820779845
0.466000000000000303,0.132989896819413173
0.467000000000000304,0.108326661688341375
0.468000000000000305,0.084161571010889710
0.469000000000000306,0.060487940805631912
0.470000000000000306,0.037299144326250769
0.471000000000000307,0.014588611873146229
0.472000000000000308,-0.007650169384454131
0.473000000000000309,-0.029423655576979457
0.474000000000000310,-0.050738246294532066
0.475000000000000311,-0.071600284739556944
0.476000000000000312,-0.092016057872985266
0.477000000000000313,-0.111991796554862827
0.478000000000000314,-0.131533675680165246
0.479000000000000314,-0.150647814310745587
0.480000000000000315,-0.169340275804039042
0.481000000000000316,-0.187617067939351845
0.482000000000000317,-0.205484143042291179
0.483000000000000318,-0.222947398108069461
0.484000000000000319,-0.240012674924218100
0.485000000000000320,-0.256685760193250012
0.486000000000000321,-0.272972385655872118
0.487000000000000322,-0.288878228215161070
0.488000000000000322,-0.304408910062129112
0.489000000000000323,-0.319569998803227451
0.490000000000000324,-0.334367007590050946
0.491000000000000325,-0.348805395251657213
0.492000000000000326,-0.362890566429822647
0.493000000000000327,-0.376627871717577611
0.494000000000000328,-0.390022607801228660
0.495000000000000329,-0.403080017606212870
0.496000000000000330,-0.415805290446894904
0.497000000000000330,-0.428203562180711650
0.498000000000000331,-0.440279915366573238
0.499000000000000332,-0.452039379427965404
0.500000000000000333,-0.463486930820758314
0.501000000000000334,-0.474627493205793727
0.502000000000000335,-0.485465937626541222
0.503000000000000336,-0.496007082691729273
0.504000000000000337,-0.506255694763170117
0.505000000000000338,-0.516216488148739550
0.506000000000000338,-0.525894125300624848
0.507000000000000339,-0.535293217018851686
0.508000000000000340,-0.544418322660067400
0.509000000000000341,-0.553273950351711341
0.510000000000000342,-0.561864557211389171
0.511000000000000343,-0.570194549571629850
0.512000000000000344,-0.578268283209827039
0.513000000000000345,-0.586090063583434295
0.514000000000000346,-0.593664146070387977
0.515000000000000346,-0.600994736214594538
0.516000000000000347,-0.608085989976517194
0.517000000000000348,-0.614942013988789116
0.518000000000000349,-0.621566865816713721
0.519000000000000350,-0.627964554223661042
0.520000000000000351,-0.634139039441159236
0.521000000000000352,-0.640094233443747163
0.522000000000000353,-0.645834000228302507
0.523000000000000353,-0.651362156097909040
0.524000000000000354,-0.656682469950055858
0.525000000000000355,-0.661798663569106993
0.526000000000000356,-0.666714411922876837
0.527000000000000357,-0.671433343463277876
0.528000000000000358,-0.675959040430827329
0.529000000000000359,-0.680295039162984505
0.530000000000000360,-0.684444830406074622
0.531000000000000361,-0.688411859630817635
0.532000000000000361,-0.692199527351218591
0.533000000000000362,-0.695811189446752354
0.534000000000000363,-0.699250157487662505
0.535000000000000364,-0.702519699063335112
0.536000000000000365,-0.705623038113478485
0.537000000000000366,-0.708563355262138317
0.538000000000000367,-0.711343788154230161
0.539000000000000368,-0.713967431794678808
0.540000000000000369,-0.716437338889797770
0.541000000000000369,-0.718756520191002557
0.542000000000000370,-0.720927944840503931
0.543000000000000371,-0.722954540719062733
0.544000000000000372,-0.724839194795514064
0.545000000000000373,-0.726584753478031420
0.546000000000000374,-0.728194022966955901
0.547000000000000375,-0.729669769609061936
0.548000000000000376,-0.731014720253179595
0.549000000000000377,-0.732231562606987962
0.550000000000000377,-0.733322945594923170
0.551000000000000378,-0.734291479716998374
0.552000000000000379,-0.735139737408520899
0.553000000000000380,-0.735870253400491170
0.554000000000000381,-0.736485525080595727
0.555000000000000382,-0.736988012854779329
0.556000000000000383,-0.737380140509071635
0.557000000000000384,-0.737664295571819006
0.558000000000000385,-0.737842829675967038
0.559000000000000385,-0.737918058921474995
0.560000000000000386,-0.737892264237665074
0.561000000000000387,-0.737767691745423448
0.562000000000000388,-0.737546553119134751
0.563000000000000389,-0.737231025948321905
0.564000000000000390,-0.736823254098810887
0.565000000000000391,-0.736325348073370467
0.566000000000000392,-0.735739385371726895
0.567000000000000393,-0.735067410849906788
0.568000000000000393,-0.734311437078719598
0.569000000000000394,-0.733473444701407407
0.570000000000000395,-0.732555382790330389
0.571000000000000396,-0.731559169202569692
0.572000000000000397,-0.730486690934478600
0.573000000000000398,-0.729339804474967934
0.574000000000000399,-0.728120336157587533
0.575000000000000400,-0.726830082511229381
0.576000000000000401,-0.725470810609414651
0.577000000000000401,-0.724044258418176878
0.578000000000000402,-0.722552135142330298
0.579000000000000403,-0.720996121570160797
0.580000000000000404,-0.719377870416509468
0.581000000000000405,-0.717699006664047623
0.582000000000000406,-0.715961127902875694
0.583000000000000407,-0.714165804668214554
0.584000000000000408,-0.712314580776271966
0.585000000000000409,-0.710408973658163800
0.586000000000000409,-0.708450474691835308
0.587000000000000410,-0.706440549532027617
0.588000000000000411,-0.704380638438078632
0.589000000000000412,-0.702272156599727859
0.590000000000000413,-0.700116494460682692
0.591000000000000414,-0.697915018040039969
0.592000000000000415,-0.695669069251498295
0.593000000000000416,-0.693379966220270871
0.594000000000000417,-0.691049003597718481
0.595000000000000417,-0.688677452873728280
0.596000000000000418,-0.686266562686609682
0.597000000000000419,-0.683817559130751151
0.598000000000000420,-0.681331646061749341
0.599000000000000421,-0.678810005399202776
0.600000000000000422,-0.676253797426994985
0.601000000000000423,-0.673664161091100722
0.602000000000000424,-0.671042214294930384
0.603000000000000425,-0.668389054192140564
0.604000000000000425,-0.665705757476887205
0.605000000000000426,-0.662993380671559107
0.606000000000000427,-0.660252960411971790
0.607000000000000428,-0.657485513729873849
0.608000000000000429,-0.654692038333034798
0.609000000000000430,-0.651873512882546580
0.610000000000000431,-0.649030897267669604
0.611000000000000432,-0.646165132877964288
0.612000000000000433,-0.643277142872815455
0.613000000000000433,-0.640367832448355379
0.614000000000000434,-0.637438089101722283
0.615000000000000435,-0.634488782892673631
