# Gypsum-011_LYSSCA-AC
# h[nm],U(h)[kJ/mol]
0.149999999999999994,183.360162668325472168
0.150999999999999995,181.788325468631740023
0.151999999999999996,179.735194420768920054
0.152999999999999997,177.602658895799379479
0.153999999999999998,175.528927586438499020
0.154999999999999999,173.533065433214602535
0.156000000000000000,171.591015289377764930
0.157000000000000001,169.672015271908321665
0.158000000000000002,167.753205330086728964
0.159000000000000002,165.823069814181877746
0.160000000000000003,163.879849214999183005
0.161000000000000004,161.928266467996962774
0.162000000000000005,159.976240728081222642
0.163000000000000006,158.032297324053104148
0.164000000000000007,156.103858406583754004
0.165000000000000008,154.196340138595132885
0.166000000000000009,152.312877562640153428
0.167000000000000010,150.454477656388149853
0.168000000000000010,148.620422018691385802
0.169000000000000011,146.808778195651171927
0.170000000000000012,145.016919073855973465
0.171000000000000013,143.241986108354979024
0.172000000000000014,141.481261561864300802
0.173000000000000015,139.732436851831977265
0.174000000000000016,137.993779164152499561
0.175000000000000017,136.264207845811910147
0.176000000000000018,134.543297015120060678
0.177000000000000018,132.831222534238520439
0.178000000000000019,131.128671009695324301
0.179000000000000020,129.436726654448136742
0.180000000000000021,127.756749293023176506
0.181000000000000022,126.090253976334381036
0.182000000000000023,124.438799905672993873
0.183000000000000024,122.803893841056449787
0.184000000000000025,121.186910995239642830
0.185000000000000026,119.589034635606140000
0.186000000000000026,118.011214232882963415
0.187000000000000027,116.454140981310359848
0.188000000000000028,114.918238826581045942
0.189000000000000029,113.403668725016544272
0.190000000000000030,111.910343667909984333
0.191000000000000031,110.437951988867141040
0.192000000000000032,108.985986584134707300
0.193000000000000033,107.553777877022326948
0.194000000000000034,106.140528614702020604
0.195000000000000034,104.745348872250929162
0.196000000000000035,103.367289933993902196
0.197000000000000036,102.005376010406621390
0.198000000000000037,100.658633018955967486
0.199000000000000038,99.326113901932131967
0.200000000000000039,98.006920169266280141
0.201000000000000040,96.700219537624576560
0.202000000000000041,95.405259688640200011
0.203000000000000042,94.121378290250177656
0.204000000000000042,92.848009517910966792
0.205000000000000043,91.584687379740898905
0.206000000000000044,90.331046194454160059
0.207000000000000045,89.086818596503491108
0.208000000000000046,87.851831452287754587
0.209000000000000047,86.626000067604010724
0.210000000000000048,85.409321052506996352
0.211000000000000049,84.201864187883884938
0.212000000000000050,83.003763610566849707
0.213000000000000050,81.815208602596314336
0.214000000000000051,80.636434236928351993
0.215000000000000052,79.467712097782879255
0.216000000000000053,78.309341260031416709
0.217000000000000054,77.161639679369201872
0.218000000000000055,76.024936114140444943
0.219000000000000056,74.899562671050631479
0.220000000000000057,73.785848040903260880
0.221000000000000058,72.684111467126371053
0.222000000000000058,71.594657469266593353
0.223000000000000059,70.517771325821257733
0.224000000000000060,69.453715305664047719
0.225000000000000061,68.402725624772116930
0.226000000000000062,67.365010094809434804
0.227000000000000063,66.340746422176692931
0.228000000000000064,65.330081110192310234
0.229000000000000065,64.333128912907199037
0.230000000000000066,63.349972786471575148
0.231000000000000066,62.380664282747524396
0.232000000000000067,61.425224329804130718
0.233000000000000068,60.483644344850439722
0.234000000000000069,59.555887626882132224
0.235000000000000070,58.641890978679398927
0.236000000000000071,57.741566510654728006
0.237000000000000072,56.854803582275408758
0.238000000000000073,55.981470840268478639
0.239000000000000073,55.121418316454295905
0.240000000000000074,54.274479551760087759
0.241000000000000075,53.440473716672840965
0.242000000000000076,52.619207702032589680
0.243000000000000077,51.810478157601551175
0.244000000000000078,51.014073459225699025
0.245000000000000079,50.229775588610195314
0.246000000000000080,49.457361912729851383
0.247000000000000081,48.696606852680268673
0.248000000000000081,47.947283434331573915
0.249000000000000082,47.209164715473349361
0.250000000000000111,46.482025086233967670
0.251000000000000112,45.765641441425337632
0.252000000000000113,45.059794225109911281
0.253000000000000114,44.364268349122234270
0.254000000000000115,43.678853988508215878
0.255000000000000115,43.003347257888876243
0.256000000000000116,42.337550773619064159
0.257000000000000117,41.681274107312852095
0.258000000000000118,41.034334136857708586
0.259000000000000119,40.396555301452067965
0.260000000000000120,39.767769767490563027
0.261000000000000121,39.147817512299958764
0.262000000000000122,38.536546332809678006
0.263000000000000123,37.933811786235381192
0.264000000000000123,37.339477069774190454
0.265000000000000124,36.753412846166092720
0.266000000000000125,36.175497021778241447
0.267000000000000126,35.605614483625814159
0.268000000000000127,35.043656801463342276
0.269000000000000128,34.489521900772778906
0.270000000000000129,33.943113712144011629
0.271000000000000130,33.404341802197492939
0.272000000000000131,32.873120990843496259
0.273000000000000131,32.349370959310469686
0.274000000000000132,31.833015853013687746
0.275000000000000133,31.323983882975397819
0.276000000000000134,30.822206929155072430
0.277000000000000135,30.327620148703346104
0.278000000000000136,29.840161591819772013
0.279000000000000137,29.359771827573489134
0.280000000000000138,28.886393581739689296
0.281000000000000139,28.419971388412978541
0.282000000000000139,27.960451256884301330
0.283000000000000140,27.507780355009380457
0.284000000000000141,27.061906710055929182
0.285000000000000142,26.622778927792730030
0.286000000000000143,26.190345930377059602
0.287000000000000144,25.764556713407444022
0.288000000000000145,25.345360122335076625
0.289000000000000146,24.932704648271286629
0.290000000000000147,24.526538243086136504
0.291000000000000147,24.126808153567885995
0.292000000000000148,23.733460774300752405
0.293000000000000149,23.346441518820473249
0.294000000000000150,22.965694708521873224
0.295000000000000151,22.591163478719586521
0.296000000000000152,22.222789701201271839
0.297000000000000153,21.860513922561999323
0.298000000000000154,21.504275317566744263
0.299000000000000155,21.154011656756221527
0.300000000000000155,20.809659287487370705
0.301000000000000156,20.471153127583800568
0.302000000000000157,20.138426670762072490
0.303000000000000158,19.811412002997194293
0.304000000000000159,19.490039828993058535
0.305000000000000160,19.174239507931606141
0.306000000000000161,18.863939097686589719
0.307000000000000162,18.559065406703979306
0.308000000000000163,18.259544052770547040
0.309000000000000163,17.965299527914851296
0.310000000000000164,17.676255268709450519
0.311000000000000165,17.392333731270547048
0.312000000000000166,17.113456470279750476
0.313000000000000167,16.839544221382766409
0.314000000000000168,16.570516986351051969
0.315000000000000169,16.306294120423984850
0.316000000000000170,16.046794421281639131
0.317000000000000171,15.791936219130576546
0.318000000000000171,15.541637467417800167
0.319000000000000172,15.295815833719860422
0.320000000000000173,15.054388790386663999
0.321000000000000174,14.817273704550563806
0.322000000000000175,14.584387927142222097
0.323000000000000176,14.355648880584999105
0.324000000000000177,14.130974144868446274
0.325000000000000178,13.910281541730341814
0.326000000000000179,13.693489216703389033
0.327000000000000179,13.480515718809460424
0.328000000000000180,13.271280077709084466
0.329000000000000181,13.065701878138217040
0.330000000000000182,12.863701331486870671
0.331000000000000183,12.665199344396224745
0.332000000000000184,12.470117584271219968
0.333000000000000185,12.278378541625155407
0.334000000000000186,12.089905589190957258
0.335000000000000187,11.904623037750903691
0.336000000000000187,11.722456188652648379
0.337000000000000188,11.543331382994242773
0.338000000000000189,11.367176047474554679
0.339000000000000190,11.193918736918300638
0.340000000000000191,11.023489173496782811
0.341000000000000192,10.855818282675958386
0.342000000000000193,10.690838225933417149
0.343000000000000194,10.528482430294648253
0.344000000000000195,10.368685614747318979
0.345000000000000195,10.211383813598910564
0.346000000000000196,10.056514396850154469
0.347000000000000197,9.904016087661835499
0.348000000000000198,9.753828976997722222
0.349000000000000199,9.605894535530699940
0.350000000000000200,9.460155622902622241
0.351000000000000201,9.316556494431530666
0.352000000000000202,9.175042805362567222
0.353000000000000203,9.035561612760378836
0.354000000000000203,8.898061375142763296
0.355000000000000204,8.762491949956050519
0.356000000000000205,8.628804588993340019
0.357000000000000206,8.496951931856822071
0.358000000000000207,8.366887997565465085
0.359000000000000208,8.238568174408664291
0.360000000000000209,8.111949208145574630
0.361000000000000210,7.986989188649081584
0.362000000000000210,7.863647535091646823
0.363000000000000211,7.741884979769070085
0.364000000000000212,7.621663550656177399
0.365000000000000213,7.502946552786679213
0.366000000000000214,7.385698548547307674
0.367000000000000215,7.269885336974104106
0.368000000000000216,7.155473932136328763
0.369000000000000217,7.042432540691199172
0.370000000000000218,6.930730538689824805
0.371000000000000218,6.820338447712468444
0.372000000000000219,6.711227910408251951
0.373000000000000220,6.603371665511895472
0.374000000000000221,6.496743522407387950
0.375000000000000222,6.391318335305692599
0.376000000000000223,6.287071977100548992
0.377000000000000224,6.183981312964236920
0.378000000000000225,6.082024173741830353
0.379000000000000226,5.981179329200180028
0.380000000000000226,5.881426461184729781
0.381000000000000227,5.782746136735049447
0.382000000000000228,5.685119781206922518
0.383000000000000229,5.588529651446406454
0.384000000000000230,5.492958809058811731
0.385000000000000231,5.398391093812743513
0.386000000000000232,5.304811097217312366
0.387000000000000233,5.212204136307787117
0.388000000000000234,5.120556227673035643
0.389000000000000234,5.029854061755557382
0.390000000000000235,4.940084977452789516
0.391000000000000236,4.851236937046338404
0.392000000000000237,4.763298501483537173
0.393000000000000238,4.676258806033877669
0.394000000000000239,4.590107536340914507
0.395000000000000240,4.504834904888315172
0.396000000000000241,4.420431627896999949
0.397000000000000242,4.336888902668619927
0.398000000000000242,4.254198385388918702
0.399000000000000243,4.172352169403001909
0.400000000000000244,4.091342763972965813
0.401000000000000245,4.011163073526922140
0.402000000000000246,3.931806377407268460
0.403000000000000247,3.853266310124265459
0.404000000000000248,3.775536842120371883
0.405000000000000249,3.698612261049055494
0.406000000000000250,3.622487153571072760
0.407000000000000250,3.547156387669905708
0.408000000000000251,3.472615095487158410
0.409000000000000252,3.398858656677805179
0.410000000000000253,3.325882682284176717
0.411000000000000254,3.253682999126875863
0.412000000000000255,3.182255634709997061
0.413000000000000256,3.111596802637174530
0.414000000000000257,3.041702888534580929
0.415000000000000258,2.972570436476005717
0.416000000000000258,2.904196135904985709
0.417000000000000259,2.836576809047969050
0.418000000000000260,2.769709398812422840
0.419000000000000261,2.703590957162961494
0.420000000000000262,2.638218633968520965
0.421000000000000263,2.573589666312846358
0.422000000000000264,2.509701368260607524
0.423000000000000265,2.446551121070818624
0.424000000000000266,2.384136363849114648
0.425000000000000266,2.322454584630281538
0.426000000000000267,2.261503311881981837
0.427000000000000268,2.201280106420655525
0.428000000000000269,2.141782553730333216
0.429000000000000270,2.083008256674897751
0.430000000000000271,2.024954828594384360
0.431000000000000272,1.967619886775611393
0.432000000000000273,1.911001046287607252
0.433000000000000274,1.855095914172035787
0.434000000000000274,1.799902083978908163
0.435000000000000275,1.745417130637922920
0.436000000000000276,1.691638605655598315
0.437000000000000277,1.638564032628569977
0.438000000000000278,1.586190903063388946
0.439000000000000279,1.534516672493180467
0.440000000000000280,1.483538756881651155
0.441000000000000281,1.433254529305021396
0.442000000000000282,1.383661316902387028
0.443000000000000282,1.334756398085441997
0.444000000000000283,1.286536999998169950
0.445000000000000284,1.239000296217676267
0.446000000000000285,1.192143404687114883
0.447000000000000286,1.145963385871920037
0.448000000000000287,1.100457241130815556
0.449000000000000288,1.055621911292955017
0.450000000000000289,1.011454275432958294
0.451000000000000290,0.967951149835611147
0.452000000000000290,0.925109287142129366
0.453000000000000291,0.882925375670263080
0.454000000000000292,0.841396038900372845
0.455000000000000293,0.800517835120042376
0.456000000000000294,0.760287257219849022
0.457000000000000295,0.720700732633012486
0.458000000000000296,0.681754623412031968
0.459000000000000297,0.643445226435351847
0.460000000000000298,0.605768773737423993
0.461000000000000298,0.568721432955669903
0.462000000000000299,0.532299307888007833
0.463000000000000300,0.496498439154817117
0.464000000000000301,0.461314804959306102
0.465000000000000302,0.426744321940561111
0.466000000000000303,0.392782846113597039
0.467000000000000304,0.359426173890915801
0.468000000000000305,0.326670043180387115
0.469000000000000306,0.294510134554236025
0.470000000000000306,0.262942072484172951
0.471000000000000307,0.231961426637977752
0.472000000000000308,0.201563713232800618
0.473000000000000309,0.171744396440720870
0.474000000000000310,0.142498889842323617
0.475000000000000311,0.113822557924032883
0.476000000000000312,0.085710717615287840
0.477000000000000313,0.058158639861589277
0.478000000000000314,0.031161551229853285
0.479000000000000314,0.004714635542333301
0.480000000000000315,-0.021186964464160563
0.481000000000000316,-0.046548145457169378
0.482000000000000317,-0.071373841808650071
0.483000000000000318,-0.095669023879343701
0.484000000000000319,-0.119438696290251209
0.485000000000000320,-0.142687896183997909
0.486000000000000321,-0.165421691478791821
0.487000000000000322,-0.187645179117445327
0.488000000000000322,-0.209363483313828758
0.489000000000000323,-0.230581753799180195
0.490000000000000324,-0.251305164070333376
0.491000000000000325,-0.271538909641975190
0.492000000000000326,-0.291288206304921526
0.493000000000000327,-0.310558288392272064
0.494000000000000328,-0.329354407055188314
0.495000000000000329,-0.347681828550016281
0.496000000000000330,-0.365545832538244020
0.497000000000000330,-0.382951710400954770
0.498000000000000331,-0.399904763568909360
0.499000000000000332,-0.416410301869864274
0.500000000000000333,-0.432473641894190908
0.501000000000000334,-0.448100105379916513
0.502000000000000335,-0.463295017618442884
0.503000000000000336,-0.478063705881747680
0.504000000000000337,-0.492411497872165316
0.505000000000000338,-0.506343720195482794
0.506000000000000338,-0.519865696858234583
0.507000000000000339,-0.532982747789910283
0.508000000000000340,-0.545700187390671720
0.509000000000000341,-0.558023323105365510
0.510000000000000342,-0.569957454024158872
0.511000000000000343,-0.581507869510509368
0.512000000000000344,-0.592679847856770192
0.513000000000000345,-0.603478654967872674
0.514000000000000346,-0.613909543073513975
0.515000000000000346,-0.623977749468996978
0.516000000000000347,-0.633688495285089415
0.517000000000000348,-0.643046984287130807
0.518000000000000349,-0.652058401703453860
0.519000000000000350,-0.660727913083388740
0.520000000000000351,-0.669060663184799287
0.521000000000000352,-0.677061774891407397
0.522000000000000353,-0.684736348159699193
0.523000000000000353,-0.692089458995626794
0.524000000000000354,-0.699126158460935176
0.525000000000000355,-0.705851471709111222
0.526000000000000356,-0.712270397050802972
0.527000000000000357,-0.718387905048715303
0.528000000000000358,-0.724208937641675377
0.529000000000000359,-0.729738407297876646
0.530000000000000360,-0.734981196196927700
0.531000000000000361,-0.739942155440689975
0.532000000000000361,-0.744626104292533397
0.533000000000000362,-0.749037829444837544
0.534000000000000363,-0.753182084314426570
0.535000000000000364,-0.757063588365742390
0.536000000000000365,-0.760687026461339566
0.537000000000000366,-0.764057048239532355
0.538000000000000367,-0.767178267518710100
0.539000000000000368,-0.770055261728194829
0.540000000000000369,-0.772692571365072411
0.541000000000000369,-0.775094699476855498
0.542000000000000370,-0.777266111169402141
0.543000000000000371,-0.779211233139917692
0.544000000000000372,-0.780934453234517933
0.545000000000000373,-0.782440120030041597
0.546000000000000374,-0.783732542439678714
0.547000000000000375,-0.784815989342018794
0.548000000000000376,-0.785694689233158883
0.549000000000000377,-0.786372829901383463
0.550000000000000377,-0.786854558124104431
0.551000000000000378,-0.787143979386507042
0.552000000000000379,-0.787245157621655034
0.553000000000000380,-0.787162114971478588
0.554000000000000381,-0.786898831568285995
0.555000000000000382,-0.786459245336447954
0.556000000000000383,-0.785847251813639347
0.557000000000000384,-0.785066703991464943
0.558000000000000385,-0.784121412174788146
0.559000000000000385,-0.783015143859544183
0.560000000000000386,-0.781751623628510472
0.561000000000000387,-0.780334533064625857
0.562000000000000388,-0.778767510681425024
0.563000000000000389,-0.777054151870257614
0.564000000000000390,-0.775198008863738464
0.565000000000000391,-0.773202590715128979
0.566000000000000392,-0.771071363293160172
0.567000000000000393,-0.768807749291988474
0.568000000000000393,-0.766415128255738987
0.569000000000000394,-0.763896836617350417
0.570000000000000395,-0.761256167751317769
0.571000000000000396,-0.758496372039818456
0.572000000000000397,-0.755620656952028957
0.573000000000000398,-0.752632187136050623
0.574000000000000399,-0.749534084523213795
0.575000000000000400,-0.746329428444280629
0.576000000000000401,-0.743021255757208232
0.577000000000000401,-0.739612560986192435
0.578000000000000402,-0.736106296471448651
0.579000000000000403,-0.732505372529510979
0.580000000000000404,-0.728812657623716609
0.581000000000000405,-0.725030978544368820
0.582000000000000406,-0.721163120598445673
0.583000000000000407,-0.717211827808317937
0.584000000000000408,-0.713179803119318501
0.585000000000000409,-0.709069708615712058
0.586000000000000409,-0.704884165744789071
0.587000000000000410,-0.700625755548831441
0.588000000000000411,-0.696297018904469267
0.589000000000000412,-0.691900456769373395
0.590000000000000413,-0.687438530435729334
0.591000000000000414,-0.682913661790376048
0.592000000000000415,-0.678328233581281470
0.593000000000000416,-0.673684589689998448
0.594000000000000417,-0.668985035409912054
0.595000000000000417,-0.664231837730032693
0.596000000000000418,-0.659427225623892110
0.597000000000000419,-0.654573390343546002
0.598000000000000420,-0.649672485718167936
0.599000000000000421,-0.644726628457203632
0.600000000000000422,-0.639737898457683585
0.601000000000000423,-0.634708339115532816
0.602000000000000424,-0.629639957640651948
0.603000000000000425,-0.624534725375512800
0.604000000000000425,-0.619394578117024808
0.605000000000000426,-0.614221416441522505
0.606000000000000427,-0.609017106032646915
0.607000000000000428,-0.603783478011778008
0.608000000000000429,-0.598522329271122921
0.609000000000000430,-0.593235422808861323
0.610000000000000431,-0.587924488066546402
0.611000000000000432,-0.582591221268292214
0.612000000000000433,-0.577237285761686203
0.613000000000000433,-0.571864312360273574
0.614000000000000434,-0.566473899687376381
0.615000000000000435,-0.561067614521093772
