# Gypsum-011_PHO-AC
# h[nm],U(h)[kJ/mol]
0.149999999999999994,135.442704042441448564
0.150999999999999995,133.122602300849223411
0.151999999999999996,131.228273683143186190
0.152999999999999997,129.363866132893122085
0.153999999999999998,127.407280834294084571
0.154999999999999999,125.358078298609413537
0.156000000000000000,123.257595876877445562
0.157000000000000001,121.150827112579378309
0.158000000000000002,119.071328112031281421
0.159000000000000002,117.037936014990876288
0.160000000000000003,115.056829277000673528
0.161000000000000004,113.125388942324121899
0.162000000000000005,111.236078630981324977
0.163000000000000006,109.379576879027666791
0.164000000000000007,107.546950370826522203
0.165000000000000008,105.730933209035768527
0.166000000000000009,103.926492318833467721
0.167000000000000010,102.130885306778438348
0.168000000000000010,100.343398975660278438
0.169000000000000011,98.564920261704628501
0.170000000000000012,96.797451059187267219
0.171000000000000013,95.043641561149840413
0.172000000000000014,93.306386477337611041
0.173000000000000015,91.588505508881183914
0.174000000000000016,89.892513239259272950
0.175000000000000017,88.220473067007219470
0.176000000000000018,86.573923728060123040
0.177000000000000018,84.953864164731299979
0.178000000000000019,83.360781984407793743
0.179000000000000020,81.794711698452573501
0.180000000000000021,80.255310716174292907
0.181000000000000022,78.741943235697078762
0.182000000000000023,77.253764410206187563
0.183000000000000024,75.789799273294761406
0.184000000000000025,74.349012764597020464
0.185000000000000026,72.930368751518159343
0.186000000000000026,71.532877181978022918
0.187000000000000027,70.155629441469926633
0.188000000000000028,68.797822656472874314
0.189000000000000029,67.458774124576478926
0.190000000000000030,66.137927301295306393
0.191000000000000031,64.834850874952863364
0.192000000000000032,63.549232451184209935
0.193000000000000033,62.280868279799548759
0.194000000000000034,61.029650316049071535
0.195000000000000034,59.795551737652786528
0.196000000000000035,58.578611855419659094
0.197000000000000036,57.378921171716612548
0.198000000000000037,56.196607166605147654
0.199000000000000038,55.031821232244396924
0.200000000000000039,53.884727035797276073
0.201000000000000040,52.755490471282769249
0.202000000000000041,51.644271261859515221
0.203000000000000042,50.551216195126997377
0.204000000000000042,49.476453913702428622
0.205000000000000043,48.420091139650530465
0.206000000000000044,47.382210182150394928
0.207000000000000045,46.362867560856656723
0.208000000000000046,45.362093570568525536
0.209000000000000047,44.379892614012319996
0.210000000000000048,43.416244136898669126
0.211000000000000049,42.471104011276658241
0.212000000000000050,41.544406228136537607
0.213000000000000050,40.636064776999432979
0.214000000000000051,39.745975607876701474
0.215000000000000052,38.874018588684592146
0.216000000000000053,38.020059388343113937
0.217000000000000054,37.183951231908288548
0.218000000000000055,36.365536488863192233
0.219000000000000056,35.564648068917698254
0.220000000000000057,34.781110611224413276
0.221000000000000058,34.014741462782886572
0.222000000000000058,33.265351449992394350
0.223000000000000059,32.532745453908617606
0.224000000000000060,31.816722804861569784
0.225000000000000061,31.117077515833194923
0.226000000000000062,30.433598376517654316
0.227000000000000063,29.766068931442951850
0.228000000000000064,29.114267366073693921
0.229000000000000065,28.477966324583796620
0.230000000000000066,27.856932682130764789
0.231000000000000066,27.250927293103035964
0.232000000000000067,26.659704735075553828
0.233000000000000068,26.083013066195938734
0.234000000000000069,25.520593611534753364
0.235000000000000070,24.972180791646174214
0.236000000000000071,24.437502004272960932
0.237000000000000072,23.916277567847032515
0.238000000000000073,23.408220733234450961
0.239000000000000073,22.913037768087967549
0.240000000000000074,22.430428116228632973
0.241000000000000075,21.960084632703502194
0.242000000000000076,21.501693893572092264
0.243000000000000077,21.054936578065849062
0.244000000000000078,20.619487919548777910
0.245000000000000079,20.195018220678349508
0.246000000000000080,19.781193427321262845
0.247000000000000081,19.377675755108825228
0.248000000000000081,18.984124362012913423
0.249000000000000082,18.600196059973800544
0.250000000000000111,18.225546058401409510
0.251000000000000112,17.859828732290868203
0.252000000000000113,17.502698407724864182
0.253000000000000114,17.153810157668736736
0.254000000000000115,16.812820601182597358
0.255000000000000115,16.479388699467961032
0.256000000000000116,16.153176542519545933
0.257000000000000117,15.833850120555865715
0.258000000000000118,15.521080074843638386
0.259000000000000119,15.214542423000136040
0.260000000000000120,14.913919254345779919
0.261000000000000121,14.618899391378704422
0.262000000000000122,14.329179013944997934
0.263000000000000123,14.044462243177793681
0.264000000000000123,13.764461682768336814
0.265000000000000124,13.488898915609265572
0.266000000000000125,13.217504954308759935
0.267000000000000126,12.950020644512486356
0.268000000000000127,12.686197020383968237
0.269000000000000128,12.425795611982335842
0.270000000000000129,12.168588704637334885
0.271000000000000130,11.914359550753642836
0.272000000000000131,11.662902534780148045
0.273000000000000131,11.414023292353967065
0.274000000000000132,11.167538784874448510
0.275000000000000133,10.923277330978725885
0.276000000000000134,10.681078596579324014
0.277000000000000135,10.440793545286476629
0.278000000000000136,10.202284351173199539
0.279000000000000137,9.965424275952926791
0.280000000000000138,9.730097512727507336
0.281000000000000139,9.496198998529250090
0.282000000000000139,9.263634197926757352
0.283000000000000140,9.032318859990748905
0.284000000000000141,8.802178750925751416
0.285000000000000142,8.573149364666743821
0.286000000000000143,8.345175613719034047
0.287000000000000144,8.118211502485896958
0.288000000000000145,7.892219785282556188
0.289000000000000146,7.667171611180236823
0.290000000000000147,7.443046157758748116
0.291000000000000147,7.219830255774620120
0.292000000000000148,6.997518006672630797
0.293000000000000149,6.776110394785310298
0.294000000000000150,6.555614895976225043
0.295000000000000151,6.336045084391725091
0.296000000000000152,6.117420238891566164
0.297000000000000153,5.899764950633415772
0.298000000000000154,5.683108733189596862
0.299000000000000155,5.467485636477812605
0.300000000000000155,5.252933865691199244
0.301000000000000156,5.039495406318059700
0.302000000000000157,4.827215656247237696
0.303000000000000158,4.616143065863645312
0.304000000000000159,4.406328786948449761
0.305000000000000160,4.197826331111351728
0.306000000000000161,3.990691238398234475
0.307000000000000162,3.784980756636117327
0.308000000000000163,3.580753531999616435
0.309000000000000163,3.378069311208622416
0.310000000000000164,3.176988655695927477
0.311000000000000165,2.977572668016313262
0.312000000000000166,2.779882730704993588
0.313000000000000167,2.583980257733324404
0.314000000000000168,2.389926458653636843
0.315000000000000169,2.197782115472333597
0.316000000000000170,2.007607372241576371
0.317000000000000171,1.819461537314581490
0.318000000000000171,1.633402898167800377
0.319000000000000172,1.449488548654549902
0.320000000000000173,1.267774228520047952
0.321000000000000174,1.088314174975593351
0.322000000000000175,0.911160986100997716
0.323000000000000176,0.736365495818655846
0.324000000000000177,0.563976660159578480
0.325000000000000178,0.394041454521808610
0.326000000000000179,0.226604781603600702
0.327000000000000179,0.061709389679211489
0.328000000000000180,-0.100604199128194335
0.329000000000000181,-0.260297750932188432
0.330000000000000182,-0.417335372891598777
0.331000000000000183,-0.571683557112917962
0.332000000000000184,-0.723311216022082593
0.333000000000000185,-0.872189709584365480
0.334000000000000186,-1.018292864752621485
0.335000000000000187,-1.161596987523975333
0.336000000000000187,-1.302080867984113155
0.337000000000000188,-1.439725778715243543
0.338000000000000189,-1.574515466940826780
0.339000000000000190,-1.706436140775057453
0.340000000000000191,-1.835476449939553500
0.341000000000000192,-1.961627461303571796
0.342000000000000193,-2.084882629596642722
0.343000000000000194,-2.205237763635003567
0.344000000000000195,-2.322690988394421119
0.345000000000000195,-2.437242703253830634
0.346000000000000196,-2.548895536724171684
0.347000000000000197,-2.657654297967767754
0.348000000000000198,-2.763525925403321093
0.349000000000000199,-2.866519432681525537
0.350000000000000200,-2.966645852306033060
0.351000000000000201,-3.063918177163856171
0.352000000000000202,-3.158351300218810831
0.353000000000000203,-3.249961952610997962
0.354000000000000203,-3.338768640394716325
0.355000000000000204,-3.424791580136435698
0.356000000000000205,-3.508052633584169744
0.357000000000000206,-3.588575241609181177
0.358000000000000207,-3.666384357610229294
0.359000000000000208,-3.741506380560998934
0.360000000000000209,-3.813969087871023955
0.361000000000000210,-3.883801568220561329
0.362000000000000210,-3.951034154520594033
0.363000000000000211,-4.015698357139439345
0.364000000000000212,-4.077826797528603109
0.365000000000000213,-4.137453142371368742
0.366000000000000214,-4.194612038369203155
0.367000000000000215,-4.249339047772516587
0.368000000000000216,-4.301670584754445414
0.369000000000000217,-4.351643852718166450
0.370000000000000218,-4.399296782621110680
0.371000000000000218,-4.444667972391783017
0.372000000000000219,-4.487796627508235936
0.373000000000000220,-4.528722502800369476
0.374000000000000221,-4.567485845531852107
0.375000000000000222,-4.604127339811183717
0.376000000000000223,-4.638688052375928628
0.377000000000000224,-4.671209379788068716
0.378000000000000225,-4.701732997073435172
0.379000000000000226,-4.730300807832930943
0.380000000000000226,-4.756954895848698683
0.381000000000000227,-4.781737478203405445
0.382000000000000228,-4.804690859927061908
0.383000000000000229,-4.825857390181249151
0.384000000000000230,-4.845279419987084779
0.385000000000000231,-4.862999261499646231
0.386000000000000232,-4.879059148828043924
0.387000000000000233,-4.893501200397415651
0.388000000000000234,-4.906367382845896685
0.389000000000000234,-4.917699476447196183
0.390000000000000235,-4.927539042046591433
0.391000000000000236,-4.935927389495930129
0.392000000000000237,-4.942905547571049496
0.393000000000000238,-4.948514235353014712
0.394000000000000239,-4.952793835052652582
0.395000000000000240,-4.955784366256388296
0.396000000000000241,-4.957525461569647796
0.397000000000000242,-4.958056343632803120
0.398000000000000242,-4.957415803483549155
0.399000000000000243,-4.955642180238164940
0.400000000000000244,-4.952773342063468753
0.401000000000000245,-4.948846668410291194
0.402000000000000246,-4.943899033478418303
0.403000000000000247,-4.937966790882586388
0.404000000000000248,-4.931085759488369469
0.405000000000000249,-4.923291210386457450
0.406000000000000250,-4.914617854973443833
0.407000000000000250,-4.905099834107029544
0.408000000000000251,-4.894770708303314066
0.409000000000000252,-4.883663448943780239
0.410000000000000253,-4.871810430459563079
0.411000000000000254,-4.859243423460589462
0.412000000000000255,-4.845993588777238514
0.413000000000000256,-4.832091472382518127
0.414000000000000257,-4.817567001162601947
0.415000000000000258,-4.802449479504297791
0.416000000000000258,-4.786767586667824759
0.417000000000000259,-4.770549374914045515
0.418000000000000260,-4.753822268355376579
0.419000000000000261,-4.736613062500223847
0.420000000000000262,-4.718947924461062371
0.421000000000000263,-4.700852393796969508
0.422000000000000264,-4.682351383961644409
0.423000000000000265,-4.663469184328737249
0.424000000000000266,-4.644229462766775285
0.425000000000000266,-4.624655268736370672
0.426000000000000267,-4.604769036883277877
0.427000000000000268,-4.584592591101182890
0.428000000000000269,-4.564147149038880968
0.429000000000000270,-4.543453327027107136
0.430000000000000271,-4.522531145400736641
0.431000000000000272,-4.501400034192988286
0.432000000000000273,-4.480078839178604611
0.433000000000000274,-4.458585828243849747
0.434000000000000274,-4.436938698061646313
0.435000000000000275,-4.415154581050883209
0.436000000000000276,-4.393250052599607436
0.437000000000000277,-4.371241138532295345
0.438000000000000278,-4.349143322802198952
0.439000000000000279,-4.326971555390342061
0.440000000000000280,-4.304740260393230322
0.441000000000000281,-4.282463344282176010
0.442000000000000282,-4.260154204317619708
0.443000000000000282,-4.237825737102372869
0.444000000000000283,-4.215490347258496584
0.445000000000000284,-4.193159956212907602
0.446000000000000285,-4.170846011077465221
0.447000000000000286,-4.148559493610018301
0.448000000000000287,-4.126310929243022230
0.449000000000000288,-4.104110396167450325
0.450000000000000289,-4.081967534459738367
0.451000000000000290,-4.059891555240353611
0.452000000000000290,-4.037891249853013065
0.453000000000000291,-4.015974999053958605
0.454000000000000292,-3.994150782201392413
0.455000000000000293,-3.972426186435447537
0.456000000000000294,-3.950808415839712318
0.457000000000000295,-3.929304300575670705
0.458000000000000296,-3.907920305981855247
0.459000000000000297,-3.886662541630079293
0.460000000000000298,-3.865536770331312599
0.461000000000000298,-3.844548417084401315
0.462000000000000299,-3.823702577961071825
0.463000000000000300,-3.803004028921050494
0.464000000000000301,-3.782457234551638070
0.465000000000000302,-3.762066356726259553
0.466000000000000303,-3.741835263176960691
0.467000000000000304,-3.721767535976169938
0.468000000000000305,-3.701866479923279663
0.469000000000000306,-3.682135130832018266
0.470000000000000306,-3.662576263714872660
0.471000000000000307,-3.643192400860944424
0.472000000000000308,-3.623985819804234954
0.473000000000000309,-3.604958561179286480
0.474000000000000310,-3.586112436461589503
0.475000000000000311,-3.567449035590288364
0.476000000000000312,-3.548969734471108417
0.477000000000000313,-3.530675702357445545
0.478000000000000314,-3.512567909107978004
0.479000000000000314,-3.494647132319298244
0.480000000000000315,-3.476913964332194240
0.481000000000000316,-3.459368819110577142
0.482000000000000317,-3.442011938992022291
0.483000000000000318,-3.424843401309290325
0.484000000000000319,-3.407863124882167138
0.485000000000000320,-3.391070876379271848
0.486000000000000321,-3.374466276549556110
0.487000000000000322,-3.358048806323396640
0.488000000000000322,-3.341817812783248520
0.489000000000000323,-3.325772515004160823
0.490000000000000324,-3.309912009764297558
0.491000000000000325,-3.294235277125967976
0.492000000000000326,-3.278741185887612097
0.493000000000000327,-3.263428498907460895
0.494000000000000328,-3.248295878299502615
0.495000000000000329,-3.233341890502649640
0.496000000000000330,-3.218565011223947003
0.497000000000000330,-3.203963630256922102
0.498000000000000331,-3.189536056175971357
0.499000000000000332,-3.175280520908147164
0.500000000000000333,-3.161195184183394957
0.501000000000000334,-3.147278137864523373
0.502000000000000335,-3.133527410158360560
0.503000000000000336,-3.119940969709355194
0.504000000000000337,-3.106516729577131652
0.505000000000000338,-3.093252551099455516
0.506000000000000338,-3.080146247642152613
0.507000000000000339,-3.067195588237543014
0.508000000000000340,-3.054398301112940750
0.509000000000000341,-3.041752077110987607
0.510000000000000342,-3.029254573003278495
0.511000000000000343,-3.016903414699169783
0.512000000000000344,-3.004696200351308466
0.513000000000000345,-2.992630503359703820
0.514000000000000346,-2.980703875276089043
0.515000000000000346,-2.968913848610252426
0.516000000000000347,-2.957257939540158809
0.517000000000000348,-2.945733650527683434
0.518000000000000349,-2.934338472841595546
0.519000000000000350,-2.923069888989766163
0.520000000000000351,-2.911925375062212495
0.521000000000000352,-2.900902402986927253
0.522000000000000353,-2.889998442700135506
0.523000000000000353,-2.879210964232881143
0.524000000000000354,-2.868537439715661996
0.525000000000000355,-2.857975345302912196
0.526000000000000356,-2.847522163019062802
0.527000000000000357,-2.837175382528019263
0.528000000000000358,-2.826932502827689042
0.529000000000000359,-2.816791033871414385
0.530000000000000360,-2.806748498117925372
0.531000000000000361,-2.796802432011608275
0.532000000000000361,-2.786950387394731443
0.533000000000000362,-2.777189932853328269
0.534000000000000363,-2.767518654998387895
0.535000000000000364,-2.757934159684020337
0.536000000000000365,-2.748434073164178315
0.537000000000000366,-2.739016043189615335
0.538000000000000367,-2.729677740046551726
0.539000000000000368,-2.720416857538777045
0.540000000000000369,-2.711231113914565505
0.541000000000000369,-2.702118252740071114
0.542000000000000370,-2.693076043720599611
0.543000000000000371,-2.684102283471314188
0.544000000000000372,-2.675194796238798745
0.545000000000000373,-2.666351434574925072
0.546000000000000374,-2.657570079964439280
0.547000000000000375,-2.648848643407633485
0.548000000000000376,-2.640185065959533617
0.549000000000000377,-2.631577319226876988
0.550000000000000377,-2.623023405824248755
0.551000000000000378,-2.614521359790629162
0.552000000000000379,-2.606069246967701591
0.553000000000000380,-2.597665165341077387
0.554000000000000381,-2.589307245345709330
0.555000000000000382,-2.580993650136751860
0.556000000000000383,-2.572722575826894786
0.557000000000000384,-2.564492251691523172
0.558000000000000385,-2.556300940342633332
0.559000000000000385,-2.548146937872784346
0.560000000000000386,-2.540028573970050108
0.561000000000000387,-2.531944212005099892
0.562000000000000388,-2.523892249091396423
0.563000000000000389,-2.515871116119582140
0.564000000000000390,-2.507879277766989379
0.565000000000000391,-2.499915232483275851
0.566000000000000392,-2.491977512453113164
0.567000000000000393,-2.484064683536904461
0.568000000000000393,-2.476175345190328780
0.569000000000000394,-2.468308130363696673
0.570000000000000395,-2.460461705381949304
0.571000000000000396,-2.452634769806063098
0.572000000000000397,-2.444826056276821369
0.573000000000000398,-2.437034330341589783
0.574000000000000399,-2.429258390265003786
0.575000000000000400,-2.421497066824235489
0.576000000000000401,-2.413749223089597162
0.577000000000000401,-2.406013754191261622
0.578000000000000402,-2.398289587072677254
0.579000000000000403,-2.390575680231438405
0.580000000000000404,-2.382871023448284831
0.581000000000000405,-2.375174637504779973
0.582000000000000406,-2.367485573890393269
0.583000000000000407,-2.359802914499505189
0.584000000000000408,-2.352125771318989145
0.585000000000000409,-2.344453286106896961
0.586000000000000409,-2.336784630062800794
0.587000000000000410,-2.329119003490379036
0.588000000000000411,-2.321455635452671196
0.589000000000000412,-2.313793783420622141
0.590000000000000413,-2.306132732915288308
0.591000000000000414,-2.298471797144269857
0.592000000000000415,-2.290810316632780008
0.593000000000000416,-2.283147658849789430
0.594000000000000417,-2.275483217829688432
0.595000000000000417,-2.267816413789937702
0.596000000000000418,-2.260146692744939845
0.597000000000000419,-2.252473526116757885
0.598000000000000420,-2.244796410342808635
0.599000000000000421,-2.237114866481103803
0.600000000000000422,-2.229428439813228469
0.601000000000000423,-2.221736699445476582
0.602000000000000424,-2.214039237908455693
0.603000000000000425,-2.206335670755453116
0.604000000000000425,-2.198625636159856178
0.605000000000000426,-2.190908794511959190
0.606000000000000427,-2.183184828015408918
0.607000000000000428,-2.175453440283487083
0.608000000000000429,-2.167714355935673520
0.609000000000000430,-2.159967320194478901
0.610000000000000431,-2.152212098483027525
0.611000000000000432,-2.144448476023451455
0.612000000000000433,-2.136676257436369131
0.613000000000000433,-2.128895266341685577
