# Gypsum-011_LEUSCA-JS
# h[nm],U(h)[kJ/mol]
0.149999999999999994,186.374273581749463347
0.150999999999999995,185.080221599125195553
0.151999999999999996,183.223291052524132283
0.152999999999999997,181.240989750230085065
0.153999999999999998,179.289566142781893632
0.154999999999999999,177.398173117204777327
0.156000000000000000,175.549242774343184692
0.157000000000000001,173.716664798390837632
0.158000000000000002,171.881005694245175164
0.159000000000000002,170.033142531107785089
0.160000000000000003,168.172772842348450695
0.161000000000000004,166.305265882034291280
0.162000000000000005,164.438548444402641735
0.163000000000000006,162.580714622447374040
0.164000000000000007,160.738515579457668991
0.165000000000000008,158.916631327262791729
0.166000000000000009,157.117530917634525167
0.167000000000000010,155.341715934493976192
0.168000000000000010,153.588170256347950726
0.169000000000000011,151.854881316478781628
0.170000000000000012,150.139340936754479117
0.171000000000000013,148.438970806390074131
0.172000000000000014,146.751446509600725676
0.173000000000000015,145.074914609407386479
0.174000000000000016,143.408110692050172474
0.175000000000000017,141.750393902116655909
0.176000000000000018,140.101716822420655717
0.177000000000000018,138.462549890598722868
0.178000000000000019,136.833777980495824522
0.179000000000000020,135.216584149305276696
0.180000000000000021,133.612332473654191745
0.181000000000000022,132.022458790048091259
0.182000000000000023,130.448375284602519741
0.183000000000000024,128.891392394326942394
0.184000000000000025,127.352659453299494885
0.185000000000000026,125.833123949616293658
0.186000000000000026,124.333508123448197580
0.187000000000000027,122.854300881771180798
0.188000000000000028,121.395762570113717516
0.189000000000000029,119.957939962554746671
0.190000000000000030,118.540688847712274878
0.191000000000000031,117.143701746156054355
0.192000000000000032,115.766538546719900182
0.193000000000000033,114.408658156869748268
0.194000000000000034,113.069449594826977545
0.195000000000000034,111.748261285059612646
0.196000000000000035,110.444427636981615137
0.197000000000000036,109.157292277640408429
0.198000000000000037,107.886227565696302122
0.199000000000000038,106.630650232539778699
0.200000000000000039,105.390033176118123492
0.201000000000000040,104.163913575110285592
0.202000000000000041,102.951897598066736350
0.203000000000000042,101.753662057473519553
0.204000000000000042,100.568953406365949377
0.205000000000000043,99.397584499254250545
0.206000000000000044,98.239429543847023751
0.207000000000000045,97.094417659272835408
0.208000000000000046,95.962525433813681275
0.209000000000000047,94.843768843794975965
0.210000000000000048,93.738194858043129898
0.211000000000000049,92.645873011621546311
0.212000000000000050,91.566887190379389949
0.213000000000000050,90.501327825811685557
0.214000000000000051,89.449284659089840943
0.215000000000000052,88.410840194837348349
0.216000000000000053,87.386063929969608921
0.217000000000000054,86.375007411138113866
0.218000000000000055,85.377700146270882442
0.219000000000000056,84.394146371469730639
0.220000000000000057,83.424322654077684547
0.221000000000000058,82.468176295932480002
0.222000000000000058,81.525624487461442413
0.223000000000000059,80.596554153093620698
0.224000000000000060,79.680822421167590619
0.225000000000000061,78.778257646790038393
0.226000000000000062,77.888660913625216153
0.227000000000000063,77.011807940059867406
0.228000000000000064,76.147451316283024880
0.229000000000000065,75.295323001258026352
0.230000000000000066,74.455137012079120495
0.231000000000000066,73.626592242550756851
0.232000000000000067,72.809375352786091184
0.233000000000000068,72.003163676995100673
0.234000000000000069,71.207628102253906377
0.235000000000000070,70.422435876768417984
0.236000000000000071,69.647253311841879508
0.237000000000000072,68.881748347328752402
0.238000000000000073,68.125592955718602184
0.239000000000000073,67.378465365084281302
0.240000000000000074,66.640052085891625211
0.241000000000000075,65.910049731076824742
0.242000000000000076,65.188166622820475027
0.243000000000000077,64.474124183079382533
0.244000000000000078,63.767658108168419062
0.245000000000000079,63.068519330524324573
0.246000000000000080,62.376474773237497118
0.247000000000000081,61.691307905022391367
0.248000000000000081,61.012819105033216260
0.249000000000000082,60.340825848336478998
0.250000000000000111,59.675162723952077215
0.251000000000000112,59.015681298195111992
0.252000000000000113,58.362249836612967613
0.253000000000000114,57.714752898148717009
0.254000000000000115,57.073090815289290845
0.255000000000000115,56.437179073908012583
0.256000000000000116,55.806947606303310749
0.257000000000000117,55.182340010594408852
0.258000000000000118,54.563312709181182925
0.259000000000000119,53.949834058427825312
0.260000000000000120,53.341883421107766594
0.261000000000000121,52.739450212466920220
0.262000000000000122,52.142532930037759797
0.263000000000000123,51.551138176584323958
0.264000000000000123,50.965279684786295888
0.265000000000000124,50.384977351493326125
0.266000000000000125,49.810256288605408770
0.267000000000000126,49.241145896870975207
0.268000000000000127,48.677678968147588989
0.269000000000000128,48.119890820947134102
0.270000000000000129,47.567818473392286194
0.271000000000000130,47.021499857047771798
0.272000000000000131,46.480973074462653472
0.273000000000000131,45.946275702668422980
0.274000000000000132,45.417444144326147182
0.275000000000000133,44.894513027703645491
0.276000000000000134,44.377514656191117126
0.277000000000000135,43.866478507632351125
0.278000000000000136,43.361430783355082497
0.279000000000000137,42.862394006430875493
0.280000000000000138,42.369386668378979266
0.281000000000000139,41.882422923247929702
0.282000000000000139,41.401512327764933730
0.283000000000000140,40.926659626030435390
0.284000000000000141,40.457864577055119071
0.285000000000000142,39.995121823286268636
0.286000000000000143,39.538420798146731272
0.287000000000000144,39.087745670512674678
0.288000000000000145,38.643075323982664315
0.289000000000000146,38.204383368739243565
0.290000000000000147,37.771638183772026309
0.291000000000000147,37.344802987218699286
0.292000000000000148,36.923835932582527164
0.293000000000000149,36.508690228603477124
0.294000000000000150,36.099314280590668602
0.295000000000000151,35.695651851066202198
0.296000000000000152,35.297642237622895323
0.297000000000000153,34.905220465960333343
0.298000000000000154,34.518317496131004418
0.299000000000000155,34.136860440104619840
0.300000000000000155,33.760772788837080327
0.301000000000000156,33.389974647115842288
0.302000000000000157,33.024382974539328472
0.303000000000000158,32.663911831077754755
0.304000000000000159,32.308472625753481111
0.305000000000000160,31.957974367069631683
0.306000000000000161,31.612323913907960815
0.307000000000000162,31.271426225706846935
0.308000000000000163,30.935184610820737561
0.309000000000000163,30.603500972050404982
0.310000000000000164,30.276276048419539677
0.311000000000000165,29.953409652357958493
0.312000000000000166,29.634800901532532436
0.313000000000000167,29.320348444646704422
0.314000000000000168,29.009950680604767115
0.315000000000000169,28.703505970510310163
0.316000000000000170,28.400912842037406847
0.317000000000000171,28.102070185779972178
0.318000000000000171,27.806877443247021375
0.319000000000000172,27.515234786231303588
0.320000000000000173,27.227043287334744548
0.321000000000000174,26.942205081486765295
0.322000000000000175,26.660623518340592852
0.323000000000000176,26.382203305478565625
0.324000000000000177,26.106850642400225126
0.325000000000000178,25.834473345305912773
0.326000000000000179,25.564980962725208258
0.327000000000000179,25.298284882072458402
0.328000000000000180,25.034298427241974849
0.329000000000000181,24.772936947383165318
0.330000000000000182,24.514117897019975345
0.331000000000000183,24.257760907701886310
0.332000000000000184,24.003787851392804242
0.333000000000000185,23.752122895821717208
0.334000000000000186,23.502692552034119444
0.335000000000000187,23.255425714395947523
0.336000000000000187,23.010253693312826329
0.337000000000000188,22.767110240936762722
0.338000000000000189,22.525931570139270832
0.339000000000000190,22.286656367035966753
0.340000000000000191,22.049225797351862610
0.341000000000000192,21.813583506919076882
0.342000000000000193,21.579675616600361820
0.343000000000000194,21.347450711931831080
0.344000000000000195,21.116859827777840763
0.345000000000000195,20.887856428288404942
0.346000000000000196,20.660396382447384411
0.347000000000000197,20.434437935495516570
0.348000000000000198,20.209941676508272224
0.349000000000000199,19.986870502403213834
0.350000000000000200,19.765189578645987467
0.351000000000000201,19.544866296917660975
0.352000000000000202,19.325870229999733141
0.353000000000000203,19.108173084125773755
0.354000000000000203,18.891748649041211650
0.355000000000000204,18.676572746005405179
0.356000000000000205,18.462623173961763001
0.357000000000000206,18.249879654093639658
0.358000000000000207,18.038323772975736858
0.359000000000000208,17.827938924521951947
0.360000000000000209,17.618710250922266169
0.361000000000000210,17.410624582753069234
0.362000000000000210,17.203670378436353161
0.363000000000000211,16.997837663215161541
0.364000000000000212,16.793117967804079171
0.365000000000000213,16.589504266865350957
0.366000000000000214,16.386990917452845196
0.367000000000000215,16.185573597558388315
0.368000000000000216,15.985249244886393427
0.369000000000000217,15.786015995975791526
0.370000000000000218,15.587873125779927008
0.371000000000000218,15.390820987808089271
0.372000000000000219,15.194860954924939378
0.373000000000000220,14.999995360897202090
0.374000000000000221,14.806227442770028446
0.375000000000000222,14.613561284149188424
0.376000000000000223,14.422001759458130010
0.377000000000000224,14.231554479233841093
0.378000000000000225,14.042225736518634704
0.379000000000000226,13.854022454399745001
0.380000000000000226,13.666952134742984981
0.381000000000000227,13.481022808161611692
0.382000000000000228,13.296242985256418123
0.383000000000000229,13.112621609158304992
0.384000000000000230,12.930168009400128781
0.385000000000000231,12.748891857140105088
0.386000000000000232,12.568803121755157903
0.387000000000000233,12.389912028818381273
0.388000000000000234,12.212229019471493530
0.389000000000000234,12.035764711199252730
0.390000000000000235,11.860529860009755510
0.391000000000000236,11.686535324021493309
0.392000000000000237,11.513792028454812311
0.393000000000000238,11.342310932023114134
0.394000000000000239,11.172102994716285096
0.395000000000000240,11.003179146966539648
0.396000000000000241,10.835550260184826143
0.397000000000000242,10.669227118653585862
0.398000000000000242,10.504220392760068137
0.399000000000000243,10.340540613552594351
0.400000000000000244,10.178198148600325013
0.401000000000000245,10.017203179135991675
0.402000000000000246,9.857565678459657477
0.403000000000000247,9.699295391579973113
0.404000000000000248,9.542401816068981191
0.405000000000000249,9.386894184105008421
0.406000000000000250,9.232781445677685994
0.407000000000000250,9.080072252928152565
0.408000000000000251,8.928774945597037771
0.409000000000000252,8.778897537552223795
0.410000000000000253,8.630447704367780304
0.411000000000000254,8.483432771925411231
0.412000000000000255,8.337859706009119520
0.413000000000000256,8.193735102863765718
0.414000000000000257,8.051065180688102174
0.415000000000000258,7.909855772032488908
0.416000000000000258,7.770112317071989239
0.417000000000000259,7.631839857724969534
0.418000000000000260,7.495043032588016629
0.419000000000000261,7.359726072657589491
0.420000000000000262,7.225892797809587265
0.421000000000000263,7.093546614007586015
0.422000000000000264,6.962690511211539146
0.423000000000000265,6.833327061958291537
0.424000000000000266,6.705458420586190016
0.425000000000000266,6.579086323076185572
0.426000000000000267,6.454212087482218863
0.427000000000000268,6.330836614924217898
0.428000000000000269,6.208960391117494204
0.429000000000000270,6.088583488412692368
0.430000000000000271,5.969705568321081124
0.431000000000000272,5.852325884500338304
0.432000000000000273,5.736443286176725387
0.433000000000000274,5.622056221979884860
0.434000000000000274,5.509162744167072745
0.435000000000000275,5.397760513214396205
0.436000000000000276,5.287846802752940611
0.437000000000000277,5.179418504828348091
0.438000000000000278,5.072472135463085507
0.439000000000000279,4.967003840501037715
0.440000000000000280,4.863009401714761815
0.441000000000000281,4.760484243156366979
0.442000000000000282,4.659423437733332563
0.443000000000000282,4.559821713991523140
0.444000000000000283,4.461673463087858060
0.445000000000000284,4.364972745935975063
0.446000000000000285,4.269713300508561460
0.447000000000000286,4.175888549280768913
0.448000000000000287,4.083491606799577234
0.449000000000000288,3.992515287364572174
0.450000000000000289,3.902952112806120422
0.451000000000000290,3.814794320347520973
0.452000000000000290,3.728033870538081551
0.453000000000000291,3.642662455244888520
0.454000000000000292,3.558671505691176407
0.455000000000000293,3.476052200530003411
0.456000000000000294,3.394795473942322506
0.457000000000000295,3.314892023748932104
0.458000000000000296,3.236332319526479040
0.459000000000000297,3.159106610717903330
0.460000000000000298,3.083204934728329683
0.461000000000000298,3.008617124997845060
0.462000000000000299,2.935332819042892005
0.463000000000000300,2.863341466458626083
0.464000000000000301,2.792632336874803833
0.465000000000000302,2.723194527858350256
0.466000000000000303,2.655016972755964044
0.467000000000000304,2.588088448470559300
0.468000000000000305,2.522397583165861157
0.469000000000000306,2.457932863893536712
0.470000000000000306,2.394682644137775096
0.471000000000000307,2.332635151272606233
0.472000000000000308,2.271778493927424591
0.473000000000000309,2.212100669256491514
0.474000000000000310,2.153589570108752405
0.475000000000000311,2.096232992094160696
0.476000000000000312,2.040018640543510564
0.477000000000000313,1.984934137358408179
0.478000000000000314,1.930967027749009857
0.479000000000000314,1.878104786856716446
0.480000000000000315,1.826334826259767841
0.481000000000000316,1.775644500359581102
0.482000000000000317,1.726021112646127564
0.483000000000000318,1.677451921840693583
0.484000000000000319,1.629924147914646015
0.485000000000000320,1.583424977983113990
0.486000000000000321,1.537941572072426100
0.487000000000000322,1.493461068760618460
0.488000000000000322,1.449970590690372152
0.489000000000000323,1.407457249953792511
0.490000000000000324,1.365908153348824428
0.491000000000000325,1.325310407507104937
0.492000000000000326,1.285651123893194248
0.493000000000000327,1.246917423675318215
0.494000000000000328,1.209096442467901156
0.495000000000000329,1.172175334946143010
0.496000000000000330,1.136141279333308329
0.497000000000000330,1.100981481761020619
0.498000000000000331,1.066683180503649853
0.499000000000000332,1.033233650087194810
0.500000000000000333,1.000620205273771601
0.501000000000000334,0.968830204922684013
0.502000000000000335,0.937851055728962435
0.503000000000000336,0.907670215840717942
0.504000000000000337,0.878275198356294085
0.505000000000000338,0.849653574702682102
0.506000000000000338,0.821792977896390608
0.507000000000000339,0.794681105688197720
0.508000000000000340,0.768305723593300294
0.509000000000000341,0.742654667808183566
0.510000000000000342,0.717715848015966551
0.511000000000000343,0.693477250081569241
0.512000000000000344,0.669926938638525704
0.513000000000000345,0.647053059568979738
0.514000000000000346,0.624843842378504433
0.515000000000000346,0.603287602467604267
0.516000000000000347,0.582372743301503015
0.517000000000000348,0.562087758480006916
0.518000000000000349,0.542421233709268868
0.519000000000000350,0.523361848677134534
0.520000000000000351,0.504898378834058081
0.521000000000000352,0.487019697081138403
0.522000000000000353,0.469714775367410575
0.523000000000000353,0.452972686197938734
0.524000000000000354,0.436782604054740176
0.525000000000000355,0.421133806732280125
0.526000000000000356,0.406015676589435270
0.527000000000000357,0.391417701719697975
0.528000000000000358,0.377329477041509598
0.529000000000000359,0.363740705310504286
0.530000000000000360,0.350641198055563430
0.531000000000000361,0.338020876440384976
0.532000000000000361,0.325869772052450712
0.533000000000000362,0.314178027621170475
0.534000000000000363,0.302935897666985254
0.535000000000000364,0.292133749083137328
0.536000000000000365,0.281762061651997964
0.537000000000000366,0.271811428497518270
0.538000000000000367,0.262272556475726559
0.539000000000000368,0.253136266504730922
0.540000000000000369,0.244393493836192632
0.541000000000000369,0.236035288269661525
0.542000000000000370,0.228052814311708263
0.543000000000000371,0.220437351281203814
0.544000000000000372,0.213180293362575990
0.545000000000000373,0.206273149608494771
0.546000000000000374,0.199707543893622108
0.547000000000000375,0.193475214820955227
0.548000000000000376,0.187568015582254832
0.549000000000000377,0.181977913774125588
0.550000000000000377,0.176696991171099549
0.551000000000000378,0.171717443457374497
0.552000000000000379,0.167031579918385270
0.553000000000000380,0.162631823093844302
0.554000000000000381,0.158510708393500843
0.555000000000000382,0.154660883676947580
0.556000000000000383,0.151075108798975594
0.557000000000000384,0.147746255121532000
0.558000000000000385,0.144667304993834539
0.559000000000000385,0.141831351201684525
0.560000000000000386,0.139231596387293655
0.561000000000000387,0.136861352440866724
0.562000000000000388,0.134714039865100277
0.563000000000000389,0.132783187113670292
0.564000000000000390,0.131062429905002054
0.565000000000000391,0.129545510512296930
0.566000000000000392,0.128226277030998120
0.567000000000000393,0.127098682624633363
0.568000000000000393,0.126156784750249107
0.569000000000000394,0.125394744364300093
0.570000000000000395,0.124806825110017436
0.571000000000000396,0.124387392487317519
0.572000000000000397,0.124130913006033877
0.573000000000000398,0.124031953323551922
0.574000000000000399,0.124085179367620840
0.575000000000000400,0.124285355445310580
0.576000000000000401,0.124627343338932883
0.577000000000000401,0.125106101389687113
0.578000000000000402,0.125716683569988275
0.579000000000000403,0.126454238545170711
0.580000000000000404,0.127314008725272598
0.581000000000000405,0.128291329307850810
0.582000000000000406,0.129381627312299879
0.583000000000000407,0.130580420606614483
0.584000000000000408,0.131883316927090821
0.585000000000000409,0.133286012891753708
0.586000000000000409,0.134784293008144263
0.587000000000000410,0.136374028675976422
0.588000000000000411,0.138051177185500251
0.589000000000000412,0.139811780711878109
0.590000000000000413,0.141651965306413108
0.591000000000000414,0.143567939885004797
0.592000000000000415,0.145555995214420503
0.593000000000000416,0.147612502896951658
0.594000000000000417,0.149733914353909092
0.595000000000000417,0.151916759808370438
0.596000000000000418,0.154157647267873066
0.597000000000000419,0.156453261507220359
0.598000000000000420,0.158800363052087806
0.599000000000000421,0.161195787163672805
0.600000000000000422,0.163636442824905026
0.601000000000000423,0.166119311728595231
0.602000000000000424,0.168641447267825928
0.603000000000000425,0.171199973529027855
0.604000000000000425,0.173792084288110438
0.605000000000000426,0.176415042009885364
0.606000000000000427,0.179066176851161052
0.607000000000000428,0.181742885667921572
0.608000000000000429,0.184442631026627529
0.609000000000000430,0.187162940220265306
0.610000000000000431,0.189901404289099851
0.611000000000000432,0.192655677046619900
0.612000000000000433,0.195423474110824835
0.613000000000000433,0.198202571941097583
0.614000000000000434,0.200990806880913864
0.615000000000000435,0.203786074206608964
0.616000000000000436,0.206586327182440327
