# Gypsum-011_CS-8898-AC
# h[nm],U(h)[kJ/mol]
0.149999999999999994,134.184770106095101028
0.150999999999999995,132.632687377820928987
0.151999999999999996,130.819681887839294632
0.152999999999999997,128.963360677928534415
0.153999999999999998,127.142950970365973262
0.154999999999999999,125.373612500243353907
0.156000000000000000,123.645961723214071526
0.157000000000000001,121.945369668344142156
0.158000000000000002,120.260027740242293248
0.159000000000000002,118.583187577829420434
0.160000000000000003,116.912708148972882327
0.161000000000000004,115.249634368766848525
0.162000000000000005,113.596682443471721058
0.163000000000000006,111.957014633062271969
0.164000000000000007,110.333415919211716982
0.165000000000000008,108.727849617084388001
0.166000000000000009,107.141312124912857939
0.167000000000000010,105.573893482948548694
0.168000000000000010,104.024958635886420666
0.169000000000000011,102.493381545240779928
0.170000000000000012,100.977783486089208509
0.171000000000000013,99.476744367908906952
0.172000000000000014,97.988970200787775866
0.173000000000000015,96.513410525387541838
0.174000000000000016,95.049326995741580504
0.175000000000000017,93.596318884047349229
0.176000000000000018,92.154313681330918939
0.177000000000000018,90.723531784538010925
0.178000000000000019,89.304433997211049245
0.179000000000000020,87.897659637987246128
0.180000000000000021,86.503961762521257128
0.181000000000000022,85.124144587379973359
0.182000000000000023,83.759006813945973136
0.183000000000000024,82.409293283899017979
0.184000000000000025,81.075656309324827475
0.185000000000000026,79.758627132176329155
0.186000000000000026,78.458597280139613872
0.187000000000000027,77.175809085323024306
0.188000000000000028,75.910354296829126497
0.189000000000000029,74.662179522535168985
0.190000000000000030,73.431097152798486150
0.191000000000000031,72.216800423933520392
0.192000000000000032,71.018881349144137971
0.193000000000000033,69.836850359079022610
0.194000000000000034,68.670156636492251323
0.195000000000000034,67.518208285990795048
0.196000000000000035,66.380391639884607002
0.197000000000000036,65.256089156723575684
0.198000000000000037,64.144695514522581448
0.199000000000000038,63.045631632173169123
0.200000000000000039,61.958356467929412759
0.201000000000000040,60.882376542181489754
0.202000000000000041,59.817253212982834043
0.203000000000000042,58.762607797664180964
0.204000000000000042,57.718124683511291551
0.205000000000000043,56.683552606378874827
0.206000000000000044,55.658704299897465262
0.207000000000000045,54.643454731308203520
0.208000000000000046,53.637738144612058022
0.209000000000000047,52.641544129250725348
0.210000000000000048,51.654912924432323962
0.211000000000000049,50.677930156822732499
0.212000000000000050,49.710721193831169273
0.213000000000000050,48.753445277161937099
0.214000000000000051,47.806289582554704509
0.215000000000000052,46.869463332425979729
0.216000000000000053,45.943192069041472791
0.217000000000000054,45.027712177361124191
0.218000000000000055,44.123265729160024762
0.219000000000000056,43.230095703698339094
0.220000000000000057,42.348441625264662491
0.221000000000000058,41.478535644460059473
0.222000000000000058,40.620599078164865148
0.223000000000000059,39.774839412743325795
0.224000000000000060,38.941447766152755605
0.225000000000000061,38.120596797168545322
0.226000000000000062,37.312439043828867113
0.227000000000000063,36.517105668342722424
0.228000000000000064,35.734705581982254330
0.229000000000000065,34.965324920778769524
0.230000000000000066,34.209026841050203416
0.231000000000000066,33.465851602787658692
0.232000000000000067,32.735816908614268073
0.233000000000000068,32.018918466294152836
0.234000000000000069,31.315130743518068357
0.235000000000000070,30.624407884833111382
0.236000000000000071,29.946684762038547234
0.237000000000000072,29.281878131060818049
0.238000000000000073,28.629887870186848886
0.239000000000000073,27.990598276516937659
0.240000000000000074,27.363879399545066207
0.241000000000000075,26.749588392847776674
0.242000000000000076,26.147570866921448385
0.243000000000000077,25.557662228226153189
0.244000000000000078,24.979688991445840429
0.245000000000000079,24.413470053840921281
0.246000000000000080,23.858817922336477579
0.247000000000000081,23.315539885643985940
0.248000000000000081,22.783439125252790802
0.249000000000000082,22.262315760542406906
0.250000000000000111,21.751967824557308262
0.251000000000000112,21.252192168152898688
0.252000000000000113,20.762785291265196008
0.253000000000000114,20.283544100984371994
0.254000000000000115,19.814266596923182817
0.255000000000000115,19.354752485076517132
0.256000000000000116,18.904803721969578589
0.257000000000000117,18.464224991398445752
0.258000000000000118,18.032824116485379307
0.259000000000000119,17.610412410106647485
0.260000000000000120,17.196804967012525367
0.261000000000000121,16.791820901153933221
0.262000000000000122,16.395283531862794746
0.263000000000000123,16.007020522613540692
0.264000000000000123,15.626863976123976485
0.265000000000000124,15.254650489543973180
0.266000000000000125,14.890221173433456414
0.267000000000000126,14.533421638154129241
0.268000000000000127,14.184101951194667990
0.269000000000000128,13.842116568824696543
0.270000000000000129,13.507324245329138890
0.271000000000000130,13.179587922917601617
0.272000000000000131,12.858774605236273914
0.273000000000000131,12.544755217234513367
0.274000000000000132,12.237404453958660611
0.275000000000000133,11.936600620663238459
0.276000000000000134,11.642225466446717519
0.277000000000000135,11.354164013438348135
0.278000000000000136,11.072304383383396953
0.279000000000000137,10.796537623300373809
0.280000000000000138,10.526757531715006166
0.281000000000000139,10.262860486812787286
0.282000000000000139,10.004745277696498462
0.283000000000000140,9.752312939786552448
0.284000000000000141,9.505466595261960805
0.285000000000000142,9.264111299307147718
0.286000000000000143,9.028153892806233927
0.287000000000000144,8.797502862010867730
0.288000000000000145,8.572068205600343660
0.289000000000000146,8.351761309454476034
0.290000000000000147,8.136494829368366766
0.291000000000000147,7.926182581856171971
0.292000000000000148,7.720739443115317791
0.293000000000000149,7.520081256155513927
0.294000000000000150,7.324124746036124733
0.295000000000000151,7.132787443101676672
0.296000000000000152,6.945987614058080517
0.297000000000000153,6.763644200690781538
0.298000000000000154,6.585676765990394976
0.299000000000000155,6.412005447421167403
0.300000000000000155,6.242550917042213321
0.301000000000000156,6.077234348170893696
0.302000000000000157,5.915977388260882819
0.303000000000000158,5.758702137655284048
0.304000000000000159,5.605331133865748328
0.305000000000000160,5.455787341023020431
0.306000000000000161,5.309994144141318984
0.307000000000000162,5.167875347838743139
0.308000000000000163,5.029355179158129019
0.309000000000000163,4.894358294136889498
0.310000000000000164,4.762809787780528659
0.311000000000000165,4.634635207102110854
0.312000000000000166,4.509760566899158718
0.313000000000000167,4.388112367949572601
0.314000000000000168,4.269617617319583225
0.315000000000000169,4.154203850488735306
0.316000000000000170,4.041799155009589306
0.317000000000000171,3.932332195433300370
0.318000000000000171,3.825732239245718258
0.319000000000000172,3.721929183572554756
0.320000000000000173,3.620853582426335038
0.321000000000000174,3.522436674281908431
0.322000000000000175,3.426610409781305044
0.323000000000000176,3.333307479382786376
0.324000000000000177,3.242461340782599510
0.325000000000000178,3.154006245951583853
0.326000000000000179,3.067877267641816008
0.327000000000000179,2.984010325231514660
0.328000000000000180,2.902342209788879579
0.329000000000000181,2.822810608247409370
0.330000000000000182,2.745354126597201461
0.331000000000000183,2.669912312007500343
0.332000000000000184,2.596425673806724621
0.333000000000000185,2.524835703256230524
0.334000000000000186,2.455084892063732482
0.335000000000000187,2.387116749591520648
0.336000000000000187,2.320875818723144413
0.337000000000000188,2.256307690360604745
0.338000000000000189,2.193359016531462480
0.339000000000000190,2.131977522092520339
0.340000000000000191,2.072112015023582110
0.341000000000000192,2.013712395310639280
0.342000000000000193,1.956729662423834171
0.343000000000000194,1.901115921400590381
0.344000000000000195,1.846824387549490298
0.345000000000000195,1.793809389794329689
0.346000000000000196,1.742026372682426327
0.347000000000000197,1.691431897084355374
0.348000000000000198,1.641983639615824497
0.349000000000000199,1.593640390815224128
0.350000000000000200,1.546362052112848717
0.351000000000000201,1.500109631630143436
0.352000000000000202,1.454845238849217903
0.353000000000000203,1.410532078194424832
0.354000000000000203,1.367134441569259673
0.355000000000000204,1.324617699892985723
0.356000000000000205,1.282948293682136365
0.357000000000000206,1.242093722722716009
0.358000000000000207,1.202022534879563676
0.359000000000000208,1.162704314089335167
0.360000000000000209,1.124109667583694572
0.361000000000000210,1.086210212389433050
0.362000000000000210,1.048978561151616251
0.363000000000000211,1.012388307325845060
0.364000000000000212,0.976414009784903891
0.365000000000000213,0.941031176884685960
0.366000000000000214,0.906216250033387460
0.367000000000000215,0.871946586807258783
0.368000000000000216,0.838200443655155114
0.369000000000000217,0.804956958233372655
0.370000000000000218,0.772196131410934572
0.371000000000000218,0.739898808984680634
0.372000000000000219,0.708046663142122723
0.373000000000000220,0.676622173708975816
0.374000000000000221,0.645608609217001805
0.375000000000000222,0.614990007826698659
0.376000000000000223,0.584751158137722937
0.377000000000000224,0.554877579919153874
0.378000000000000225,0.525355504789984051
0.379000000000000226,0.496171856879220552
0.380000000000000226,0.467314233493399178
0.381000000000000227,0.438770885818344614
0.382000000000000228,0.410530699680404509
0.383000000000000229,0.382583176391297242
0.384000000000000230,0.354918413699441992
0.385000000000000231,0.327527086869219108
0.386000000000000232,0.300400429908644351
0.387000000000000233,0.273530216964446293
0.388000000000000234,0.246908743902642225
0.389000000000000234,0.220528810091236871
0.390000000000000235,0.194383700400832554
0.391000000000000236,0.168467167437595405
0.392000000000000237,0.142773414022110412
0.393000000000000238,0.117297075926495034
0.394000000000000239,0.092033204881232816
0.395000000000000240,0.066977251862094495
0.396000000000000241,0.042125050666657858
0.397000000000000242,0.017472801788962534
0.398000000000000242,-0.006982943400042086
0.399000000000000243,-0.031245298159399092
0.400000000000000244,-0.055317055566442661
0.401000000000000245,-0.079200703381311049
0.402000000000000246,-0.102898438583094887
0.403000000000000247,-0.126412181574054705
0.404000000000000248,-0.149743590048724784
0.405000000000000249,-0.172894072525617920
0.406000000000000250,-0.195864801539680278
0.407000000000000250,-0.218656726494415754
0.408000000000000251,-0.241270586173025020
0.409000000000000252,-0.263706920908513776
0.410000000000000253,-0.285966084413233568
0.411000000000000254,-0.308048255268743798
0.412000000000000255,-0.329953448077363265
0.413000000000000256,-0.351681524277290825
0.414000000000000257,-0.373232202623342502
0.415000000000000258,-0.394605069336051884
0.416000000000000258,-0.415799587921870828
0.417000000000000259,-0.436815108667861829
0.418000000000000260,-0.457650877814311685
0.419000000000000261,-0.478306046409171404
0.420000000000000262,-0.498779678848312369
0.421000000000000263,-0.519070761106035561
0.422000000000000264,-0.539178208660203384
0.423000000000000265,-0.559100874116857050
0.424000000000000266,-0.578837554539197052
0.425000000000000266,-0.598386998485923804
0.426000000000000267,-0.617747912764249563
0.427000000000000268,-0.636918968902870475
0.428000000000000269,-0.655898809350347944
0.429000000000000270,-0.674686053404497388
0.430000000000000271,-0.693279302878367143
0.431000000000000272,-0.711677147508572694
0.432000000000000273,-0.729878170111702529
0.433000000000000274,-0.747880951494646729
0.434000000000000274,-0.765684075124692720
0.435000000000000275,-0.783286131565233079
0.436000000000000276,-0.800685722683013523
0.437000000000000277,-0.817881465632788740
0.438000000000000278,-0.834871996625265234
0.439000000000000279,-0.851655974484243239
0.440000000000000280,-0.868232083998771720
0.441000000000000281,-0.884599039076131577
0.442000000000000282,-0.900755585701527139
0.443000000000000282,-0.916700504710080466
0.444000000000000283,-0.932432614376982216
0.445000000000000284,-0.947950772831338662
0.446000000000000285,-0.963253880299317133
0.447000000000000286,-0.978340881182191757
0.448000000000000287,-0.993210765974603782
0.449000000000000288,-1.007862573028561082
0.450000000000000289,-1.022295390168369789
0.451000000000000290,-1.036508356161778277
0.452000000000000290,-1.050500662052497036
0.453000000000000291,-1.064271552359076667
0.454000000000000292,-1.077820326145195295
0.455000000000000293,-1.091146337966184321
0.456000000000000294,-1.104248998696596429
0.457000000000000295,-1.117127776243536541
0.458000000000000296,-1.129782196150294737
0.459000000000000297,-1.142211842094854823
0.460000000000000298,-1.154416356287646384
0.461000000000000298,-1.166395439772856646
0.462000000000000299,-1.178148852637532107
0.463000000000000300,-1.189676414132542437
0.464000000000000301,-1.200978002709485848
0.465000000000000302,-1.212053555977385511
0.466000000000000303,-1.222903070583037488
0.467000000000000304,-1.233526602018723661
0.468000000000000305,-1.243924264360882770
0.469000000000000306,-1.254096229943293173
0.470000000000000306,-1.264042728968209461
0.471000000000000307,-1.273764049058701886
0.472000000000000308,-1.283260534755532589
0.473000000000000309,-1.292532586961663954
0.474000000000000310,-1.301580662337407768
0.475000000000000311,-1.310405272649252328
0.476000000000000312,-1.319006984075148825
0.477000000000000313,-1.327386416469100716
0.478000000000000314,-1.335544242587652253
0.479000000000000314,-1.343481187280987310
0.480000000000000315,-1.351198026651017736
0.481000000000000316,-1.358695587179013398
0.482000000000000317,-1.365974744824998588
0.483000000000000318,-1.373036424101268027
0.484000000000000319,-1.379881597122143422
0.485000000000000320,-1.386511282632084008
0.486000000000000321,-1.392926545014199879
0.487000000000000322,-1.399128493281084351
0.488000000000000322,-1.405118280049816537
0.489000000000000323,-1.410897100503015089
0.490000000000000324,-1.416466191337591329
0.491000000000000325,-1.421826829702895090
0.492000000000000326,-1.426980332129839546
0.493000000000000327,-1.431928053452541372
0.494000000000000328,-1.436671385723917727
0.495000000000000329,-1.441211757126664272
0.496000000000000330,-1.445550630880895859
0.497000000000000330,-1.449689504149846542
0.498000000000000331,-1.453629906944654993
0.499000000000000332,-1.457373401029604665
0.500000000000000333,-1.460921578828803247
0.501000000000000334,-1.464276062335347683
0.502000000000000335,-1.467438502024057012
0.503000000000000336,-1.470410575768646977
0.504000000000000337,-1.473193987764302104
0.505000000000000338,-1.475790467456456367
0.506000000000000338,-1.478201768476615330
0.507000000000000339,-1.480429667585999143
0.508000000000000340,-1.482475963627648552
0.509000000000000341,-1.484342476487817919
0.510000000000000342,-1.486031046067110895
0.511000000000000343,-1.487543531262122354
0.512000000000000344,-1.488881808958030240
0.513000000000000345,-1.490047773032706413
0.514000000000000346,-1.491043333372881641
0.515000000000000346,-1.491870414902707553
0.516000000000000347,-1.492530956625226501
0.517000000000000348,-1.493026910677134556
0.518000000000000349,-1.493360241397126975
0.519000000000000350,-1.493532924408250251
0.520000000000000351,-1.493546945714457452
0.521000000000000352,-1.493404300811765228
0.522000000000000353,-1.493106993814120820
0.523000000000000353,-1.492657036594314368
0.524000000000000354,-1.492056447940078856
0.525000000000000355,-1.491307252725558641
0.526000000000000356,-1.490411481098297575
0.527000000000000357,-1.489371167681904140
0.528000000000000358,-1.488188350794456882
0.529000000000000359,-1.486865071682794248
0.530000000000000360,-1.485403373772697488
0.531000000000000361,-1.483805301935087417
0.532000000000000361,-1.482072901768225481
0.533000000000000362,-1.480208218895959771
0.534000000000000363,-1.478213298282000432
0.535000000000000364,-1.476090183560259561
0.536000000000000365,-1.473840916381165211
0.537000000000000366,-1.471467535773989699
0.538000000000000367,-1.468972077525036113
0.539000000000000368,-1.466356573571778954
0.540000000000000369,-1.463623051412687337
0.541000000000000369,-1.460773533532851776
0.542000000000000370,-1.457810036845127666
0.543000000000000371,-1.454734572146844318
0.544000000000000372,-1.451549143591874147
0.545000000000000373,-1.448255748177984081
0.546000000000000374,-1.444856375249310876
0.547000000000000375,-1.441353006013838201
0.548000000000000376,-1.437747613075740727
0.549000000000000377,-1.434042159982412690
0.550000000000000377,-1.430238600786064573
0.551000000000000378,-1.426338879619662325
0.552000000000000379,-1.422344930287135600
0.553000000000000380,-1.418258675867581475
0.554000000000000381,-1.414082028333323748
0.555000000000000382,-1.409816888181716577
0.556000000000000383,-1.405465144080341178
0.557000000000000384,-1.401028672525608254
0.558000000000000385,-1.396509337514386884
0.559000000000000385,-1.391908990228598597
0.560000000000000386,-1.387229468732517734
0.561000000000000387,-1.382472597682577797
0.562000000000000388,-1.377640188049490844
0.563000000000000389,-1.372734036852504946
0.564000000000000390,-1.367755926905529495
0.565000000000000391,-1.362707626574984010
0.566000000000000392,-1.357590889549119773
0.567000000000000393,-1.352407454618656635
0.568000000000000393,-1.347159045468449889
0.569000000000000394,-1.341847370480048207
0.570000000000000395,-1.336474122544919041
0.571000000000000396,-1.331040978888073933
0.572000000000000397,-1.325549600901995584
0.573000000000000398,-1.320001633990537604
0.574000000000000399,-1.314398707422683277
0.575000000000000400,-1.308742434195895310
0.576000000000000401,-1.303034410908874063
0.577000000000000401,-1.297276217643551499
0.578000000000000402,-1.291469417856038415
0.579000000000000403,-1.285615558276375303
0.580000000000000404,-1.279716168816922073
0.581000000000000405,-1.273772762489069121
0.582000000000000406,-1.267786835328208017
0.583000000000000407,-1.261759866326647384
0.584000000000000408,-1.255693317374373619
0.585000000000000409,-1.249588633207391108
0.586000000000000409,-1.243447241363483169
0.587000000000000410,-1.237270552145223190
0.588000000000000411,-1.231059958589980852
0.589000000000000412,-1.224816836446841029
0.590000000000000413,-1.218542544160136520
0.591000000000000414,-1.212238422859495568
0.592000000000000415,-1.205905796356218529
0.593000000000000416,-1.199545971145747458
0.594000000000000417,-1.193160236416105580
0.595000000000000417,-1.186749864062177862
0.596000000000000418,-1.180316108705502298
0.597000000000000419,-1.173860207719631621
0.598000000000000420,-1.167383381260675534
0.599000000000000421,-1.160886832303041682
0.600000000000000422,-1.154371746680101340
0.601000000000000423,-1.147839293129660376
0.602000000000000424,-1.141290623344100919
0.603000000000000425,-1.134726872025018984
0.604000000000000425,-1.128149156942185538
0.605000000000000426,-1.121558578996731947
0.606000000000000427,-1.114956222288417731
0.607000000000000428,-1.108343154186722135
0.608000000000000429,-1.101720425405850357
0.609000000000000430,-1.095089070083224980
0.610000000000000431,-1.088450105861615613
0.611000000000000432,-1.081804533974554783
0.612000000000000433,-1.075153339335015890
0.613000000000000433,-1.068497490627234869
0.614000000000000434,-1.061837940401495484
0.615000000000000435,-1.055175625171785203
