# Gypsum-011_CS-19489-AC
# h[nm],U(h)[kJ/mol]
0.149999999999999994,170.198330318333006517
0.150999999999999995,168.272781808209998644
0.151999999999999996,166.274839726684547259
0.152999999999999997,164.263334420443698036
0.153999999999999998,162.263960245018466821
0.154999999999999999,160.286064245434090481
0.156000000000000000,158.331613686427061793
0.157000000000000001,156.399701573948334499
0.158000000000000002,154.488613889246693134
0.159000000000000002,152.596642226675072607
0.160000000000000003,150.722307663672324907
0.161000000000000004,148.864350452912447054
0.162000000000000005,147.021659188312412425
0.163000000000000006,145.193212618082355903
0.164000000000000007,143.378055159920592132
0.165000000000000008,141.575303089698167014
0.166000000000000009,139.784169725698944831
0.167000000000000010,138.003997118420159040
0.168000000000000010,136.234284369727845387
0.169000000000000011,134.474706320288504457
0.170000000000000012,132.725119741896406822
0.171000000000000013,130.985556837478867465
0.172000000000000014,129.256207661876658221
0.173000000000000015,127.537394103488807673
0.174000000000000016,125.829538465980505180
0.175000000000000017,124.133129634903554006
0.176000000000000018,122.448689466787044466
0.177000000000000018,120.776741530344594366
0.178000000000000019,119.117783761334862902
0.179000000000000020,117.472266034772175658
0.180000000000000021,115.840573155666902494
0.181000000000000022,114.223013347208706136
0.182000000000000023,112.619811983307229752
0.183000000000000024,111.031110070245816246
0.184000000000000025,109.456966822764002245
0.185000000000000026,107.897365592178445581
0.186000000000000026,106.352222375486320516
0.187000000000000027,104.821396151834420607
0.188000000000000028,103.304700344084650965
0.189000000000000029,101.801914777591647976
0.190000000000000030,100.312797596470744566
0.191000000000000031,98.837096692009396293
0.192000000000000032,97.374560292548679286
0.193000000000000033,95.924946454715993127
0.194000000000000034,94.488031279236111004
0.195000000000000034,93.063615748704449970
0.196000000000000035,91.651531148601591781
0.197000000000000036,90.251643086110803438
0.198000000000000037,88.863854164152243698
0.199000000000000038,87.488105401048528620
0.200000000000000039,86.124376510227577342
0.201000000000000040,84.772685170347443773
0.202000000000000041,83.433085425273716851
0.203000000000000042,82.105665356544932365
0.204000000000000042,80.790544169380964945
0.205000000000000043,79.487868827920266313
0.206000000000000044,78.197810367115934582
0.207000000000000045,76.920559998386892175
0.208000000000000046,75.656325114409824550
0.209000000000000047,74.405325285943618496
0.210000000000000048,73.167788330801244001
0.211000000000000049,71.943946522422407952
0.212000000000000050,70.734032993269153167
0.213000000000000050,69.538278376708717587
0.214000000000000051,68.356907720331165024
0.215000000000000052,67.190137693889838033
0.216000000000000053,66.038174106318749068
0.217000000000000054,64.901209738594431542
0.218000000000000055,63.779422492570617464
0.219000000000000056,62.672973850287277742
0.220000000000000057,61.582007633592091622
0.221000000000000058,60.506649050152461200
0.222000000000000058,59.447004009000508518
0.223000000000000059,58.403158686570989744
0.224000000000000060,57.375179322675762705
0.225000000000000061,56.363112224932891081
0.226000000000000062,55.366983959750520228
0.227000000000000063,54.386801707982854737
0.228000000000000064,53.422553763757051115
0.229000000000000065,52.474210155646233034
0.230000000000000066,51.541723370282078065
0.231000000000000066,50.625029159596650175
0.232000000000000067,49.724047414121059774
0.233000000000000068,48.838683086092927965
0.234000000000000069,47.968827147508861231
0.235000000000000070,47.114357569665813230
0.236000000000000071,46.275140312139363630
0.237000000000000072,45.451030310527585243
0.238000000000000073,44.641872453626902484
0.239000000000000073,43.847502541988852443
0.240000000000000074,43.067748221017652099
0.241000000000000075,42.302429882909372338
0.242000000000000076,41.551361532788654074
0.243000000000000077,40.814351615372160609
0.244000000000000078,40.091203799375286110
0.245000000000000079,39.381717717679691759
0.246000000000000080,38.685689661997564315
0.247000000000000081,38.002913231403752548
0.248000000000000081,37.333179934665530197
0.249000000000000082,36.676279746783229996
0.250000000000000111,36.032001620568792077
0.251000000000000112,35.400133954438707917
0.252000000000000113,34.780465017885134671
0.253000000000000114,34.172783336324421555
0.254000000000000115,33.576878037203684357
0.255000000000000115,32.992539159385309233
0.256000000000000116,32.419557927925971796
0.257000000000000117,31.857726996428077371
0.258000000000000118,31.306840659171825791
0.259000000000000119,30.766695035237724198
0.260000000000000120,30.237088226807799174
0.261000000000000121,29.717820453792523239
0.262000000000000122,29.208694166871119080
0.263000000000000123,28.709514140961267969
0.264000000000000123,28.220087551049715557
0.265000000000000124,27.740224032223874673
0.266000000000000125,27.269735725644959956
0.267000000000000126,26.808437312100533489
0.268000000000000127,26.356146034667666811
0.269000000000000128,25.912681711911169202
0.270000000000000129,25.477866742933667155
0.271000000000000130,25.051526105488221674
0.272000000000000131,24.633487348260246108
0.273000000000000131,24.223580578324209966
0.274000000000000132,23.821638444683220115
0.275000000000000133,23.427496118705789740
0.276000000000000134,23.040991272185117111
0.277000000000000135,22.661964053662099872
0.278000000000000136,22.290257063573697849
0.279000000000000137,21.925715328713877739
0.280000000000000138,21.568186276425912240
0.281000000000000139,21.217519708879954976
0.282000000000000139,20.873567777731665274
0.283000000000000140,20.536184959403364303
0.284000000000000141,20.205228031180258341
0.285000000000000142,19.880556048270044300
0.286000000000000143,19.562030321933981725
0.287000000000000144,19.249514398762521239
0.288000000000000145,18.942874041136327889
0.289000000000000146,18.641977208886771677
0.290000000000000147,18.346694042144910952
0.291000000000000147,18.056896845348244796
0.292000000000000148,17.772460072356007998
0.293000000000000149,17.493260312610054541
0.294000000000000150,17.219176278265418745
0.295000000000000151,16.950088792205754373
0.296000000000000152,16.685880776851028884
0.297000000000000153,16.426437243659670173
0.298000000000000154,16.171645283223718081
0.299000000000000155,15.921394055853477667
0.300000000000000155,15.675574782547652575
0.301000000000000156,15.434080736245906706
0.302000000000000157,15.196807233261939274
0.303000000000000158,14.963651624798677275
0.304000000000000159,14.734513288450168389
0.305000000000000160,14.509293619599233693
0.306000000000000161,14.287896022624778425
0.307000000000000162,14.070225901837602578
0.308000000000000163,13.856190652069534153
0.309000000000000163,13.645699648846340679
0.310000000000000164,13.438664238080878732
0.311000000000000165,13.234997725229248999
0.312000000000000166,13.034615363858799597
0.313000000000000167,12.837434343583092655
0.314000000000000168,12.643373777324905305
0.315000000000000169,12.452354687874644057
0.316000000000000170,12.264299993717003190
0.317000000000000171,12.079134494104776465
0.318000000000000171,11.896784853364033907
0.319000000000000172,11.717179584419993077
0.320000000000000173,11.540249031538182933
0.321000000000000174,11.365925352280108029
0.322000000000000175,11.194142498676994180
0.323000000000000176,11.024836197629545254
0.324000000000000177,10.857943930545422617
0.325000000000000178,10.693404912229855341
0.326000000000000179,10.531160069047970751
0.327000000000000179,10.371152016380644767
0.328000000000000180,10.213325035398316487
0.329000000000000181,10.057625049179632626
0.330000000000000182,9.903999598204201504
0.331000000000000183,9.752397815250365198
0.332000000000000184,9.602770399730859552
0.333000000000000185,9.455069591500627979
0.334000000000000186,9.309249144172046186
0.335000000000000187,9.165264297974115237
0.336000000000000187,9.023071752192640460
0.337000000000000188,8.882629637229401354
0.338000000000000189,8.743897486318166656
0.339000000000000190,8.606836206936034017
0.340000000000000191,8.471408051948531082
0.341000000000000192,8.337576590526657228
0.342000000000000193,8.205306678873913739
0.343000000000000194,8.074564430800878156
0.344000000000000195,7.945317188184660040
0.345000000000000195,7.817533491349401231
0.346000000000000196,7.691183049403925054
0.347000000000000197,7.566236710571234703
0.348000000000000198,7.442666432544126742
0.349000000000000199,7.320445252899911104
0.350000000000000200,7.199547259606386085
0.351000000000000201,7.079947561649990284
0.352000000000000202,6.961622259816133251
0.353000000000000203,6.844548417650282879
0.354000000000000203,6.728704032627346621
0.355000000000000204,6.614068007555717443
0.356000000000000205,6.500620122240929888
0.357000000000000206,6.388341005432648601
0.358000000000000207,6.277212107077671632
0.359000000000000208,6.167215670900089819
0.360000000000000209,6.058334707328464575
0.361000000000000210,5.950552966789019571
0.362000000000000210,5.843854913381981930
0.363000000000000211,5.738225698957544196
0.364000000000000212,5.633651137606284109
0.365000000000000213,5.530117680577903094
0.366000000000000214,5.427612391640894707
0.367000000000000215,5.326122922894604095
0.368000000000000216,5.225637491043908511
0.369000000000000217,5.126144854145907814
0.370000000000000218,5.027634288836604348
0.371000000000000218,4.930095568044851717
0.372000000000000219,4.833518939199534792
0.373000000000000220,4.737895102935175018
0.374000000000000221,4.643215192300133687
0.375000000000000222,4.549470752470843316
0.376000000000000223,4.456653720974175670
0.377000000000000224,4.364756408419852463
0.378000000000000225,4.273771479743523116
0.379000000000000226,4.183691935960608177
0.380000000000000226,4.094511096430105468
0.381000000000000227,4.006222581627151946
0.382000000000000228,3.918820296422136806
0.383000000000000229,3.832298413863789222
0.384000000000000230,3.746651359463040620
0.385000000000000231,3.661873795973708212
0.386000000000000232,3.577960608665915920
0.387000000000000233,3.494906891087226519
0.388000000000000234,3.412707931306434794
0.389000000000000234,3.331359198634200602
0.390000000000000235,3.250856330814554607
0.391000000000000236,3.171195121680814299
0.392000000000000237,3.092371509269137952
0.393000000000000238,3.014381564382693668
0.394000000000000239,2.937221479599066321
0.395000000000000240,2.860887558713320011
0.396000000000000241,2.785376206608897398
0.397000000000000242,2.710683919548307230
0.398000000000000242,2.636807275875398648
0.399000000000000243,2.563742927120911563
0.400000000000000244,2.491487589502685562
0.401000000000000245,2.420038035811965305
0.402000000000000246,2.349391087677179968
0.403000000000000247,2.279543608196184401
0.404000000000000248,2.210492494928302243
0.405000000000000249,2.142234673237145781
0.406000000000000250,2.074767089975369849
0.407000000000000250,2.008086707502322987
0.408000000000000251,1.942190498025719636
0.409000000000000252,1.877075438258386741
0.410000000000000253,1.812738504381156801
0.411000000000000254,1.749176667303071087
0.412000000000000255,1.686386888210106294
0.413000000000000256,1.624366114393565486
0.414000000000000257,1.563111275349622797
0.415000000000000258,1.502619279141214959
0.416000000000000258,1.442887009013976041
0.417000000000000259,1.383911320257606992
0.418000000000000260,1.325689037304537354
0.419000000000000261,1.268216951057502095
0.420000000000000262,1.211491816438128089
0.421000000000000263,1.155510350148360788
0.422000000000000264,1.100269228637118513
0.423000000000000265,1.045765086264263122
0.424000000000000266,0.991994513654397503
0.425000000000000266,0.938954056233115120
0.426000000000000267,0.886640212938274552
0.427000000000000268,0.835049435099253001
0.428000000000000269,0.784178125477164145
0.429000000000000270,0.734022637459124550
0.430000000000000271,0.684579274399960469
0.431000000000000272,0.635844289104713467
0.432000000000000273,0.587813883445626906
0.433000000000000274,0.540484208107326447
0.434000000000000274,0.493851362454088172
0.435000000000000275,0.447911394513341332
0.436000000000000276,0.402660301069521886
0.437000000000000277,0.358094027862731923
0.438000000000000278,0.314208469886704200
0.439000000000000279,0.270999471780727363
0.440000000000000280,0.228462828310405541
0.441000000000000281,0.186594284932246696
0.442000000000000282,0.145389538437105392
0.443000000000000282,0.104844237667935714
0.444000000000000283,0.064953984307098311
0.445000000000000284,0.025714333728937035
0.446000000000000285,-0.012879204086724183
0.447000000000000286,-0.050831163584355334
0.448000000000000287,-0.088146122609638902
0.449000000000000288,-0.124828701337556053
0.450000000000000289,-0.160883561155248322
0.451000000000000290,-0.196315403503317304
0.452000000000000290,-0.231128968679070151
0.453000000000000291,-0.265329034604943614
0.454000000000000292,-0.298920415565441855
0.455000000000000293,-0.331907960915620304
0.456000000000000294,-0.364296553764089315
0.457000000000000295,-0.396091109633464611
0.458000000000000296,-0.427296575100887754
0.459000000000000297,-0.457917926421379295
0.460000000000000298,-0.487960168136442607
0.461000000000000298,-0.517428331670392150
0.462000000000000299,-0.546327473916706330
0.463000000000000300,-0.574662675816559276
0.464000000000000301,-0.602439040931738612
0.465000000000000302,-0.629661694013856077
0.466000000000000303,-0.656335779571827871
0.467000000000000304,-0.682466460439466460
0.468000000000000305,-0.708058916344829425
0.469000000000000306,-0.733118342483060959
0.470000000000000306,-0.757649948094302639
0.471000000000000307,-0.781658955048029291
0.472000000000000308,-0.805150596435363797
0.473000000000000309,-0.828130115170622516
0.474000000000000310,-0.850602762603324125
0.475000000000000311,-0.872573797141915741
0.476000000000000312,-0.894048482890219431
0.477000000000000313,-0.915032088297792812
0.478000000000000314,-0.935529884824988778
0.479000000000000314,-0.955547145623824035
0.480000000000000315,-0.975089144235347982
0.481000000000000316,-0.994161153304429113
0.482000000000000317,-1.012768443312600297
0.483000000000000318,-1.030916281329718132
0.484000000000000319,-1.048609929785034200
0.485000000000000320,-1.065854645258232258
0.486000000000000321,-1.082655677291037621
0.487000000000000322,-1.099018267219819212
0.488000000000000322,-1.114947647029601363
0.489000000000000323,-1.130449038229982772
0.490000000000000324,-1.145527650753216387
0.491000000000000325,-1.160188681874810612
0.492000000000000326,-1.174437315156902972
0.493000000000000327,-1.188278719414699980
0.494000000000000328,-1.201718047706084036
0.495000000000000329,-1.214760436344711980
0.496000000000000330,-1.227411003936528022
0.497000000000000330,-1.239674850440089404
0.498000000000000331,-1.251557056250434785
0.499000000000000332,-1.263062681306867274
0.500000000000000333,-1.274196764224506229
0.501000000000000334,-1.284964321449578506
0.502000000000000335,-1.295370346438569964
0.503000000000000336,-1.305419808861039144
0.504000000000000337,-1.315117653826140875
0.505000000000000338,-1.324468801132669515
0.506000000000000338,-1.333478144542599830
0.507000000000000339,-1.342150551077950116
0.508000000000000340,-1.350490860340792576
0.509000000000000341,-1.358503883856380545
0.510000000000000342,-1.366194404439012855
0.511000000000000343,-1.373567175580668875
0.512000000000000344,-1.380626920862001006
0.513000000000000345,-1.387378333385610674
0.514000000000000346,-1.393826075231365369
0.515000000000000346,-1.399974776933416099
0.516000000000000347,-1.405829036978772706
0.517000000000000348,-1.411393421327150621
0.518000000000000349,-1.416672462951772182
0.519000000000000350,-1.421670661400930458
0.520000000000000351,-1.426392482379915672
0.521000000000000352,-1.430842357353180549
0.522000000000000353,-1.435024683166239212
0.523000000000000353,-1.438943821687195257
0.524000000000000354,-1.442604099467460266
0.525000000000000355,-1.446009807421409832
0.526000000000000356,-1.449165200524623831
0.527000000000000357,-1.452074497530446040
0.528000000000000358,-1.454741880704478296
0.529000000000000359,-1.457171495576748299
0.530000000000000360,-1.459367450711133163
0.531000000000000361,-1.461333817491821119
0.532000000000000361,-1.463074629926398584
0.533000000000000362,-1.464593884465265727
0.534000000000000363,-1.465895539837020367
0.535000000000000364,-1.466983516899542428
0.536000000000000365,-1.467861698506347512
0.537000000000000366,-1.468533929387998871
0.538000000000000367,-1.469004016048081951
0.539000000000000368,-1.469275726673637816
0.540000000000000369,-1.469352791059475694
0.541000000000000369,-1.469238900546264048
0.542000000000000370,-1.468937707971873285
0.543000000000000371,-1.468452827635820634
0.544000000000000372,-1.467787835276366248
0.545000000000000373,-1.466946268060020930
0.546000000000000374,-1.465931624583103998
0.547000000000000375,-1.464747364885037317
0.548000000000000376,-1.463396910473108603
0.549000000000000377,-1.461883644358331180
0.550000000000000377,-1.460210911102159503
0.551000000000000378,-1.458382016873666087
0.552000000000000379,-1.456400229517018197
0.553000000000000380,-1.454268778628807768
0.554000000000000381,-1.451990855645022283
0.555000000000000382,-1.449569613937426116
0.556000000000000383,-1.447008168918876958
0.557000000000000384,-1.444309598157547336
0.558000000000000385,-1.441476941499533426
0.559000000000000385,-1.438513201199750124
0.560000000000000386,-1.435421342060769101
0.561000000000000387,-1.432204291579340483
0.562000000000000388,-1.428864940100310621
0.563000000000000389,-1.425406140977773184
0.564000000000000390,-1.421830710743076098
0.565000000000000391,-1.418141429279519361
0.566000000000000392,-1.414341040003467720
0.567000000000000393,-1.410432250051664393
0.568000000000000393,-1.406417730474450289
0.569000000000000394,-1.402300116434710864
0.570000000000000395,-1.398082007412341898
0.571000000000000396,-1.393765967413891804
0.572000000000000397,-1.389354525187341816
0.573000000000000398,-1.384850174441624393
0.574000000000000399,-1.380255374070825436
0.575000000000000400,-1.375572548382734128
0.576000000000000401,-1.370804087331615406
0.577000000000000401,-1.365952346755026747
0.578000000000000402,-1.361019648614386401
0.579000000000000403,-1.356008281239173163
0.580000000000000404,-1.350920499574617129
0.581000000000000405,-1.345758525432547259
0.582000000000000406,-1.340524547745412409
0.583000000000000407,-1.335220722823108108
0.584000000000000408,-1.329849174612613094
0.585000000000000409,-1.324411994960139616
0.586000000000000409,-1.318911243875686923
0.587000000000000410,-1.313348949799885368
0.588000000000000411,-1.307727109872843574
0.589000000000000412,-1.302047690205038188
0.590000000000000413,-1.296312626149894953
0.591000000000000414,-1.290523822578072410
0.592000000000000415,-1.284683154153263507
0.593000000000000416,-1.278792465609320583
0.594000000000000417,-1.272853572028629809
0.595000000000000417,-1.266868259121674445
0.596000000000000418,-1.260838283507432100
0.597000000000000419,-1.254765372994797179
0.598000000000000420,-1.248651226864607944
0.599000000000000421,-1.242497516152405224
0.600000000000000422,-1.236305883931645422
0.601000000000000423,-1.230077945597322753
0.602000000000000424,-1.223815289149927654
0.603000000000000425,-1.217519475479586166
0.604000000000000425,-1.211192038650263481
0.605000000000000426,-1.204834486184012121
0.606000000000000427,-1.198448299345141077
0.607000000000000428,-1.192034933424096277
0.608000000000000429,-1.185595818021244474
0.609000000000000430,-1.179132357330106684
0.610000000000000431,-1.172645930420310290
0.611000000000000432,-1.166137891519934744
0.612000000000000433,-1.159609570297267078
0.613000000000000433,-1.153062272141930800
0.614000000000000434,-1.146497278445232082
