# Gypsum-011_CS-13854944-AC
# h[nm],U(h)[kJ/mol]
0.149999999999999994,185.680454618315337711
0.150999999999999995,182.872987407186002429
0.151999999999999996,180.508970797329027391
0.152999999999999997,178.267773159695366303
0.153999999999999998,176.023947234260504047
0.154999999999999999,173.748276589180363771
0.156000000000000000,171.452121951409793610
0.157000000000000001,169.158190227757302182
0.158000000000000002,166.886858732861753651
0.159000000000000002,164.651202605888244079
0.160000000000000003,162.456521033469044824
0.161000000000000004,160.301875546790654425
0.162000000000000005,158.182245541888448770
0.163000000000000006,156.090582194220331758
0.164000000000000007,154.019445772304948150
0.165000000000000008,151.962140399506637323
0.166000000000000009,149.913379846606375168
0.167000000000000010,147.869571106071163058
0.168000000000000010,145.828817327516929936
0.169000000000000011,143.790735985621012105
0.170000000000000012,141.756172883828497788
0.171000000000000013,139.726874259239650655
0.172000000000000014,137.705161442866540256
0.173000000000000015,135.693637024603845020
0.174000000000000016,133.694938951909136904
0.175000000000000017,131.711549500257603995
0.176000000000000018,129.745659303239847304
0.177000000000000018,127.799082184605637735
0.178000000000000019,125.873213920922353282
0.179000000000000020,123.969026834325433128
0.180000000000000021,122.087091878482695506
0.181000000000000022,120.227620313069195390
0.182000000000000023,118.390517906051513819
0.183000000000000024,116.575445663995040491
0.184000000000000025,114.781882226708304984
0.185000000000000026,113.009184175899804359
0.186000000000000026,111.256641534940541760
0.187000000000000027,109.523526641689812777
0.188000000000000028,107.809135341663733243
0.189000000000000029,106.112820071553500156
0.190000000000000030,104.434014889523183456
0.191000000000000031,102.772252870974710959
0.192000000000000032,101.127176541901803830
0.193000000000000033,99.498542183168694919
0.194000000000000034,97.886218924624628812
0.195000000000000034,96.290183573516884508
0.196000000000000035,94.710512101366077786
0.197000000000000036,93.147368659729153251
0.198000000000000037,91.600992918668637799
0.199000000000000038,90.071686431029007736
0.200000000000000039,88.559798627852416075
0.201000000000000040,87.065712950957475869
0.202000000000000041,85.589833532025821228
0.203000000000000042,84.132572736492107879
0.204000000000000042,82.694339807149461308
0.205000000000000043,81.275530767902722573
0.206000000000000044,79.876519683137217953
0.207000000000000045,78.497651312834491932
0.208000000000000046,77.139235157611409477
0.209000000000000047,75.801540850766784274
0.210000000000000048,74.484794825493310100
0.211000000000000049,73.189178163852815828
0.212000000000000050,71.914825519047482771
0.213000000000000050,70.661824993089652480
0.214000000000000051,69.430218847310825936
0.215000000000000052,68.220004922455089513
0.216000000000000053,67.031138647614397996
0.217000000000000054,65.863535522300892922
0.218000000000000055,64.717073962900968809
0.219000000000000056,63.591598413083247010
0.220000000000000057,62.486922626967313477
0.221000000000000058,61.402833043621185993
0.222000000000000058,60.339092181400005188
0.223000000000000059,59.295441990514767383
0.224000000000000060,58.271607111805238333
0.225000000000000061,57.267297998826293792
0.226000000000000062,56.282213868920770494
0.227000000000000063,55.316045456856649309
0.228000000000000064,54.368477551803195524
0.229000000000000065,53.439191304876501931
0.230000000000000066,52.527866300198731153
0.231000000000000066,51.634182387394240266
0.232000000000000067,50.757821277716558939
0.233000000000000068,49.898467909597059133
0.234000000000000069,49.055811592370346830
0.235000000000000070,48.229546939313152620
0.236000000000000071,47.419374602979743827
0.237000000000000072,46.625001827182074976
0.238000000000000073,45.846142830898813259
0.239000000000000073,45.082519039955258222
0.240000000000000074,44.333859182542951771
0.241000000000000075,43.599899264595258330
0.242000000000000076,42.880382440742877748
0.243000000000000077,42.175058796083462198
0.244000000000000078,41.483685053351983640
0.245000000000000079,40.806024219301946232
0.246000000000000080,40.141845183240242534
0.247000000000000081,39.490922279718297716
0.248000000000000081,38.853034826401767532
0.249000000000000082,38.227966647135851019
0.250000000000000111,37.615505589212204995
0.251000000000000112,37.015443042843628518
0.252000000000000113,36.427573469873152590
0.253000000000000114,35.851693947800306717
0.254000000000000115,35.287603734301612235
0.255000000000000115,34.735103856566190927
0.256000000000000116,34.193996728962680720
0.257000000000000117,33.664085801804468190
0.258000000000000118,33.145175243289962452
0.259000000000000119,32.637069656061399314
0.260000000000000120,32.139573829252491066
0.261000000000000121,31.652492526379784721
0.262000000000000122,31.175630308973609317
0.263000000000000123,30.708791395440613314
0.264000000000000123,30.251779554298281028
0.265000000000000124,29.804398030620063764
0.266000000000000125,29.366449504275067284
0.267000000000000126,28.937736078335341006
0.268000000000000127,28.518059295853369406
0.269000000000000128,28.107220183080197984
0.270000000000000129,27.705019317096088116
0.271000000000000130,27.311256915758242769
0.272000000000000131,26.925732947831782838
0.273000000000000131,26.548247261155712096
0.274000000000000132,26.178599726704426587
0.275000000000000133,25.816590396433003463
0.276000000000000134,25.462019672839680595
0.277000000000000135,25.114688488238350317
0.278000000000000136,24.774398491805698086
0.279000000000000137,24.440952242549478513
0.280000000000000138,24.114153406435118399
0.281000000000000139,23.793806956004196707
0.282000000000000139,23.479719370920243193
0.283000000000000140,23.171698837982578567
0.284000000000000141,22.869555449255980051
0.285000000000000142,22.573101397072445451
0.286000000000000143,22.282151164769221197
0.287000000000000144,21.996521712135084670
0.288000000000000145,21.716032654641491462
0.289000000000000146,21.440506435639267835
0.290000000000000147,21.169768490800606742
0.291000000000000147,20.903647404183441694
0.292000000000000148,20.641975055387273841
0.293000000000000149,20.384586757358622577
0.294000000000000150,20.131321384487762316
0.295000000000000151,19.882021490717971091
0.296000000000000152,19.636533417463191142
0.297000000000000153,19.394707391199677460
0.298000000000000154,19.156397610662260433
0.299000000000000155,18.921462323635896752
0.300000000000000155,18.689763893388484206
0.301000000000000156,18.461168854841794484
0.302000000000000157,18.235547960623080144
0.303000000000000158,18.012776217181787786
0.304000000000000159,17.792732911193098744
0.305000000000000160,17.575301626502909613
0.306000000000000161,17.360370251898448402
0.307000000000000162,17.147830980013758051
0.308000000000000163,16.937580297701295251
0.309000000000000163,16.729518968219302621
0.310000000000000164,16.523552005599768222
0.311000000000000165,16.319588641573979260
0.312000000000000166,16.117542285442219452
0.313000000000000167,15.917330477280859924
0.314000000000000168,15.718874834884564606
0.315000000000000169,15.522100994843484045
0.316000000000000170,15.326938548155428776
0.317000000000000171,15.133320970771260150
0.318000000000000171,14.941185549468565696
0.319000000000000172,14.750473303443195405
0.320000000000000173,14.561128902002561603
0.321000000000000174,14.373100578736517363
0.322000000000000175,14.186340042533370109
0.323000000000000176,14.000802385798744254
0.324000000000000177,13.816445990224755391
0.325000000000000178,13.633232430445897165
0.326000000000000179,13.451126375906113708
0.327000000000000179,13.270095491249648489
0.328000000000000180,13.090110335535493746
0.329000000000000181,12.911144260562437580
0.330000000000000182,12.733173308578695782
0.331000000000000183,12.556176109636705718
0.332000000000000184,12.380133778840598069
0.333000000000000185,12.205029813720365439
0.334000000000000186,12.030849991953562750
0.335000000000000187,11.857582269642239936
0.336000000000000187,11.685216680339678419
0.337000000000000188,11.513745235008949308
0.338000000000000189,11.343161823082448691
0.339000000000000190,11.173462114779290744
0.340000000000000191,11.004643464825669241
0.341000000000000192,10.836704817711275695
0.342000000000000193,10.669646614603573553
0.343000000000000194,10.503470702030734074
0.344000000000000195,10.338180242433583800
0.345000000000000195,10.173779626676104471
0.346000000000000196,10.010274388594783801
0.347000000000000197,9.847671121657210591
0.348000000000000198,9.685977397791344146
0.349000000000000199,9.525201688438288627
0.350000000000000200,9.365353287873043442
0.351000000000000201,9.206442238829785296
0.352000000000000202,9.048479260460975837
0.353000000000000203,8.891475678652280834
0.354000000000000203,8.735443358708705475
0.355000000000000204,8.580394640421163288
0.356000000000000205,8.426342275516599756
0.357000000000000206,8.273299367489235223
0.358000000000000207,8.121279313805578326
0.359000000000000208,7.970295750470723029
0.360000000000000209,7.820362498938939311
0.361000000000000210,7.671493515347791003
0.362000000000000210,7.523702842050570716
0.363000000000000211,7.377004561418847750
0.364000000000000212,7.231412751883328660
0.365000000000000213,7.086941446178390613
0.366000000000000214,6.943604591752992050
0.367000000000000215,6.801416013308251074
0.368000000000000216,6.660389377419534185
0.369000000000000217,6.520538159199534611
0.370000000000000218,6.381875610956403655
0.371000000000000218,6.244414732800198209
0.372000000000000219,6.108168245149017572
0.373000000000000220,5.973148563085508123
0.374000000000000221,5.839367772513369914
0.375000000000000222,5.706837608062851785
0.376000000000000223,5.575569432693322725
0.377000000000000224,5.445574218941144906
0.378000000000000225,5.316862531760259358
0.379000000000000226,5.189444512903181206
0.380000000000000226,5.063329866789669786
0.381000000000000227,4.938527847810902927
0.382000000000000228,4.815047249016811470
0.383000000000000229,4.692896392134732864
0.384000000000000230,4.572083118867970697
0.385000000000000231,4.452614783423149092
0.386000000000000232,4.334498246216123007
0.387000000000000233,4.217739868706479989
0.388000000000000234,4.102345509311787985
0.389000000000000234,3.988320520353099141
0.390000000000000235,3.875669745984354542
0.391000000000000236,3.764397521059051677
0.392000000000000237,3.654507670888486270
0.393000000000000238,3.546003511846767431
0.394000000000000239,3.438887852778944598
0.395000000000000240,3.333162997169373476
0.396000000000000241,3.228830746028680920
0.397000000000000242,3.125892401458595593
0.398000000000000242,3.024348770855051161
0.399000000000000243,2.924200171711117235
0.400000000000000244,2.825446436982184117
0.401000000000000245,2.728086920977134788
0.402000000000000246,2.632120505740391359
0.403000000000000247,2.537545607890437704
0.404000000000000248,2.444360185882056946
0.405000000000000249,2.352561747660163682
0.406000000000000250,2.262147358674510222
0.407000000000000250,2.173113650225433791
0.408000000000000251,2.085456828111963201
0.409000000000000252,1.999172681554729269
0.410000000000000253,1.914256592367001186
0.411000000000000254,1.830703544348394329
0.412000000000000255,1.748508132876731569
0.413000000000000256,1.667664574674429856
0.414000000000000257,1.588166717727087285
0.415000000000000258,1.510008051332456969
0.416000000000000258,1.433181716259460448
0.417000000000000259,1.357680514997323673
0.418000000000000260,1.283496922076260427
0.419000000000000261,1.210623094441637404
0.420000000000000262,1.139050881864787979
0.421000000000000263,1.068771837374087541
0.422000000000000264,0.999777227691213355
0.423000000000000265,0.932058043657767343
0.424000000000000266,0.865605010638668793
0.425000000000000266,0.800408598889276512
0.426000000000000267,0.736459033873917202
0.427000000000000268,0.673746306524302230
0.428000000000000269,0.612260183426972526
0.429000000000000270,0.551990216929519217
0.430000000000000271,0.492925755156100209
0.431000000000000272,0.435055951923229878
0.432000000000000273,0.378369776547632430
0.433000000000000274,0.322856023538326597
0.434000000000000274,0.268503322165765002
0.435000000000000275,0.215300145901495876
0.436000000000000276,0.163234821722073847
0.437000000000000277,0.112295539271729528
0.438000000000000278,0.062470359878615565
0.439000000000000279,0.013747225419940213
0.440000000000000280,-0.033886032968226308
0.441000000000000281,-0.080441686340209942
0.442000000000000282,-0.125932099552629490
0.443000000000000282,-0.170369723041700921
0.444000000000000283,-0.213767084768811039
0.445000000000000284,-0.256136782336483182
0.446000000000000285,-0.297491475276733641
0.447000000000000286,-0.337843877513507695
0.448000000000000287,-0.377206750000339874
0.449000000000000288,-0.415592893534457553
0.450000000000000289,-0.453015141747907024
0.451000000000000290,-0.489486354276253199
0.452000000000000290,-0.525019410105133866
0.453000000000000291,-0.559627201094527349
0.454000000000000292,-0.593322625680635651
0.455000000000000293,-0.626118582754873754
0.456000000000000294,-0.658027965719318542
0.457000000000000295,-0.689063656717872841
0.458000000000000296,-0.719238521042004697
0.459000000000000297,-0.748565401710048706
0.460000000000000298,-0.777057114218620226
0.461000000000000298,-0.804726441464769460
0.462000000000000299,-0.831586128837221827
0.463000000000000300,-0.857648879474990578
0.464000000000000301,-0.882927349691546071
0.465000000000000302,-0.907434144562568101
0.466000000000000303,-0.931181813675223680
0.467000000000000304,-0.954182847036903481
0.468000000000000305,-0.976449671141077835
0.469000000000000306,-0.997994645188066798
0.470000000000000306,-1.018830057458383287
0.471000000000000307,-1.038968121836064018
0.472000000000000308,-1.058420974479684640
0.473000000000000309,-1.077200670638452040
0.474000000000000310,-1.095319181610723502
0.475000000000000311,-1.112788391842476576
0.476000000000000312,-1.129620096162942566
0.477000000000000313,-1.145825997154852116
0.478000000000000314,-1.161417702656450057
0.479000000000000314,-1.176406723392708242
0.480000000000000315,-1.190804470732865328
0.481000000000000316,-1.204622254571662054
0.482000000000000317,-1.217871281331419642
0.483000000000000318,-1.230562652082294095
0.484000000000000319,-1.242707360777889347
0.485000000000000320,-1.254316292603495642
0.486000000000000321,-1.265400222434243993
0.487000000000000322,-1.275969813400405606
0.488000000000000322,-1.286035615557071576
0.489000000000000323,-1.295608064655644487
0.490000000000000324,-1.304697481014312599
0.491000000000000325,-1.313314068484912944
0.492000000000000326,-1.321467913513487469
0.493000000000000327,-1.329168984291996480
0.494000000000000328,-1.336427129998463803
0.495000000000000329,-1.343252080123125580
0.496000000000000330,-1.349653443877873116
0.497000000000000330,-1.355640709686722456
0.498000000000000331,-1.361223244754490969
0.499000000000000332,-1.366410294711583706
0.500000000000000333,-1.371210983332274314
0.501000000000000334,-1.375634312324076403
0.502000000000000335,-1.379689161186028912
0.503000000000000336,-1.383384287133420987
0.504000000000000337,-1.386728325086805214
0.505000000000000338,-1.389729787722979726
0.506000000000000338,-1.392397065585805782
0.507000000000000339,-1.394738427254701874
0.508000000000000340,-1.396762019568615454
0.509000000000000341,-1.398475867903578251
0.510000000000000342,-1.399887876501568540
0.511000000000000343,-1.401005828848921997
0.512000000000000344,-1.401837388102135762
0.513000000000000345,-1.402390097559276683
0.514000000000000346,-1.402671381175104148
0.515000000000000346,-1.402688544118001701
0.516000000000000347,-1.402448773366972601
0.517000000000000348,-1.401959138346986933
0.518000000000000349,-1.401226591600845728
0.519000000000000350,-1.400257969496039312
0.520000000000000351,-1.399059992964785559
0.521000000000000352,-1.397639268275866486
0.522000000000000353,-1.396002287836469735
0.523000000000000353,-1.394155431022716218
0.524000000000000354,-1.392104965037289865
0.525000000000000355,-1.389857045792731949
0.526000000000000356,-1.387417718819014656
0.527000000000000357,-1.384792920194053867
0.528000000000000358,-1.381988477495747381
0.529000000000000359,-1.379010110774359976
0.530000000000000360,-1.375863433543852654
0.531000000000000361,-1.372553953791087800
0.532000000000000361,-1.369087075001598652
0.533000000000000362,-1.365468097200836173
0.534000000000000363,-1.361702218009732679
0.535000000000000364,-1.357794533713555740
0.536000000000000365,-1.353750040342900807
0.537000000000000366,-1.349573634765926844
0.538000000000000367,-1.345270115790681897
0.539000000000000368,-1.340844185276775180
0.540000000000000369,-1.336300449255218181
0.541000000000000369,-1.331643419055792865
0.542000000000000370,-1.326877512440823192
0.543000000000000371,-1.322007054744739563
0.544000000000000372,-1.317036280018459848
0.545000000000000373,-1.311969332177902015
0.546000000000000374,-1.306810266155825628
0.547000000000000375,-1.301563049056261745
0.548000000000000376,-1.296231561310893898
0.549000000000000377,-1.290819597836624366
0.550000000000000377,-1.285330869193769265
0.551000000000000378,-1.279769002744125306
0.552000000000000379,-1.274137543808475881
0.553000000000000380,-1.268439956822789316
0.554000000000000381,-1.262679626492625662
0.555000000000000382,-1.256859858945295505
0.556000000000000383,-1.250983882879034281
0.557000000000000384,-1.245054850708999350
0.558000000000000385,-1.239075839709322224
0.559000000000000385,-1.233049853150970598
0.560000000000000386,-1.226979821434927675
0.561000000000000387,-1.220868603220226278
0.562000000000000388,-1.214718986546482471
0.563000000000000389,-1.208533689950614276
0.564000000000000390,-1.202315363577246110
0.565000000000000391,-1.196066590282600872
0.566000000000000392,-1.189789886731435598
0.567000000000000393,-1.183487704486853698
0.568000000000000393,-1.177162431092515948
0.569000000000000394,-1.170816391147140312
0.570000000000000395,-1.164451847370973736
0.571000000000000396,-1.158071001663904642
0.572000000000000397,-1.151675996155148596
0.573000000000000398,-1.145268914244119474
0.574000000000000399,-1.138851781632420401
0.575000000000000400,-1.132426567346636492
0.576000000000000401,-1.125995184751830580
0.577000000000000401,-1.119559492555596503
0.578000000000000402,-1.113121295802396826
0.579000000000000403,-1.106682346858123944
0.580000000000000404,-1.100244346384806171
0.581000000000000405,-1.093808944305149966
0.582000000000000406,-1.087377740757027089
0.583000000000000407,-1.080952287037607151
0.584000000000000408,-1.074534086537187516
0.585000000000000409,-1.068124595662550469
0.586000000000000409,-1.061725224749776597
0.587000000000000410,-1.055337338966531036
0.588000000000000411,-1.048962259203605418
0.589000000000000412,-1.042601262955859864
0.590000000000000413,-1.036255585192330742
0.591000000000000414,-1.029926419215603461
0.592000000000000415,-1.023614917510383249
0.593000000000000416,-1.017322192581192608
0.594000000000000417,-1.011049317779235013
0.595000000000000417,-1.004797328118458566
0.596000000000000418,-0.998567221080639000
0.597000000000000419,-0.992359957409748361
0.598000000000000420,-0.986176461895341028
0.599000000000000421,-0.980017624145217203
0.600000000000000422,-0.973884299347203553
0.601000000000000423,-0.967777309020145693
0.602000000000000424,-0.961697441754182036
0.603000000000000425,-0.955645453940262235
0.604000000000000425,-0.949622070488956638
0.605000000000000426,-0.943627985538644021
0.606000000000000427,-0.937663863153128774
0.607000000000000428,-0.931730338008588177
0.608000000000000429,-0.925828016070204818
0.609000000000000430,-0.919957475258155299
0.610000000000000431,-0.914119266103387118
0.611000000000000432,-0.908313912392980982
0.612000000000000433,-0.902541911805273545
0.613000000000000433,-0.896803736534834584
0.614000000000000434,-0.891099833907307071
