# Gypsum-011_URACILLACTAM
# h[nm],U(h)[kJ/mol]
0.149999999999999994,182.945716283429476334
0.150999999999999995,180.356131222999749752
0.151999999999999996,178.191684415394945518
0.152999999999999997,176.115551950502236878
0.153999999999999998,174.016173665827238892
0.154999999999999999,171.882626695826786545
0.156000000000000000,169.739147364521869576
0.157000000000000001,167.613915610285374669
0.158000000000000002,165.526744932212750427
0.159000000000000002,163.486460430760587315
0.160000000000000003,161.492635711569079149
0.161000000000000004,159.538768948491025412
0.162000000000000005,157.615429967086811303
0.163000000000000006,155.712751518890883062
0.164000000000000007,153.822098654457647626
0.165000000000000008,151.936980025484416501
0.166000000000000009,150.053360138353326647
0.167000000000000010,148.169552453258035030
0.168000000000000010,146.285856759571345265
0.169000000000000011,144.404072292075142059
0.170000000000000012,142.526982799846337002
0.171000000000000013,140.657877500245461988
0.172000000000000014,138.800145238489363919
0.173000000000000015,136.956958888278165887
0.174000000000000016,135.131052656961401226
0.175000000000000017,133.324585597077629018
0.176000000000000018,131.539079224335722529
0.177000000000000018,129.775414688147662901
0.178000000000000019,128.033874551273953557
0.179000000000000020,126.314215188310257076
0.180000000000000021,124.615757549491007694
0.181000000000000022,122.937486144072821048
0.182000000000000023,121.278148287536964745
0.183000000000000024,119.636347739304440552
0.184000000000000025,118.010628719075086224
0.185000000000000026,116.399547872891886868
0.186000000000000026,114.801733046787120429
0.187000000000000027,113.215928724968335928
0.188000000000000028,111.641028725826203072
0.189000000000000029,110.076097256319144435
0.190000000000000030,108.520379740731840457
0.191000000000000031,106.973305000573802204
0.192000000000000032,105.434480403219367872
0.193000000000000033,103.903681548818099145
0.194000000000000034,102.380837954699188685
0.195000000000000034,100.866016046117408678
0.196000000000000035,99.359400589586556407
0.197000000000000036,97.861275524106389412
0.198000000000000037,96.372004966699435613
0.199000000000000038,94.892014999261292019
0.200000000000000039,93.421776688744827766
0.201000000000000040,91.961790655105900782
0.202000000000000041,90.512573382649037512
0.203000000000000042,89.074645370648497078
0.204000000000000042,87.648521137753320431
0.205000000000000043,86.234701030486576201
0.206000000000000044,84.833664737515036336
0.207000000000000045,83.445866376481617976
0.208000000000000046,82.071730997166199018
0.209000000000000047,80.711652331698033436
0.210000000000000048,79.365991617694604088
0.211000000000000049,78.035077321898327796
0.212000000000000050,76.719205598625208609
0.213000000000000050,75.418641327817141473
0.214000000000000051,74.133619590561536938
0.215000000000000052,72.864347454645113089
0.216000000000000053,71.611005958250842696
0.217000000000000054,70.373752195636456008
0.218000000000000055,69.152721424051861732
0.219000000000000056,67.948029125869823019
0.220000000000000057,66.759772973638661142
0.221000000000000058,65.588034658336482607
0.222000000000000058,64.432881552382639256
0.223000000000000059,63.294368188905664852
0.224000000000000060,62.172537547359773669
0.225000000000000061,61.067422142865510182
0.226000000000000062,59.979044922680522234
0.227000000000000063,58.907419978070343802
0.228000000000000064,57.852553083640700038
0.229000000000000065,56.814442079016927778
0.230000000000000066,55.793077109723050455
0.231000000000000066,54.788440745329765491
0.232000000000000067,53.800507993513306815
0.233000000000000068,52.829246228698934829
0.234000000000000069,51.874615053544175680
0.235000000000000070,50.936566110741061664
0.236000000000000071,50.015042861557112985
0.237000000000000072,49.109980346266624451
0.238000000000000073,48.221304940207396328
0.239000000000000073,47.348934117690475887
0.240000000000000074,46.492776234434394667
0.241000000000000075,45.652730337635127000
0.242000000000000076,44.828686011248265686
0.243000000000000077,44.020523262576929824
0.244000000000000078,43.228112454850872837
0.245000000000000079,42.451314289162873195
0.246000000000000080,41.689979837910797755
0.247000000000000081,40.943950630782936173
0.248000000000000081,40.213058793328634977
0.249000000000000082,39.497127237273566891
0.250000000000000111,38.795969900970085575
0.251000000000000112,38.109392037716176560
0.252000000000000113,37.437190549124977679
0.253000000000000114,36.779154360278219826
0.254000000000000115,36.135064833042285670
0.255000000000000115,35.504696213659798332
0.256000000000000116,34.887816110544477510
0.257000000000000117,34.284185998095310310
0.258000000000000118,33.693561742300886408
0.259000000000000119,33.115694143916584835
0.260000000000000120,32.550329495061752993
0.261000000000000121,31.997210145191495201
0.262000000000000122,31.456075072543058013
0.263000000000000123,30.926660457333383647
0.264000000000000123,30.408700253186037088
0.265000000000000124,29.901926753487515498
0.266000000000000125,29.406071149609395832
0.267000000000000126,28.920864078180727574
0.268000000000000127,28.446036154847369914
0.269000000000000128,27.981318492213159033
0.270000000000000129,27.526443199913181559
0.271000000000000130,27.081143865022788475
0.272000000000000131,26.645156011254659489
0.273000000000000131,26.218217535636235027
0.274000000000000132,25.800069121592013488
0.275000000000000133,25.390454627576268365
0.276000000000000134,24.989121450611690989
0.277000000000000135,24.595820864287276208
0.278000000000000136,24.210308330953470346
0.279000000000000137,23.832343788023894859
0.280000000000000138,23.461691908451914657
0.281000000000000139,23.098122335594034382
0.282000000000000139,22.741409892804313131
0.283000000000000140,22.391334768221646812
0.284000000000000141,22.047682675317282985
0.285000000000000142,21.710244989863131337
0.286000000000000143,21.378818864061877036
0.287000000000000144,21.053207318650215996
0.288000000000000145,20.733219313844305276
0.289000000000000146,20.418669800046220786
0.290000000000000147,20.109379749267681348
0.291000000000000147,19.805176168258348923
0.292000000000000148,19.505892094346769738
0.293000000000000149,19.211366575016043612
0.294000000000000150,18.921444632243400008
0.295000000000000151,18.635977212632333533
0.296000000000000152,18.354821124361301088
0.297000000000000153,18.077838961961514741
0.298000000000000154,17.804899019921187175
0.299000000000000155,17.535875196093762440
0.300000000000000155,17.270646885864252340
0.301000000000000156,17.009098868001874649
0.302000000000000157,16.751121183097055223
0.303000000000000158,16.496609005450341812
0.304000000000000159,16.245462509246802796
0.305000000000000160,15.997586729815017392
0.306000000000000161,15.752891420733499572
0.307000000000000162,15.511290907510730364
0.308000000000000163,15.272703938527357082
0.309000000000000163,15.037053533891768353
0.310000000000000164,14.804266832821934230
0.311000000000000165,14.574274940129356537
0.312000000000000166,14.347012772343152420
0.313000000000000167,14.122418903976093674
0.314000000000000168,13.900435414397813716
0.315000000000000169,13.681007735745401632
0.316000000000000170,13.464084502267098742
0.317000000000000171,13.249617401461396327
0.318000000000000171,13.037561027341689979
0.319000000000000172,12.827872736125144115
0.320000000000000173,12.620512504614797678
0.321000000000000174,12.415442791515143739
0.322000000000000175,12.212628401893701025
0.323000000000000176,12.012036354975466068
0.324000000000000177,11.813635755431677765
0.325000000000000178,11.617397668301368441
0.326000000000000179,11.423294997661463057
0.327000000000000179,11.231302369140552244
0.328000000000000180,11.041396016351665565
0.329000000000000181,10.853553671300989691
0.330000000000000182,10.667754458812241936
0.331000000000000183,10.483978794990484573
0.332000000000000184,10.302208289734258173
0.333000000000000185,10.122425653291308834
0.334000000000000186,9.944614606840463722
0.335000000000000187,9.768759797070767803
0.336000000000000187,9.594846714718183733
0.337000000000000188,9.422861617011102808
0.338000000000000189,9.252791453966549895
0.339000000000000190,9.084623798471746170
0.340000000000000191,8.918346780078520553
0.341000000000000192,8.753949022431930516
0.342000000000000193,8.591419584249072372
0.343000000000000194,8.430747903759238326
0.344000000000000195,8.271923746513058617
0.345000000000000195,8.114937156464016255
0.346000000000000196,7.959778410223845135
0.347000000000000197,7.806437974390343371
0.348000000000000198,7.654906465844876884
0.349000000000000199,7.505174614915311793
0.350000000000000200,7.357233231299370679
0.351000000000000201,7.211073172643002849
0.352000000000000202,7.066685315668356893
0.353000000000000203,6.924060529746142834
0.354000000000000203,6.783189652807780412
0.355000000000000204,6.644063469493881158
0.356000000000000205,6.506672691436422795
0.357000000000000206,6.371007939573478218
0.358000000000000207,6.237059728397225555
0.359000000000000208,6.104818452037388710
0.360000000000000209,5.974274372084314777
0.361000000000000210,5.845417607058262632
0.362000000000000210,5.718238123433228459
0.363000000000000211,5.592725728126422879
0.364000000000000212,5.468870062366621987
0.365000000000000213,5.346660596857264913
0.366000000000000214,5.226086628152708968
0.367000000000000215,5.107137276168667306
0.368000000000000216,4.989801482750339190
0.369000000000000217,4.874068011224786723
0.370000000000000218,4.759925446866299481
0.371000000000000218,4.647362198206654860
0.372000000000000219,4.536366499124463658
0.373000000000000220,4.426926411650658366
0.374000000000000221,4.319029829429830158
0.375000000000000222,4.212664481779791359
0.376000000000000223,4.107817938293900184
0.377000000000000224,4.004477613933957514
0.378000000000000225,3.902630774563280003
0.379000000000000226,3.802264542872536346
0.380000000000000226,3.703365904652865304
0.381000000000000227,3.605921715373656244
0.382000000000000228,3.509918707024159978
0.383000000000000229,3.415343495180680033
0.384000000000000230,3.322182586263153325
0.385000000000000231,3.230422384946899150
0.386000000000000232,3.140049201697650894
0.387000000000000233,3.051049260399585794
0.388000000000000234,2.963408706048402230
0.389000000000000234,2.877113612482889771
0.390000000000000235,2.792149990130606607
0.391000000000000236,2.708503793744729382
0.392000000000000237,2.626160930110897240
0.393000000000000238,2.545107265704414257
0.394000000000000239,2.465328634279739362
0.395000000000000240,2.386810844375543805
0.396000000000000241,2.309539686720115004
0.397000000000000242,2.233500941523127281
0.398000000000000242,2.158680385641071453
0.399000000000000243,2.085063799604958579
0.400000000000000244,2.012636974499826259
0.401000000000000245,1.941385718686839512
0.402000000000000246,1.871295864359896033
0.403000000000000247,1.802353273929257371
0.404000000000000248,1.734543846226106467
0.405000000000000249,1.667853522522448895
0.406000000000000250,1.602268292361856084
0.407000000000000250,1.537774199197094571
0.408000000000000251,1.474357345831625254
0.409000000000000252,1.412003899662508610
0.410000000000000253,1.350700097722928428
0.411000000000000254,1.290432251523169649
0.412000000000000255,1.231186751689485215
0.413000000000000256,1.172950072400586352
0.414000000000000257,1.115708775622418880
0.415000000000000258,1.059449515141745124
0.416000000000000258,1.004159040400105729
0.417000000000000259,0.949824200129537166
0.418000000000000260,0.896431945792253160
0.419000000000000261,0.843969334826421780
0.420000000000000262,0.792423533700839955
0.421000000000000263,0.741781820781188150
0.422000000000000264,0.692031589011228521
0.423000000000000265,0.643160348412074145
0.424000000000000266,0.595155728403180206
0.425000000000000266,0.548005479948822760
0.426000000000000267,0.501697477533812553
0.427000000000000268,0.456219720972554588
0.428000000000000269,0.411560337055557501
0.429000000000000270,0.367707581037568509
0.430000000000000271,0.324649837971731248
0.431000000000000272,0.282375623894030814
0.432000000000000273,0.240873586862577982
0.433000000000000274,0.200132507856097430
0.434000000000000274,0.160141301536165098
0.435000000000000275,0.120889016877733499
0.436000000000000276,0.082364837672391292
0.437000000000000277,0.044558082908937723
0.438000000000000278,0.007458207035745535
0.439000000000000279,-0.028945199890629780
0.440000000000000280,-0.064662412166132915
0.441000000000000281,-0.099703568504729612
0.442000000000000282,-0.134078672204559268
0.443000000000000282,-0.167797591410186409
0.444000000000000283,-0.200870059466915662
0.445000000000000284,-0.233305675362829895
0.446000000000000285,-0.265113904254486665
0.447000000000000286,-0.296304078072276156
0.448000000000000287,-0.326885396201324063
0.449000000000000288,-0.356866926234216175
0.450000000000000289,-0.386257604791566345
0.451000000000000290,-0.415066238406794408
0.452000000000000290,-0.443301504471474206
0.453000000000000291,-0.470971952237597358
0.454000000000000292,-0.498086003873385308
0.455000000000000293,-0.524651955569222617
0.456000000000000294,-0.550677978690398584
0.457000000000000295,-0.576172120973548751
0.458000000000000296,-0.601142307763563588
0.459000000000000297,-0.625596343288080226
0.460000000000000298,-0.649541911966546204
0.461000000000000298,-0.672986579751087000
0.462000000000000299,-0.695937795496421319
0.463000000000000300,-0.718402892356147627
0.464000000000000301,-0.740389089202952655
0.465000000000000302,-0.761903492070157839
0.466000000000000303,-0.782953095612312966
0.467000000000000304,-0.803544784582566174
0.468000000000000305,-0.823685335324525147
0.469000000000000306,-0.843381417276590328
0.470000000000000306,-0.862639594486749539
0.471000000000000307,-0.881466327135761452
0.472000000000000308,-0.899867973067022708
0.473000000000000309,-0.917850789321284166
0.474000000000000310,-0.935420933674455446
0.475000000000000311,-0.952584466176989664
0.476000000000000312,-0.969347350693195331
0.477000000000000313,-0.985715456439109516
0.478000000000000314,-1.001694559517396721
0.479000000000000314,-1.017290344448099404
0.480000000000000315,-1.032508405693837172
0.481000000000000316,-1.047354249178370056
0.482000000000000317,-1.061833293797309175
0.483000000000000318,-1.075950872919976486
0.484000000000000319,-1.089712235881374447
0.485000000000000320,-1.103122549463298796
0.486000000000000321,-1.116186899363776686
0.487000000000000322,-1.128910291653944853
0.488000000000000322,-1.141297654221540725
0.489000000000000323,-1.153353838200436687
0.490000000000000324,-1.165083619385384850
0.491000000000000325,-1.176491699631423415
0.492000000000000326,-1.187582708237345130
0.493000000000000327,-1.198361203312732437
0.494000000000000328,-1.208831673127997997
0.495000000000000329,-1.218998537447078645
0.496000000000000330,-1.228866148842247874
0.497000000000000330,-1.238438793990891185
0.498000000000000331,-1.247720694953606602
0.499000000000000332,-1.256716010433670316
0.500000000000000333,-1.265428837017400721
0.501000000000000334,-1.273863210395190571
0.502000000000000335,-1.282023106563173531
0.503000000000000336,-1.289912443005185594
0.504000000000000337,-1.297535079855009821
0.505000000000000338,-1.304894821038721231
0.506000000000000338,-1.311995415397106957
0.507000000000000339,-1.318840557788087064
0.508000000000000340,-1.325433890169051887
0.509000000000000341,-1.331779002659260414
0.510000000000000342,-1.337879434582096128
0.511000000000000343,-1.343738675487441192
0.512000000000000344,-1.349360166154025542
0.513000000000000345,-1.354747299571942509
0.514000000000000346,-1.359903421905433785
0.515000000000000346,-1.364831833435935282
0.516000000000000347,-1.369535789485599953
0.517000000000000348,-1.374018501321443209
0.518000000000000349,-1.378283137040165363
0.519000000000000350,-1.382332822433941288
0.520000000000000351,-1.386170641837194406
0.521000000000000352,-1.389799638954749783
0.522000000000000353,-1.393222817671314617
0.523000000000000353,-1.396443142842705765
0.524000000000000354,-1.399463541068916239
0.525000000000000355,-1.402286901449288026
0.526000000000000356,-1.404916076319972174
0.527000000000000357,-1.407353881974009902
0.528000000000000358,-1.409603099364157064
0.529000000000000359,-1.411666474788814352
0.530000000000000360,-1.413546720561193570
0.531000000000000361,-1.415246515662104354
0.532000000000000361,-1.416768506376537173
0.533000000000000362,-1.418115306914338625
0.534000000000000363,-1.419289500015222583
0.535000000000000364,-1.420293637538453613
0.536000000000000365,-1.421130241037372510
0.537000000000000366,-1.421801802319158314
0.538000000000000367,-1.422310783989949812
0.539000000000000368,-1.422659619985813695
0.540000000000000369,-1.422850716089598011
0.541000000000000369,-1.422886450434174055
0.542000000000000370,-1.422769173992140868
0.543000000000000371,-1.422501211052440429
0.544000000000000372,-1.422084859684051406
0.545000000000000373,-1.421522392187092310
0.546000000000000374,-1.420816055531578526
0.547000000000000375,-1.419968071784114327
0.548000000000000376,-1.418980638522820525
0.549000000000000377,-1.417855929240714685
0.550000000000000377,-1.416596093737879647
0.551000000000000378,-1.415203258502589545
0.552000000000000379,-1.413679527081793896
0.553000000000000380,-1.412026980441076773
0.554000000000000381,-1.410247677314435011
0.555000000000000382,-1.408343654544153889
0.556000000000000383,-1.406316927410911521
0.557000000000000384,-1.404169489954539163
0.558000000000000385,-1.401903315285493168
0.559000000000000385,-1.399520355887436285
0.560000000000000386,-1.397022543911098369
0.561000000000000387,-1.394411791459655436
0.562000000000000388,-1.391689990865840665
0.563000000000000389,-1.388859014961115523
0.564000000000000390,-1.385920717336973418
0.565000000000000391,-1.382876932598745778
0.566000000000000392,-1.379729476612002514
0.567000000000000393,-1.376480146741902777
0.568000000000000393,-1.373130722085539990
0.569000000000000394,-1.369682963697622879
0.570000000000000395,-1.366138614809667917
0.571000000000000396,-1.362499401042802649
0.572000000000000397,-1.358767030614564941
0.573000000000000398,-1.354943194539678597
0.574000000000000399,-1.351029566825172390
0.575000000000000400,-1.347027804659900685
0.576000000000000401,-1.342939548598688138
0.577000000000000401,-1.338766422741352047
0.578000000000000402,-1.334510034906619680
0.579000000000000403,-1.330171976801209244
0.580000000000000404,-1.325753824184287888
0.581000000000000405,-1.321257137027301631
0.582000000000000406,-1.316683459669532041
0.583000000000000407,-1.312034320969348133
0.584000000000000408,-1.307311234451460802
0.585000000000000409,-1.302515698450223525
0.586000000000000409,-1.297649196249134551
0.587000000000000410,-1.292713196216764171
0.588000000000000411,-1.287709151939083085
0.589000000000000412,-1.282638502348520726
0.590000000000000413,-1.277502671849692684
0.591000000000000414,-1.272303070442041939
0.592000000000000415,-1.267041093839508914
0.593000000000000416,-1.261718123587266760
0.594000000000000417,-1.256335527175697964
0.595000000000000417,-1.250894658151803895
0.596000000000000418,-1.245396856227907190
0.597000000000000419,-1.239843447388083053
0.598000000000000420,-1.234235743992115664
0.599000000000000421,-1.228575044877307620
0.600000000000000422,-1.222862635458096037
0.601000000000000423,-1.217099787823619605
0.602000000000000424,-1.211287760833348104
0.603000000000000425,-1.205427800210837841
0.604000000000000425,-1.199521138635659678
0.605000000000000426,-1.193568995833659274
0.606000000000000427,-1.187572578665614387
0.607000000000000428,-1.181533081214221514
0.608000000000000429,-1.175451684869791347
0.609000000000000430,-1.169329558414347492
0.610000000000000431,-1.163167858104542374
0.611000000000000432,-1.156967727753214437
0.612000000000000433,-1.150730298809751195
0.613000000000000433,-1.144456690439351165
0.614000000000000434,-1.138148009601172905
