# Gypsum-011_HUMICACID-NEUTRAL-AC
# h[nm],U(h)[kJ/mol]
0.149999999999999994,202.717422360470237663
0.150999999999999995,202.196971300532538862
0.151999999999999996,199.959504152617313366
0.152999999999999997,197.321389505705724332
0.153999999999999998,194.762553123373720609
0.154999999999999999,192.378150450177628272
0.156000000000000000,190.117508689837592328
0.157000000000000001,187.899940037737110288
0.158000000000000002,185.662544338372327957
0.159000000000000002,183.372980351869358628
0.160000000000000003,181.026218891920706255
0.161000000000000004,178.635673614247536989
0.162000000000000005,176.223938604992127921
0.163000000000000006,173.815383409429728090
0.164000000000000007,171.431234890789880865
0.165000000000000008,169.086972012712237756
0.166000000000000009,166.791530071156728354
0.167000000000000010,164.547739978927126003
0.168000000000000010,162.353485244249725383
0.169000000000000011,160.203167890119999583
0.170000000000000012,158.089192567684250434
0.171000000000000013,156.003284378818506184
0.172000000000000014,153.937541744701491098
0.173000000000000015,151.885189335478401063
0.174000000000000016,149.841039507196114755
0.175000000000000017,147.801697329471693365
0.176000000000000018,145.765557969644646619
0.177000000000000018,143.732649526961978381
0.178000000000000019,141.704372457594615753
0.179000000000000020,139.683180954303225008
0.180000000000000021,137.672243899755500252
0.181000000000000022,135.675114627745045937
0.182000000000000023,133.695430593420866217
0.183000000000000024,131.736656721104225198
0.184000000000000025,129.801879958456538589
0.185000000000000026,127.893657526925224488
0.186000000000000026,126.013917504189549845
0.187000000000000027,124.163907609992264724
0.188000000000000028,122.344186253671836084
0.189000000000000029,120.554648882394346288
0.190000000000000030,118.794582284206853728
0.191000000000000031,117.062739599557815495
0.192000000000000032,115.357429244603423513
0.193000000000000033,113.676611634179678845
0.194000000000000034,112.017998416400430983
0.195000000000000034,110.379149818333615940
0.196000000000000035,108.757566594659280668
0.197000000000000036,107.150773925766884531
0.198000000000000037,105.556395398784459871
0.199000000000000038,103.972215905894017851
0.200000000000000039,102.396232899076807144
0.201000000000000040,100.826695946039095020
0.202000000000000041,99.262134940458281562
0.203000000000000042,97.701377636421497641
0.204000000000000042,96.143557409964955696
0.205000000000000043,94.588112309342946560
0.206000000000000044,93.034776550095870107
0.207000000000000045,91.483565651273679009
0.208000000000000046,89.934756405078402963
0.209000000000000047,88.388862832865839891
0.210000000000000048,86.846609214209806282
0.211000000000000049,85.308901189982222490
0.212000000000000050,83.776795841553806099
0.213000000000000050,82.251471541740400539
0.214000000000000051,80.734198263535205342
0.215000000000000052,79.226308923655025751
0.216000000000000053,77.729172232376782858
0.217000000000000054,76.244167421239964710
0.218000000000000055,74.772661127527641156
0.219000000000000056,73.315986630070554497
0.220000000000000057,71.875425555469149685
0.221000000000000058,70.452192107563362811
0.222000000000000058,69.047419815857111303
0.223000000000000059,67.662150750382281217
0.224000000000000060,66.297327110719123766
0.225000000000000061,64.953785065030686496
0.226000000000000062,63.632250690370973700
0.227000000000000063,62.333337847501809392
0.228000000000000064,61.057547811284095474
0.229000000000000065,59.805270470680852668
0.230000000000000066,58.576786909821450422
0.231000000000000066,57.372273182759670362
0.232000000000000067,56.191805098883413905
0.233000000000000068,55.035363842813865176
0.234000000000000069,53.902842261537941226
0.235000000000000070,52.794051661963223410
0.236000000000000071,51.708728973647090754
0.237000000000000072,50.646544143747817657
0.238000000000000073,49.607107643955394849
0.239000000000000073,48.589977982002039880
0.240000000000000074,47.594669123089126117
0.241000000000000075,46.620657739012237641
0.242000000000000076,45.667390214755450017
0.243000000000000077,44.734289353740976480
0.244000000000000078,43.820760733667114550
0.245000000000000079,42.926198674877994677
0.246000000000000080,42.049991792441034022
0.247000000000000081,41.191528111534992718
0.248000000000000081,40.350199733368796728
0.249000000000000082,39.525407045662959149
0.250000000000000111,38.716562477749555171
0.251000000000000112,37.923093805610996299
0.252000000000000113,37.144447016715361087
0.253000000000000114,36.380088748359113993
0.254000000000000115,35.629508316435455129
0.255000000000000115,34.892219354160303624
0.256000000000000116,34.167761082351006507
0.257000000000000117,33.455699234415178012
0.258000000000000118,32.755626660319009602
0.259000000000000119,32.067163634506556491
0.260000000000000120,31.389957893086609886
0.261000000000000121,30.723684425630132466
0.262000000000000122,30.068045046672146725
0.263000000000000123,29.422767771526906699
0.264000000000000123,28.787606020338454726
0.265000000000000124,28.162337673436109498
0.266000000000000125,27.546764000075164347
0.267000000000000126,26.940708481546693065
0.268000000000000127,26.344015548460181009
0.269000000000000128,25.756549250765839787
0.270000000000000129,25.178191877804760423
0.271000000000000130,24.608842544377480976
0.272000000000000131,24.048415757518629476
0.273000000000000131,23.496839977370665764
0.274000000000000132,22.954056184276772967
0.275000000000000133,22.420016462969510229
0.276000000000000134,21.894682613527880477
0.277000000000000135,21.378024797618511599
0.278000000000000136,20.870020227428312865
0.279000000000000137,20.370651903645740077
0.280000000000000138,19.879907407855217372
0.281000000000000139,19.397777753776562548
0.282000000000000139,18.924256300912301043
0.283000000000000140,18.459337733357575217
0.284000000000000141,18.003017105782511464
0.285000000000000142,17.555288957913365522
0.286000000000000143,17.116146498214995120
0.287000000000000144,16.685580856913411196
0.288000000000000145,16.263580407988115439
0.289000000000000146,15.850130159311959233
0.290000000000000147,15.445211209713443523
0.291000000000000147,15.048800271385861294
0.292000000000000148,14.660869255761380003
0.293000000000000149,14.281384920708054764
0.294000000000000150,13.910308576686929882
0.295000000000000151,13.547595849325251294
0.296000000000000152,13.193196495715344696
0.297000000000000153,12.847054271635631295
0.298000000000000154,12.509106846806565372
0.299000000000000155,12.179285765238741845
0.300000000000000155,11.857516447699184781
0.301000000000000156,11.543718233313764898
0.302000000000000157,11.237804457334712893
0.303000000000000158,10.939682562132704291
0.304000000000000159,10.649254238517720239
0.305000000000000160,10.366415594553044954
0.306000000000000161,10.091057349097676266
0.307000000000000162,9.823065047394695881
0.308000000000000163,9.562319296113514611
0.309000000000000163,9.308696015351941355
0.310000000000000164,9.062066705207499240
0.311000000000000165,8.822298724636015166
0.312000000000000166,8.589255580427209935
0.313000000000000167,8.362797224241282024
0.314000000000000168,8.142780355766252143
0.315000000000000169,7.929058730172178215
0.316000000000000170,7.721483468154476171
0.317000000000000171,7.519903366974122427
0.318000000000000171,7.324165211016440580
0.319000000000000172,7.134114080501992028
0.320000000000000173,6.949593657092893118
0.321000000000000174,6.770446525244739000
0.322000000000000175,6.596514468257541175
0.323000000000000176,6.427638758079760706
0.324000000000000177,6.263660438015659970
0.325000000000000178,6.104420597579404806
0.326000000000000179,5.949760638827278569
0.327000000000000179,5.799522533584882567
0.328000000000000180,5.653549071066064080
0.329000000000000181,5.511684095456698351
0.330000000000000182,5.373772733108795663
0.331000000000000183,5.239661609057802316
0.332000000000000184,5.109199052640117422
0.333000000000000185,4.982235292047325181
0.334000000000000186,4.858622637709028247
0.335000000000000187,4.738215654448246994
0.336000000000000187,4.620871322400643244
0.337000000000000188,4.506449186733639145
0.338000000000000189,4.394811496241187498
0.339000000000000190,4.285823330927552632
0.340000000000000191,4.179352718727015414
0.341000000000000192,4.075270741536718866
0.342000000000000193,3.973451630767450560
0.343000000000000194,3.873772852641382602
0.344000000000000195,3.776115183488089944
0.345000000000000195,3.680362775308238188
0.346000000000000196,3.586403211891934006
0.347000000000000197,3.494127555792149842
0.348000000000000198,3.403430386466067770
0.349000000000000199,3.314209829906912486
0.350000000000000200,3.226367580096769050
0.351000000000000201,3.139808912617180869
0.352000000000000202,3.054442690758634615
0.353000000000000203,2.970181364472957775
0.354000000000000203,2.886940962514021880
0.355000000000000204,2.804641078112509067
0.356000000000000205,2.723204848528970157
0.357000000000000206,2.642558928827344111
0.358000000000000207,2.562633460207991654
0.359000000000000208,2.483362033234840283
0.360000000000000209,2.404681646286163321
0.361000000000000210,2.326532659553165239
0.362000000000000210,2.248858744903461382
0.363000000000000211,2.171606831920069869
0.364000000000000212,2.094727050418545566
0.365000000000000213,2.018172669737202440
0.366000000000000214,1.941900035086716159
0.367000000000000215,1.865868501236913612
0.368000000000000216,1.790040363809298984
0.369000000000000217,1.714380788435013958
0.370000000000000218,1.638857738028191902
0.371000000000000218,1.563441898415541820
0.372000000000000219,1.488106602553108448
0.373000000000000220,1.412827753551730625
0.374000000000000221,1.337583746723074896
0.375000000000000222,1.262355390848671544
0.376000000000000223,1.187125828864354471
0.377000000000000224,1.111880458143809536
0.378000000000000225,1.036606850554922188
0.379000000000000226,0.961294672453875121
0.380000000000000226,0.885935604772487451
0.381000000000000227,0.810523263345832135
0.382000000000000228,0.735053119618023443
0.383000000000000229,0.659522421855867180
0.384000000000000230,0.583930116991586257
0.385000000000000231,0.508276773207773425
0.386000000000000232,0.432564503369930020
0.387000000000000233,0.356796889404113582
0.388000000000000234,0.280978907710154602
0.389000000000000234,0.205116855693302569
0.390000000000000235,0.129218279490704635
0.391000000000000236,0.053291902962071182
0.392000000000000237,-0.022652441992252914
0.393000000000000238,-0.098603883728962227
0.394000000000000239,-0.174550577724099820
0.395000000000000240,-0.250479771954743913
0.396000000000000241,-0.326377870760067357
0.397000000000000242,-0.402230497147083033
0.398000000000000242,-0.478022553511269432
0.399000000000000243,-0.553738280746902900
0.400000000000000244,-0.629361315726595816
0.401000000000000245,-0.704874747133644730
0.402000000000000246,-0.780261169634620444
0.403000000000000247,-0.855502736384053719
0.404000000000000248,-0.930581209855835034
0.405000000000000249,-1.005478011000056515
0.406000000000000250,-1.080174266726715349
0.407000000000000250,-1.154650855720964486
0.408000000000000251,-1.228888452597270531
0.409000000000000252,-1.302867570402460817
0.410000000000000253,-1.376568601480114840
0.411000000000000254,-1.449971856710981388
0.412000000000000255,-1.523057603146160677
0.413000000000000256,-1.595806100051917698
0.414000000000000257,-1.668197633386417467
0.415000000000000258,-1.740212548730801334
0.416000000000000258,-1.811831282697924150
0.417000000000000259,-1.883034392844067595
0.418000000000000260,-1.953802586109582462
0.419000000000000261,-2.024116745816026963
0.420000000000000262,-2.093957957247888135
0.421000000000000263,-2.163307531848360554
0.422000000000000264,-2.232147030058802439
0.423000000000000265,-2.300458282832815726
0.424000000000000266,-2.368223411855985727
0.425000000000000266,-2.435424848502923734
0.426000000000000267,-2.502045351563801479
0.427000000000000268,-2.568068023772661412
0.428000000000000269,-2.633476327170111375
0.429000000000000270,-2.698254097333217860
0.430000000000000271,-2.762385556505372985
0.431000000000000272,-2.825855325659136774
0.432000000000000273,-2.888648435524735270
0.433000000000000274,-2.950750336617103731
0.434000000000000274,-3.012146908294047964
0.435000000000000275,-3.072824466877889016
0.436000000000000276,-3.132769772872837422
0.437000000000000277,-3.191970037309972419
0.438000000000000278,-3.250412927251384421
0.439000000000000279,-3.308086570484760180
0.440000000000000280,-3.364979559439183365
0.441000000000000281,-3.421080954352595960
0.442000000000000282,-3.476380285720975571
0.443000000000000282,-3.530867556058544743
0.444000000000000283,-3.584533240998260872
0.445000000000000284,-3.637368289760865459
0.446000000000000285,-3.689364125020615948
0.447000000000000286,-3.740512642195083171
0.448000000000000287,-3.790806208185806270
0.449000000000000288,-3.840237659596213771
0.450000000000000289,-3.888800300452435188
0.451000000000000290,-3.936487899452088435
0.452000000000000290,-3.983294686765761039
0.453000000000000291,-4.029215350414796504
0.454000000000000292,-4.074245032248959397
0.455000000000000293,-4.118379323546563775
0.456000000000000294,-4.161614260259122844
0.457000000000000295,-4.203946317922113707
0.458000000000000296,-4.245372406252574393
0.459000000000000297,-4.285889863453926196
0.460000000000000298,-4.325496450247579894
0.461000000000000298,-4.364190343650415471
0.462000000000000299,-4.401970130516587254
0.463000000000000300,-4.438834800861455321
0.464000000000000301,-4.474783740985034619
0.465000000000000302,-4.509816726411474797
0.466000000000000303,-4.543933914660842177
0.467000000000000304,-4.577135837868691937
0.468000000000000305,-4.609423395268374080
0.469000000000000306,-4.640797845550570955
0.470000000000000306,-4.671260799113995610
0.471000000000000307,-4.700814210220476852
0.472000000000000308,-4.729460369067444603
0.473000000000000309,-4.757201893790066194
0.474000000000000310,-4.784041722404795749
0.475000000000000311,-4.809983104705842116
0.476000000000000312,-4.835029594125223262
0.477000000000000313,-4.859185039566972009
0.478000000000000314,-4.882453577225212449
0.479000000000000314,-4.904839622395824605
0.480000000000000315,-4.926347861290453878
0.481000000000000316,-4.946983242861763053
0.482000000000000317,-4.966750970647853869
0.483000000000000318,-4.985656494643813552
0.484000000000000319,-5.003705503207714678
0.485000000000000320,-5.020903915008038787
0.486000000000000321,-5.037257871019230393
0.487000000000000322,-5.052773726571595958
0.488000000000000322,-5.067458043461395611
0.489000000000000323,-5.081317582126880339
0.490000000000000324,-5.094359293895339036
0.491000000000000325,-5.106590313306142548
0.492000000000000326,-5.118017950514395231
0.493000000000000327,-5.128649683779514135
0.494000000000000328,-5.138493152042693524
0.495000000000000329,-5.147556147597081022
0.496000000000000330,-5.155846608853991597
0.497000000000000330,-5.163372613208588646
0.498000000000000331,-5.170142370007657640
0.499000000000000332,-5.176164213622497456
0.500000000000000333,-5.181446596629239565
0.501000000000000334,-5.185998083098793288
0.502000000000000335,-5.189827341998596744
0.503000000000000336,-5.192943140707850347
0.504000000000000337,-5.195354338647989678
0.505000000000000338,-5.197069881029655392
0.506000000000000338,-5.198098792717571470
0.507000000000000339,-5.198450172214324816
0.508000000000000340,-5.198133185763838426
0.509000000000000341,-5.197157061575568449
0.510000000000000342,-5.195531084169607183
0.511000000000000343,-5.193264588843524265
0.512000000000000344,-5.190366956260880293
0.513000000000000345,-5.186847607161833018
0.514000000000000346,-5.182715997195797897
0.515000000000000346,-5.177981611875942747
0.516000000000000347,-5.172653961655475641
0.517000000000000348,-5.166742577125348568
0.518000000000000349,-5.160257004332902575
0.519000000000000350,-5.153206800221039607
0.520000000000000351,-5.145601528187149221
0.521000000000000352,-5.137450753761324762
0.522000000000000353,-5.128764040402808533
0.523000000000000353,-5.119550945413989140
0.524000000000000354,-5.109821015971020230
0.525000000000000355,-5.099583785269889091
0.526000000000000356,-5.088848768787029186
0.527000000000000357,-5.077625460653290013
0.528000000000000358,-5.065923330140032377
0.529000000000000359,-5.053751818256208672
0.530000000000000360,-5.041120334454979535
0.531000000000000361,-5.028038253448718464
0.532000000000000361,-5.014514912130901614
0.533000000000000362,-5.000559606603484752
0.534000000000000363,-4.986181589308346318
0.535000000000000364,-4.971390066261337282
0.536000000000000365,-4.956194194387316010
0.537000000000000366,-4.940603078954816318
0.538000000000000367,-4.924625771108512851
0.539000000000000368,-4.908271265498283853
0.540000000000000369,-4.891548498002838308
0.541000000000000369,-4.874466343546703051
0.542000000000000370,-4.857033614008573252
0.543000000000000371,-4.839259056219697541
0.544000000000000372,-4.821151350050424611
0.545000000000000373,-4.802719106583401398
0.546000000000000374,-4.783970866371652697
0.547000000000000375,-4.764915097779932829
0.548000000000000376,-4.745560195407718673
0.549000000000000377,-4.725914478592069479
0.550000000000000377,-4.705986189988827562
0.551000000000000378,-4.685783494230315149
0.552000000000000379,-4.665314476658108944
0.553000000000000380,-4.644587142129001478
0.554000000000000381,-4.623609413892624254
0.555000000000000382,-4.602389132539189021
0.556000000000000383,-4.580934055015421613
0.557000000000000384,-4.559251853707479540
0.558000000000000385,-4.537350115588833610
0.559000000000000385,-4.515236341431848821
0.560000000000000386,-4.492917945081305042
0.561000000000000387,-4.470402252788356456
0.562000000000000388,-4.447696502603299962
0.563000000000000389,-4.424807843825788289
0.564000000000000390,-4.401743336510755000
0.565000000000000391,-4.378509951028704883
0.566000000000000392,-4.355114567678802118
0.567000000000000393,-4.331563976353383083
0.568000000000000393,-4.307864876252276432
0.569000000000000394,-4.284023875645660340
0.570000000000000395,-4.260047491684043841
0.571000000000000396,-4.235942150253771743
0.572000000000000397,-4.211714185877012184
0.573000000000000398,-4.187369841654566827
0.574000000000000399,-4.162915269250378358
0.575000000000000400,-4.138356528916308896
0.576000000000000401,-4.113699589555930736
0.577000000000000401,-4.088950328826170377
0.578000000000000402,-4.064114533275315466
0.579000000000000403,-4.039197898516388108
0.580000000000000404,-4.014206029434620682
0.581000000000000405,-3.989144440427731642
0.582000000000000406,-3.964018555678046063
0.583000000000000407,-3.938833709455077603
0.584000000000000408,-3.913595146447716555
0.585000000000000409,-3.888308022124716157
0.586000000000000409,-3.862977403122457076
0.587000000000000410,-3.837608267659069927
0.588000000000000411,-3.812205505973601305
0.589000000000000412,-3.786773920789575421
0.590000000000000413,-3.761318227801589753
0.591000000000000414,-3.735843056184247502
0.592000000000000415,-3.710352949122400101
0.593000000000000416,-3.684852364361661525
0.594000000000000417,-3.659345674778422985
0.595000000000000417,-3.633837168968533149
0.596000000000000418,-3.608331051853461702
0.597000000000000419,-3.582831445303563012
0.598000000000000420,-3.557342388777168907
0.599000000000000421,-3.531867839975032730
0.600000000000000422,-3.506411675509133463
0.601000000000000423,-3.480977691585163569
0.602000000000000424,-3.455569604697945607
0.603000000000000425,-3.430191052339021329
0.604000000000000425,-3.404845593715691621
0.605000000000000426,-3.379536710480850026
0.606000000000000427,-3.354267807472973040
0.607000000000000428,-3.329042213465378097
0.608000000000000429,-3.303863181924546755
0.609000000000000430,-3.278733891776340670
0.610000000000000431,-3.253657448180033551
0.611000000000000432,-3.228636883309172756
0.612000000000000433,-3.203675157138884622
0.613000000000000433,-3.178775158239067977
