# Gypsum-011_BSAI7
# h[nm],U(h)[kJ/mol]
0.149999999999999994,167.701344532283741273
0.150999999999999995,166.101042288808542935
0.151999999999999996,164.440068590492785461
0.152999999999999997,162.735587943244212283
0.153999999999999998,161.009387717730817258
0.154999999999999999,159.280572843364495839
0.156000000000000000,157.562862356306339962
0.157000000000000001,155.864333599474917946
0.158000000000000002,154.188313537375364604
0.159000000000000002,152.534667116980415358
0.160000000000000003,150.901079578142912396
0.161000000000000004,149.284141794834994244
0.162000000000000005,147.680172062926772014
0.163000000000000006,146.085776013490914238
0.164000000000000007,144.498179769468691802
0.165000000000000008,142.915384079848450938
0.166000000000000009,141.336188018198669170
0.167000000000000010,139.760125643279309315
0.168000000000000010,138.187351286301066011
0.169000000000000011,136.618500891339351710
0.170000000000000012,135.054549194519836419
0.171000000000000013,133.496676000245599880
0.172000000000000014,131.946149563160048501
0.173000000000000015,130.404231077233532687
0.174000000000000016,128.872101370456903169
0.175000000000000017,127.350808925070168698
0.176000000000000018,125.841237102441397155
0.177000000000000018,124.344087775080311076
0.178000000000000019,122.859878304789361891
0.179000000000000020,121.388948830316309113
0.180000000000000021,119.931477040153907865
0.181000000000000022,118.487497929416889519
0.182000000000000023,117.056926416941365687
0.183000000000000024,115.639581089220129684
0.184000000000000025,114.235207713949449726
0.185000000000000026,112.843501510443246616
0.186000000000000026,111.464127467254755288
0.187000000000000027,110.096738254893153908
0.188000000000000028,108.740989493295757029
0.189000000000000029,107.396552302062559647
0.190000000000000030,106.063123190323295830
0.191000000000000031,104.740431437266039438
0.192000000000000032,103.428244178916401097
0.193000000000000033,102.126369456753721465
0.194000000000000034,100.834657503941457435
0.195000000000000034,99.553000549632642446
0.196000000000000035,98.281331414782613365
0.197000000000000036,97.019621157414860591
0.198000000000000037,95.767876004058052786
0.199000000000000038,94.526133779334841734
0.200000000000000039,93.294460019209537904
0.201000000000000040,92.072943926567404560
0.202000000000000041,90.861694301639573723
0.203000000000000042,89.660835555046674017
0.204000000000000042,88.470503888413105642
0.205000000000000043,87.290843706914557742
0.206000000000000044,86.122004309913904763
0.207000000000000045,84.964136890053680418
0.208000000000000046,83.817391857751957218
0.209000000000000047,82.681916496872972289
0.210000000000000048,81.557852948253866998
0.211000000000000049,80.445336510575074840
0.212000000000000050,79.344494242558411656
0.213000000000000050,78.255443846460678969
0.214000000000000051,77.178292810093381604
0.215000000000000052,76.113137782947958954
0.216000000000000053,75.060064161261109916
0.217000000000000054,74.019145856844076548
0.218000000000000055,72.990445225078332214
0.219000000000000056,71.974013128512964954
0.220000000000000057,70.969889113866287289
0.221000000000000058,69.978101681843455140
0.222000000000000058,68.998668630938979618
0.223000000000000059,68.031597458234600140
0.224000000000000060,67.076885802066456677
0.225000000000000061,66.134521913277453109
0.226000000000000062,65.204485143550570569
0.227000000000000063,64.286746441013974618
0.228000000000000064,63.381268844896126780
0.229000000000000065,62.488007972473795348
0.230000000000000066,61.606912492894615241
0.231000000000000066,60.737924583659449240
0.232000000000000067,59.880980366621983535
0.233000000000000068,59.036010321304878801
0.234000000000000069,58.202939674148296945
0.235000000000000070,57.381688763005378462
0.236000000000000071,56.572173376786892618
0.237000000000000072,55.774305070642675730
0.238000000000000073,54.987991457459997946
0.239000000000000073,54.213136476768468697
0.240000000000000074,53.449640642372699517
0.241000000000000075,52.697401270203521051
0.242000000000000076,51.956312687986994092
0.243000000000000077,51.226266428391099339
0.244000000000000078,50.507151407328400694
0.245000000000000079,49.798854089075021534
0.246000000000000080,49.101258639821537599
0.247000000000000081,48.414247071200968264
0.248000000000000081,47.737699375252226730
0.249000000000000082,47.071493652177316847
0.250000000000000111,46.415506232139335907
0.251000000000000112,45.769611792232929304
0.252000000000000113,45.133683469638640418
0.253000000000000114,44.507592971854037955
0.254000000000000115,43.891210684775003870
0.255000000000000115,43.284405779286693416
0.256000000000000116,42.687046316913004773
0.257000000000000117,42.098999354969031117
0.258000000000000118,41.520131051563723190
0.259000000000000119,40.950306770709396176
0.260000000000000120,40.389391187711431996
0.261000000000000121,39.837248394937297746
0.262000000000000122,39.293742007996222299
0.263000000000000123,38.758735272301905184
0.264000000000000123,38.232091169938783537
0.265000000000000124,37.713672526708066357
0.266000000000000125,37.203342119192249982
0.267000000000000126,36.700962781646794042
0.268000000000000127,36.206397512502036307
0.269000000000000128,35.719509580241194158
0.270000000000000129,35.240162628405926171
0.271000000000000130,34.768220779473026028
0.272000000000000131,34.303548737341621688
0.273000000000000131,33.846011888170266957
0.274000000000000132,33.395476399306588178
0.275000000000000133,32.951809316058998434
0.276000000000000134,32.514878656068290752
0.277000000000000135,32.084553501049676072
0.278000000000000136,31.660704085687740417
0.279000000000000137,31.243201883482338843
0.280000000000000138,30.831919689359818193
0.281000000000000139,30.426731698879997623
0.282000000000000139,30.027513583888275406
0.283000000000000140,29.634142564478999304
0.284000000000000141,29.246497477156037093
0.285000000000000142,28.864458839093309450
0.286000000000000143,28.487908908417590936
0.287000000000000144,28.116731740452792110
0.288000000000000145,27.750813239882859307
0.289000000000000146,27.390041208807293316
0.290000000000000147,27.034305390679168823
0.291000000000000147,26.683497510131672925
0.292000000000000148,26.337511308713054348
0.293000000000000149,25.996242576564714710
0.294000000000000150,25.659589180089245275
0.295000000000000151,25.327451085668133857
0.296000000000000152,24.999730379499276012
0.297000000000000153,24.676331283635384750
0.298000000000000154,24.357160168313157556
0.299000000000000155,24.042125560671870232
0.300000000000000155,23.731138149967204498
0.301000000000000156,23.424110789393324694
0.302000000000000157,23.120958494631146607
0.303000000000000158,22.821598439246635337
0.304000000000000159,22.525949947066358448
0.305000000000000160,22.233934481661432159
0.306000000000000161,21.945475633073385779
0.307000000000000162,21.660499101917530140
0.308000000000000163,21.378932681000861749
0.309000000000000163,21.100706234592145449
0.310000000000000164,20.825751675482063519
0.311000000000000165,20.554002939970917652
0.312000000000000166,20.285395960920507008
0.313000000000000167,20.019868639005700572
0.314000000000000168,19.757360812299197050
0.315000000000000169,19.497814224321206922
0.316000000000000170,19.241172490683101870
0.317000000000000171,18.987381064451689383
0.318000000000000171,18.736387200357377480
0.319000000000000172,18.488139917966663006
0.320000000000000173,18.242589963935643027
0.321000000000000174,17.999689773457884456
0.322000000000000175,17.759393431016018639
0.323000000000000176,17.521656630542715050
0.324000000000000177,17.286436635092567116
0.325000000000000178,17.053692236122550696
0.326000000000000179,16.823383712474289098
0.327000000000000179,16.595472789147606818
0.328000000000000180,16.369922595950281874
0.329000000000000181,16.146697626105119383
0.330000000000000182,15.925763694890955335
0.331000000000000183,15.707087898390341252
0.332000000000000184,15.490638572412350982
0.333000000000000185,15.276385251655227648
0.334000000000000186,15.064298629169211807
0.335000000000000187,14.854350516176339170
0.336000000000000187,14.646513802299910623
0.337000000000000188,14.440762416252951539
0.338000000000000189,14.237071287030918398
0.339000000000000190,14.035416305650585400
0.340000000000000191,13.835774287473814326
0.341000000000000192,13.638122935151205439
0.342000000000000193,13.442440802217618057
0.343000000000000194,13.248707257368405266
0.344000000000000195,13.056902449442452152
0.345000000000000195,12.867007273134664302
0.346000000000000196,12.679003335458533641
0.347000000000000197,12.492872922976221872
0.348000000000000198,12.308598969811335166
0.349000000000000199,12.126165026457140783
0.350000000000000200,11.945555229390675933
0.351000000000000201,11.766754271500960982
0.352000000000000202,11.589747373337704772
0.353000000000000203,11.414520255184637421
0.354000000000000203,11.241059109959959272
0.355000000000000204,11.069350576944760434
0.356000000000000205,10.899381716338416126
0.357000000000000206,10.731139984638442542
0.358000000000000207,10.564613210841258706
0.359000000000000208,10.399789573458475544
0.360000000000000209,10.236657578342301278
0.361000000000000210,10.075206037312758767
0.362000000000000210,9.915424047577804600
0.363000000000000211,9.757300971937054257
0.364000000000000212,9.600826419758488939
0.365000000000000213,9.445990228716890869
0.366000000000000214,9.292782447282023739
0.367000000000000215,9.141193317943915986
0.368000000000000216,8.991213261161687953
0.369000000000000217,8.842832860022499020
0.370000000000000218,8.696042845595869153
0.371000000000000218,8.550834082969021921
0.372000000000000219,8.407197557947849731
0.373000000000000220,8.265124364408238833
0.374000000000000221,8.124605692282074187
0.375000000000000222,7.985632816162109293
0.376000000000000223,7.848197084509410892
0.377000000000000224,7.712289909447493486
0.378000000000000225,7.577902757126674160
0.379000000000000226,7.445027138642503317
0.380000000000000226,7.313654601491724527
0.381000000000000227,7.183776721549689270
0.382000000000000228,7.055385095552777486
0.383000000000000229,6.928471334069757681
0.384000000000000230,6.803027054945952834
0.385000000000000231,6.679043877204220436
0.386000000000000232,6.556513415387042798
0.387000000000000233,6.435427274323918034
0.388000000000000234,6.315777044308795496
0.389000000000000234,6.197554296672153740
0.390000000000000235,6.080750579732745464
0.391000000000000236,5.965357415114253214
0.392000000000000237,5.851366294412224889
0.393000000000000238,5.738768676197098628
0.394000000000000239,5.627555983339207479
0.395000000000000240,5.517719600642093880
0.396000000000000241,5.409250872770615892
0.397000000000000242,5.302141102460748101
0.398000000000000242,5.196381548998110667
0.399000000000000243,5.091963426952808014
0.400000000000000244,4.988877905158149773
0.401000000000000245,4.887116105921376352
0.402000000000000246,4.786669104454878365
0.403000000000000247,4.687527928516280085
0.404000000000000248,4.589683558246674622
0.405000000000000249,4.493126926196098658
0.406000000000000250,4.397848917526012258
0.407000000000000250,4.303840370378551050
0.408000000000000251,4.211092076402889184
0.409000000000000252,4.119594781429215757
0.410000000000000253,4.029339186281136520
0.411000000000000254,3.940315947717671463
0.412000000000000255,3.852515679496330225
0.413000000000000256,3.765928953548852043
0.414000000000000257,3.680546301261870212
0.415000000000000258,3.596358214854521229
0.416000000000000258,3.513355148845890508
0.417000000000000259,3.431527521604905928
0.418000000000000260,3.350865716976033859
0.419000000000000261,3.271360085973978649
0.420000000000000262,3.193000948541271811
0.421000000000000263,3.115778595362466596
0.422000000000000264,3.039683289729315341
0.423000000000000265,2.964705269451184844
0.424000000000000266,2.890834748805445109
0.425000000000000266,2.818061920522779040
0.426000000000000267,2.746376957802400209
0.427000000000000268,2.675770016352668978
0.428000000000000269,2.606231236452571487
0.429000000000000270,2.537750745029876853
0.430000000000000271,2.470318657751951363
0.431000000000000272,2.403925081125364738
0.432000000000000273,2.338560114600729545
0.433000000000000274,2.274213852679280556
0.434000000000000274,2.210876387017912670
0.435000000000000275,2.148537808529671356
0.436000000000000276,2.087188209476718903
0.437000000000000277,2.026817685553022663
0.438000000000000278,1.967416337954241978
0.439000000000000279,1.908974275432296697
0.440000000000000280,1.851481616332389946
0.441000000000000281,1.794928490610348870
0.442000000000000282,1.739305041828193010
0.443000000000000282,1.684601429126209471
0.444000000000000283,1.630807829169632628
0.445000000000000284,1.577914438068459546
0.446000000000000285,1.525911473268809715
0.447000000000000286,1.474789175414451758
0.448000000000000287,1.424537810177304964
0.449000000000000288,1.375147670055638649
0.450000000000000289,1.326609076139007248
0.451000000000000290,1.278912379838908375
0.452000000000000290,1.232047964584234823
0.453000000000000291,1.186006247480887676
0.454000000000000292,1.140777680934682348
0.455000000000000293,1.096352754237045035
0.456000000000000294,1.052721995112930298
0.457000000000000295,1.009875971230450808
0.458000000000000296,0.967805291671915313
0.459000000000000297,0.926500608365861900
0.460000000000000298,0.885952617479874638
0.461000000000000298,0.846152060773975867
0.462000000000000299,0.807089726914425376
0.463000000000000300,0.768756452747897723
0.464000000000000301,0.731143124535922340
0.465000000000000302,0.694240679149675910
0.466000000000000303,0.658040105225162764
0.467000000000000304,0.622532444278820818
0.468000000000000305,0.587708791783859263
0.469000000000000306,0.553560298207349755
0.470000000000000306,0.520078170008360319
0.471000000000000307,0.487253670597443456
0.472000000000000308,0.455078121257687207
0.473000000000000309,0.423542902027655432
0.474000000000000310,0.392639452546657497
0.475000000000000311,0.362359272862592230
0.476000000000000312,0.332693924202905944
0.477000000000000313,0.303635029708929249
0.478000000000000314,0.275174275134219770
0.479000000000000314,0.247303409507199451
0.480000000000000315,0.220014245758713534
0.481000000000000316,0.193298661314896869
0.482000000000000317,0.167148598655956437
0.483000000000000318,0.141556065841318773
0.484000000000000319,0.116513137001726275
0.485000000000000320,0.092011952798853797
0.486000000000000321,0.068044720852929383
0.487000000000000322,0.044603716138986504
0.488000000000000322,0.021681281352374571
0.489000000000000323,-0.000730172756036396
0.490000000000000324,-0.022638167074225102
0.491000000000000325,-0.044050153852430010
0.492000000000000326,-0.064973516454990540
0.493000000000000327,-0.085415569140053021
0.494000000000000328,-0.105383556866461434
0.495000000000000329,-0.124884655127329422
0.496000000000000330,-0.143925969809561044
0.497000000000000330,-0.162514537078909033
0.498000000000000331,-0.180657323289687699
0.499000000000000332,-0.198361224918833179
0.500000000000000333,-0.215633068523538363
0.501000000000000334,-0.232479610721833874
0.502000000000000335,-0.248907538195691280
0.503000000000000336,-0.264923467715864613
0.504000000000000337,-0.280533946188033623
0.505000000000000338,-0.295745450719559488
0.506000000000000338,-0.310564388706337513
0.507000000000000339,-0.324997097939163926
0.508000000000000340,-0.339049846728983861
0.509000000000000341,-0.352728834050609397
0.510000000000000342,-0.366040189704141317
0.511000000000000343,-0.378989974493767423
0.512000000000000344,-0.391584180423195760
0.513000000000000345,-0.403828730907312861
0.514000000000000346,-0.415729480999535994
0.515000000000000346,-0.427292217634239357
0.516000000000000347,-0.438522659883828492
0.517000000000000348,-0.449426459229954944
0.518000000000000349,-0.460009199848301520
0.519000000000000350,-0.470276398906548931
0.520000000000000351,-0.480233506874895966
0.521000000000000352,-0.489885907848867874
0.522000000000000353,-0.499238919883693566
0.523000000000000353,-0.508297795340020064
0.524000000000000354,-0.517067721240362155
0.525000000000000355,-0.525553819635928066
0.526000000000000356,-0.533761147983315309
0.527000000000000357,-0.541694699530736457
0.528000000000000358,-0.549359403713280847
0.529000000000000359,-0.556760126556864021
0.530000000000000360,-0.563901671090381251
0.531000000000000361,-0.570788777765784294
0.532000000000000361,-0.577426124885602965
0.533000000000000362,-0.583818329037580241
0.534000000000000363,-0.589969945536025220
0.535000000000000364,-0.595885468869586155
0.536000000000000365,-0.601569333154986396
0.537000000000000366,-0.607025912596509287
0.538000000000000367,-0.612259521950740293
0.539000000000000368,-0.617274416996433373
0.540000000000000369,-0.622074795008974890
0.541000000000000369,-0.626664795239332384
0.542000000000000370,-0.631048499396976270
0.543000000000000371,-0.635229932136686548
0.544000000000000372,-0.639213061548800088
0.545000000000000373,-0.643001799652698325
0.546000000000000374,-0.646600002893232606
0.547000000000000375,-0.650011472639815291
0.548000000000000376,-0.653239955687950791
0.549000000000000377,-0.656289144762902898
0.550000000000000377,-0.659162679025331988
0.551000000000000378,-0.661864144578535596
0.552000000000000379,-0.664397074977232882
0.553000000000000380,-0.666764951737506162
0.554000000000000381,-0.668971204847762846
0.555000000000000382,-0.671019213280546589
0.556000000000000383,-0.672912305504851260
0.557000000000000384,-0.674653759998931735
0.558000000000000385,-0.676246805763218384
0.559000000000000385,-0.677694622833303839
0.560000000000000386,-0.679000342792771883
0.561000000000000387,-0.680167049285647307
0.562000000000000388,-0.681197778528339182
0.563000000000000389,-0.682095519820964946
0.564000000000000390,-0.682863216057779332
0.565000000000000391,-0.683503764236662148
0.566000000000000392,-0.684020015967443662
0.567000000000000393,-0.684414777979017841
0.568000000000000393,-0.684690812624973333
0.569000000000000394,-0.684850838387732641
0.570000000000000395,-0.684897530381035624
0.571000000000000396,-0.684833520850575250
0.572000000000000397,-0.684661399672809257
0.573000000000000398,-0.684383714851686475
0.574000000000000399,-0.684002973013292603
0.575000000000000400,-0.683521639898239664
0.576000000000000401,-0.682942140851722335
0.577000000000000401,-0.682266861311197403
0.578000000000000402,-0.681498147291496714
0.579000000000000403,-0.680638305867328319
0.580000000000000404,-0.679689605653177376
0.581000000000000405,-0.678654277280318352
0.582000000000000406,-0.677534513871107080
0.583000000000000407,-0.676332471510255440
0.584000000000000408,-0.675050269713196704
0.585000000000000409,-0.673689991891378348
0.586000000000000409,-0.672253685814411472
0.587000000000000410,-0.670743364069132708
0.588000000000000411,-0.669161004515335778
0.589000000000000412,-0.667508550738342699
0.590000000000000413,-0.665787912498140177
0.591000000000000414,-0.664000966175214202
0.592000000000000415,-0.662149555212957708
0.593000000000000416,-0.660235490556590476
0.594000000000000417,-0.658260551088592161
0.595000000000000417,-0.656226484060670745
0.596000000000000418,-0.654135005522033630
0.597000000000000419,-0.651987800744213031
0.598000000000000420,-0.649786524642138597
0.599000000000000421,-0.647532802191658541
0.600000000000000422,-0.645228228843335527
0.601000000000000423,-0.642874370932539518
0.602000000000000424,-0.640472766085874001
0.603000000000000425,-0.638024923623842333
0.604000000000000425,-0.635532324959748429
0.605000000000000426,-0.632996423994867996
0.606000000000000427,-0.630418647509868868
0.607000000000000428,-0.627800395552342017
0.608000000000000429,-0.625143041820719447
0.609000000000000430,-0.622447934044203621
0.610000000000000431,-0.619716394359053901
0.611000000000000432,-0.616949719680975783
0.612000000000000433,-0.614149182073725819
0.613000000000000433,-0.611316029113938120
0.614000000000000434,-0.608451484252119479
0.615000000000000435,-0.605556747169850640
