# Gypsum-011_BSAI13
# h[nm],U(h)[kJ/mol]
0.149999999999999994,154.756443052148568995
0.150999999999999995,153.259868012294134587
0.151999999999999996,151.737827641478986607
0.152999999999999997,150.174772795838123329
0.153999999999999998,148.579259345486093480
0.154999999999999999,146.967833832826045182
0.156000000000000000,145.356730846565625370
0.157000000000000001,143.758267334556165906
0.158000000000000002,142.179903423627536085
0.159000000000000002,140.624682227691351954
0.160000000000000003,139.092262101551085607
0.161000000000000004,137.580086083385651818
0.162000000000000005,136.084446946212153762
0.163000000000000006,134.601339592099805031
0.164000000000000007,133.127071863109847527
0.165000000000000008,131.658648713116122053
0.166000000000000009,130.193965897670494769
0.167000000000000010,128.731856635730565586
0.168000000000000010,127.272033931094568970
0.169000000000000011,125.814966241579412554
0.170000000000000012,124.361717376851672157
0.171000000000000013,122.913774361756580333
0.172000000000000014,121.472880351927344122
0.173000000000000015,120.040883946226173862
0.174000000000000016,118.619611557058263429
0.175000000000000017,117.210765867910453153
0.176000000000000018,115.815850733276789697
0.177000000000000018,114.436121023563259769
0.178000000000000019,113.072554738044232181
0.179000000000000020,111.725844058423575689
0.180000000000000021,110.396401763968924570
0.181000000000000022,109.084379464773519430
0.182000000000000023,107.789694340162469643
0.183000000000000024,106.512061420975825854
0.184000000000000025,105.251028870672669768
0.185000000000000026,104.006014158708353534
0.186000000000000026,102.776339450384924135
0.187000000000000027,101.561264940129618140
0.188000000000000028,100.360019217413366732
0.189000000000000029,99.171826069666479953
0.190000000000000030,97.995927392337009110
0.191000000000000031,96.831602093506774054
0.192000000000000032,95.678181052170231169
0.193000000000000033,94.535058319617164102
0.194000000000000034,93.401698847275568482
0.195000000000000034,92.277643087052183546
0.196000000000000035,91.162508846787218886
0.197000000000000036,90.055990798770977790
0.198000000000000037,88.957858037808833274
0.199000000000000038,87.867950071029355286
0.200000000000000039,86.786171597967836533
0.201000000000000040,85.712486409357694583
0.202000000000000041,84.646910698976981280
0.203000000000000042,83.589506046819366247
0.204000000000000042,82.540372295366296385
0.205000000000000043,81.499640505057442397
0.206000000000000044,80.467466141086291032
0.207000000000000045,79.444022612038779130
0.208000000000000046,78.429495252055630772
0.209000000000000047,77.424075812378234218
0.210000000000000048,76.427957505427656315
0.211000000000000049,75.441330624946672856
0.212000000000000050,74.464378749105847533
0.213000000000000050,73.497275519671674715
0.214000000000000051,72.540181979150588631
0.215000000000000052,71.593244439022626580
0.216000000000000053,70.656592845520791002
0.217000000000000054,69.730339604638572837
0.218000000000000055,68.814578824919621525
0.219000000000000056,67.909385934858022438
0.220000000000000057,67.014817631194503633
0.221000000000000058,66.130912114828134918
0.222000000000000058,65.257689572282259860
0.223000000000000059,64.395152862505398161
0.224000000000000060,63.543288371096799949
0.225000000000000061,62.702066996694597378
0.226000000000000062,61.871445237139241158
0.227000000000000063,61.051366346026455290
0.228000000000000064,60.241761533317927046
0.229000000000000065,59.442551186709934541
0.230000000000000066,58.653646093423461139
0.231000000000000066,57.874948644927449948
0.232000000000000067,57.106354009809230377
0.233000000000000068,56.347751262538054107
0.234000000000000069,55.599024458214536537
0.235000000000000070,54.860053645549179180
0.236000000000000071,54.130715812264476483
0.237000000000000072,53.410885758864672823
0.238000000000000073,52.700436898272030817
0.239000000000000073,51.999241980192621781
0.240000000000000074,51.307173740255848315
0.241000000000000075,50.624105474983906561
0.242000000000000076,49.949911544497197724
0.243000000000000077,49.284467805564460718
0.244000000000000078,48.627651978173396685
0.245000000000000079,47.979343949240089273
0.246000000000000080,47.339426017409337533
0.247000000000000081,46.707783083130358648
0.248000000000000081,46.084302788339250867
0.249000000000000082,45.468875610149659394
0.250000000000000111,44.861394912957095471
0.251000000000000112,44.261756963310169510
0.252000000000000113,43.669860911802217629
0.253000000000000114,43.085608746099133270
0.254000000000000115,42.508905219047903756
0.255000000000000115,41.939657755616146062
0.256000000000000116,41.377776342198060888
0.257000000000000117,40.823173401595454379
0.258000000000000118,40.275763656745176888
0.259000000000000119,39.735463986024292637
0.260000000000000120,39.202193272720919026
0.261000000000000121,38.675872251018958536
0.262000000000000122,38.156423350608626777
0.263000000000000123,37.643770541805579910
0.264000000000000123,37.137839182839563534
0.265000000000000124,36.638555870762971267
0.266000000000000125,36.145848297227843204
0.267000000000000126,35.659645110191377171
0.268000000000000127,35.179875782432176834
0.269000000000000128,34.706470487594621943
0.270000000000000129,34.239359984326526387
0.271000000000000130,33.778475508934789673
0.272000000000000131,33.323748676856453699
0.273000000000000131,32.875111393126474013
0.274000000000000132,32.432495771919874983
0.275000000000000133,31.995834065152763515
0.276000000000000134,31.565058600044739734
0.277000000000000135,31.140101725473535055
0.278000000000000136,30.720895766890066625
0.279000000000000137,30.307372989508944983
0.280000000000000138,29.899465569444878099
0.281000000000000139,29.497105572427891218
0.282000000000000139,29.100224939700957805
0.283000000000000140,28.708755480679997163
0.284000000000000141,28.322628871939258488
0.285000000000000142,27.941776662073401383
0.286000000000000143,27.566130281980502303
0.287000000000000144,27.195621060108312150
0.288000000000000145,26.830180242207102737
0.289000000000000146,26.469739015138106453
0.290000000000000147,26.114228534293779660
0.291000000000000147,25.763579954197609823
0.292000000000000148,25.417724461863336671
0.293000000000000149,25.076593312508670408
0.294000000000000150,24.740117867234808102
0.295000000000000151,24.408229632300443512
0.296000000000000152,24.080860299637652844
0.297000000000000153,23.757941788276461637
0.298000000000000154,23.439406286364310006
0.299000000000000155,23.125186293487114852
0.300000000000000155,22.815214663018618779
0.301000000000000156,22.509424644245122238
0.302000000000000157,22.207749924032349043
0.303000000000000158,21.910124667821463618
0.304000000000000159,21.616483559760091282
0.305000000000000160,21.326761841793295815
0.306000000000000161,21.040895351557690418
0.307000000000000162,20.758820558939383716
0.308000000000000163,20.480474601173519034
0.309000000000000163,20.205795316379386861
0.310000000000000164,19.934721275440338673
0.311000000000000165,19.667191812152676533
0.312000000000000166,19.403147051581274951
0.313000000000000167,19.142527936573017655
0.314000000000000168,18.885276252391143714
0.315000000000000169,18.631334649445150831
0.316000000000000170,18.380646664101526255
0.317000000000000171,18.133156737570448769
0.318000000000000171,17.888810232872707218
0.319000000000000172,17.647553449899294975
0.320000000000000173,17.409333638583909476
0.321000000000000174,17.174099010215556405
0.322000000000000175,16.941798746924416008
0.323000000000000176,16.712383009380001653
0.324000000000000177,16.485802942745543476
0.325000000000000178,16.262010680936853646
0.326000000000000179,16.040959349237809306
0.327000000000000179,15.822603065327886185
0.328000000000000180,15.606896938779987849
0.329000000000000181,15.393797069089197649
0.330000000000000182,15.183260542294794604
0.331000000000000183,14.975245426259579773
0.332000000000000184,14.769710764671566849
0.333000000000000185,14.566616569833760408
0.334000000000000186,14.365923814308406037
0.335000000000000187,14.167594421481847888
0.336000000000000187,13.971591255116342367
0.337000000000000188,13.777878107954601106
0.338000000000000189,13.586419689442095660
0.339000000000000190,13.397181612631527514
0.340000000000000191,13.210130380332691047
0.341000000000000192,13.025233370569859304
0.342000000000000193,12.842458821407324976
0.343000000000000194,12.661775815202366502
0.344000000000000195,12.483154262343461482
0.345000000000000195,12.306564884529482384
0.346000000000000196,12.131979197644309210
0.347000000000000197,11.959369494279098234
0.348000000000000198,11.788708825952809889
0.349000000000000199,11.619970985079500991
0.350000000000000200,11.453130486728920090
0.351000000000000201,11.288162550225180780
0.352000000000000202,11.125043080625919956
0.353000000000000203,10.963748650122720818
0.354000000000000203,10.804256479401200153
0.355000000000000204,10.646544418997596182
0.356000000000000205,10.490590930686332527
0.357000000000000206,10.336375068931205945
0.358000000000000207,10.183876462431120657
0.359000000000000208,10.033075295789140924
0.360000000000000209,9.883952291331757678
0.361000000000000210,9.736488691103861726
0.362000000000000210,9.590666239062533904
0.363000000000000211,9.446467163491606200
0.364000000000000212,9.303874159656899678
0.365000000000000213,9.162870372720599121
0.366000000000000214,9.023439380931591813
0.367000000000000215,8.885565179107175027
0.368000000000000216,8.749232162419826153
0.369000000000000217,8.614425110501700900
0.370000000000000218,8.481129171877814343
0.371000000000000218,8.349329848737847115
0.372000000000000219,8.219012982055005523
0.373000000000000220,8.090164737059469147
0.374000000000000221,7.962771589072556999
0.375000000000000222,7.836820309706991949
0.376000000000000223,7.712297953437177611
0.377000000000000224,7.589191844542885867
0.378000000000000225,7.467489564428575477
0.379000000000000226,7.347178939319779722
0.380000000000000226,7.228248028337082687
0.381000000000000227,7.110685111947693926
0.382000000000000228,6.994478680793558389
0.383000000000000229,6.879617424894601818
0.384000000000000230,6.766090223224831668
0.385000000000000231,6.653886133658590829
0.386000000000000232,6.542994383283646798
0.387000000000000233,6.433404359077246504
0.388000000000000234,6.325105598940993445
0.389000000000000234,6.218087783089723430
0.390000000000000235,6.112340725789350060
0.391000000000000236,6.007854367438278942
0.392000000000000237,5.904618766986504674
0.393000000000000238,5.802624094686477108
0.394000000000000239,5.701860625169336672
0.395000000000000240,5.602318730839976446
0.396000000000000241,5.503988875584217233
0.397000000000000242,5.406861608781158068
0.398000000000000242,5.310927559613561222
0.399000000000000243,5.216177431669210662
0.400000000000000244,5.122601997825721121
0.401000000000000245,5.030192095411546660
0.402000000000000246,4.938938621635744930
0.403000000000000247,4.848832529278774395
0.404000000000000248,4.759864822637030812
0.405000000000000249,4.672026553713371833
0.406000000000000250,4.585308818646201878
0.407000000000000250,4.499702754369470981
0.408000000000000251,4.415199535496133088
0.409000000000000252,4.331790371417601371
0.410000000000000253,4.249466503611716739
0.411000000000000254,4.168219203151949159
0.412000000000000255,4.088039768410540731
0.413000000000000256,4.008919522948313663
0.414000000000000257,3.930849813584190056
0.415000000000000258,3.853822008637217245
0.416000000000000258,3.777827496334437374
0.417000000000000259,3.702857683377566822
0.418000000000000260,3.628903993662043970
0.419000000000000261,3.555957867141677831
0.420000000000000262,3.484010758832702948
0.421000000000000263,3.413054137950730649
0.422000000000000264,3.343079487174646314
0.423000000000000265,3.274078302031258492
0.424000000000000266,3.206042090394941368
0.425000000000000266,3.138962372096496978
0.426000000000000267,3.072830678635615875
0.427000000000000268,3.007638552991517500
0.428000000000000269,2.943377549526496217
0.429000000000000270,2.880039233977119473
0.430000000000000271,2.817615183528200173
0.431000000000000272,2.756096986964528650
0.432000000000000273,2.695476244895792295
0.433000000000000274,2.635744570049999957
0.434000000000000274,2.576893587630999960
0.435000000000000275,2.518914935735885319
0.436000000000000276,2.461800265828005596
0.437000000000000277,2.405541243261701823
0.438000000000000278,2.350129547854834300
0.439000000000000279,2.295556874505379152
0.440000000000000280,2.241814933848518265
0.441000000000000281,2.188895452950781362
0.442000000000000282,2.136790176037820288
0.443000000000000282,2.085490865252754400
0.444000000000000283,2.034989301441869625
0.445000000000000284,1.985277284964857669
0.446000000000000285,1.936346636526655063
0.447000000000000286,1.888189198028229043
0.448000000000000287,1.840796833433734125
0.449000000000000288,1.794161429651505824
0.450000000000000289,1.748274897426587815
0.451000000000000290,1.703129172242507483
0.452000000000000290,1.658716215230109814
0.453000000000000291,1.615028014081498764
0.454000000000000292,1.572056583967040400
0.455000000000000293,1.529793968453634800
0.456000000000000294,1.488232240422508790
0.457000000000000295,1.447363502984801986
0.458000000000000296,1.407179890393485788
0.459000000000000297,1.367673568950019902
0.460000000000000298,1.328836737904421250
0.461000000000000298,1.290661630347395450
0.462000000000000299,1.253140514093298297
0.463000000000000300,1.216265692552788158
0.464000000000000301,1.180029505594023975
0.465000000000000302,1.144424330391472511
0.466000000000000303,1.109442582261331411
0.467000000000000304,1.075076715482641720
0.468000000000000305,1.041319224103411489
0.469000000000000306,1.008162642730866754
0.470000000000000306,0.975599547305153747
0.471000000000000307,0.943622555855951672
0.472000000000000308,0.912224329241318799
0.473000000000000309,0.881397571868230423
0.474000000000000310,0.851135032394455981
0.475000000000000311,0.821429504411180789
0.476000000000000312,0.792273827106160011
0.477000000000000313,0.763660885906881970
0.478000000000000314,0.735583613103647838
0.479000000000000314,0.708034988452131087
0.480000000000000315,0.681008039755344075
0.481000000000000316,0.654495843424727886
0.482000000000000317,0.628491525020313468
0.483000000000000318,0.602988259769773771
0.484000000000000319,0.577979273066325239
0.485000000000000320,0.553457840945464352
0.486000000000000321,0.529417290540442953
0.487000000000000322,0.505851000516561289
0.488000000000000322,0.482752401484329519
0.489000000000000323,0.460114976391474362
0.490000000000000324,0.437932260893962422
0.491000000000000325,0.416197843706123671
0.492000000000000326,0.394905366929987289
0.493000000000000327,0.374048526363979339
0.494000000000000328,0.353621071791195507
0.495000000000000329,0.333616807247344105
0.496000000000000330,0.314029591268693231
0.497000000000000330,0.294853337120036307
0.498000000000000331,0.276082013003178861
0.499000000000000332,0.257709642245916026
0.500000000000000333,0.239730303471900719
0.501000000000000334,0.222138130751712654
0.502000000000000335,0.204927313735239564
0.503000000000000336,0.188092097765828054
0.504000000000000337,0.171626783976365965
0.505000000000000338,0.155525729367696097
0.506000000000000338,0.139783346869605196
0.507000000000000339,0.124394105384719816
0.508000000000000340,0.109352529815687549
0.509000000000000341,0.094653201075821980
0.510000000000000342,0.080290756083757200
0.511000000000000343,0.066259887742217277
0.512000000000000344,0.052555344901428235
0.513000000000000345,0.039171932307411894
0.514000000000000346,0.026104510535481684
0.515000000000000346,0.013347995909394551
0.516000000000000347,0.000897360406404246
0.517000000000000348,-0.011252368451417371
0.518000000000000349,-0.023106107719187773
0.519000000000000350,-0.034668719164309914
0.520000000000000351,-0.045945009414159722
0.521000000000000352,-0.056939730116219146
0.522000000000000353,-0.067657578110083536
0.523000000000000353,-0.078103195611204976
0.524000000000000354,-0.088281170405894921
0.525000000000000355,-0.098196036057320038
0.526000000000000356,-0.107852272122085785
0.527000000000000357,-0.117254304377172144
0.528000000000000358,-0.126406505056786495
0.529000000000000359,-0.135313193098892198
0.530000000000000360,-0.143978634400998673
0.531000000000000361,-0.152407042084983957
0.532000000000000361,-0.160602576770566885
0.533000000000000362,-0.168569346857141700
0.534000000000000363,-0.176311408813627279
0.535000000000000364,-0.183832767476118542
0.536000000000000365,-0.191137376352891269
0.537000000000000366,-0.198229137936619088
0.538000000000000367,-0.205111904023350167
0.539000000000000368,-0.211789476038126478
0.540000000000000369,-0.218265605366784049
0.541000000000000369,-0.224543993693822358
0.542000000000000370,-0.230628293345889634
0.543000000000000371,-0.236522107640792706
0.544000000000000372,-0.242228991241622504
0.545000000000000373,-0.247752450515818567
0.546000000000000374,-0.253095943898877962
0.547000000000000375,-0.258262882262455862
0.548000000000000376,-0.263256629286645782
0.549000000000000377,-0.268080501836129526
0.550000000000000377,-0.272737770340073626
0.551000000000000378,-0.277231659175373069
0.552000000000000379,-0.281565347053203019
0.553000000000000380,-0.285741967408511155
0.554000000000000381,-0.289764608792275724
0.555000000000000382,-0.293636315266393000
0.556000000000000383,-0.297360086800831591
0.557000000000000384,-0.300938879673032900
0.558000000000000385,-0.304375606869178861
0.559000000000000385,-0.307673138487278230
0.560000000000000386,-0.310834302141827890
0.561000000000000387,-0.313861883369835781
0.562000000000000388,-0.316758626038052160
0.563000000000000389,-0.319527232751290413
0.564000000000000390,-0.322170365261557845
0.565000000000000391,-0.324690644877919543
0.566000000000000392,-0.327090652876884769
0.567000000000000393,-0.329372930913227058
0.568000000000000393,-0.331539981430971520
0.569000000000000394,-0.333594268074514533
0.570000000000000395,-0.335538216099701525
0.571000000000000396,-0.337374212784644467
0.572000000000000397,-0.339104607840299666
0.573000000000000398,-0.340731713820518034
0.574000000000000399,-0.342257806531549469
0.575000000000000400,-0.343685125440824524
0.576000000000000401,-0.345015874084894925
0.577000000000000401,-0.346252220476493899
0.578000000000000402,-0.347396297510483787
0.579000000000000403,-0.348450203368657063
0.580000000000000404,-0.349416001923333275
0.581000000000000405,-0.350295723139506743
0.582000000000000406,-0.351091363475635743
0.583000000000000407,-0.351804886282798379
0.584000000000000408,-0.352438222202272611
0.585000000000000409,-0.352993269561371392
0.586000000000000409,-0.353471894767452444
0.587000000000000410,-0.353875932700109141
0.588000000000000411,-0.354207187101306775
0.589000000000000412,-0.354467430963593622
0.590000000000000413,-0.354658406916118996
0.591000000000000414,-0.354781827608530720
0.592000000000000415,-0.354839376092644654
0.593000000000000416,-0.354832706201788917
0.594000000000000417,-0.354763442927802930
0.595000000000000417,-0.354633182795688173
0.596000000000000418,-0.354443494235686274
0.597000000000000419,-0.354195917952969286
0.598000000000000420,-0.353891967294669596
0.599000000000000421,-0.353533128614380687
0.600000000000000422,-0.353120861633975658
0.601000000000000423,-0.352656599802722792
0.602000000000000424,-0.352141750653731322
0.603000000000000425,-0.351577696157591935
0.604000000000000425,-0.350965793073226062
0.605000000000000426,-0.350307373295919822
0.606000000000000427,-0.349603744202533762
0.607000000000000428,-0.348856188993726835
0.608000000000000429,-0.348065967033426182
0.609000000000000430,-0.347234314185202231
0.610000000000000431,-0.346362443145820875
0.611000000000000432,-0.345451543775744496
0.612000000000000433,-0.344502783426656745
0.613000000000000433,-0.343517307266001382
0.614000000000000434,-0.342496238598479719
0.615000000000000435,-0.341440679184509155
