# Gypsum-011_BSAI24
# h[nm],U(h)[kJ/mol]
0.149999999999999994,133.659938613868888524
0.150999999999999995,131.423492313619334482
0.151999999999999996,130.126243185239502509
0.152999999999999997,128.975817911543572336
0.153999999999999998,127.704919960763135123
0.154999999999999999,126.284480585771945016
0.156000000000000000,124.771688119738541900
0.157000000000000001,123.236508001802462786
0.158000000000000002,121.731798166358615276
0.159000000000000002,120.285999883300021907
0.160000000000000003,118.906191918285159659
0.161000000000000004,117.584769482980206590
0.162000000000000005,116.306318716062762064
0.163000000000000006,115.053184790434215756
0.164000000000000007,113.809294921839665449
0.165000000000000008,112.562334788502170113
0.166000000000000009,111.304605660070279782
0.167000000000000010,110.032946988053211612
0.168000000000000010,108.748079552838163409
0.169000000000000011,107.453657433879612881
0.170000000000000012,106.155241192484254498
0.171000000000000013,104.859334300232120540
0.172000000000000014,103.572566429940209787
0.173000000000000015,102.301062493402724840
0.174000000000000016,101.050004513043319321
0.175000000000000017,99.823372649108108590
0.176000000000000018,98.623839692752966357
0.177000000000000018,97.452787858269061871
0.178000000000000019,96.310415814100949206
0.179000000000000020,95.195905981944093810
0.180000000000000021,94.107625962575497169
0.181000000000000022,93.043342596969964120
0.182000000000000023,92.000431997294569442
0.183000000000000024,90.976073461269251652
0.184000000000000025,89.967419262121467227
0.185000000000000026,88.971735757689089041
0.186000000000000026,87.986514047598149091
0.187000000000000027,87.009550547564131762
0.188000000000000028,86.038999401993237370
0.189000000000000029,85.073399697231053551
0.190000000000000030,84.111681052831713146
0.191000000000000031,83.153151441561220736
0.192000000000000032,82.197471099403799144
0.193000000000000033,81.244616204923232772
0.194000000000000034,80.294835693288888478
0.195000000000000034,79.348604174120609400
0.196000000000000035,78.406573484154961307
0.197000000000000036,77.469524956637314972
0.198000000000000037,76.538324052369333117
0.199000000000000038,75.613878588758524302
0.200000000000000039,74.697101433660606062
0.201000000000000040,73.788878206371506963
0.202000000000000041,72.890040251376007063
0.203000000000000042,72.001342921274044784
0.204000000000000042,71.123449021631927280
0.205000000000000043,70.256917128973583431
0.206000000000000044,69.402194389531203456
0.207000000000000045,68.559613336081071111
0.208000000000000046,67.729392218427648231
0.209000000000000047,66.911638325178259379
0.210000000000000048,66.106353775931410155
0.211000000000000049,65.313443279790831753
0.212000000000000050,64.532723384529049326
0.213000000000000050,63.763932777525461404
0.214000000000000051,63.006743241994641380
0.215000000000000052,62.260770917653168510
0.216000000000000053,61.525587561896998068
0.217000000000000054,60.800731554214699770
0.218000000000000055,60.085718431715022803
0.219000000000000056,59.380050786381261219
0.220000000000000057,58.683227394307607483
0.221000000000000058,57.994751483292610317
0.222000000000000058,57.314138077495627499
0.223000000000000059,56.640920386308458490
0.224000000000000060,55.974655229168071457
0.225000000000000061,55.314927508854985660
0.226000000000000062,54.661353763067531020
0.227000000000000063,54.013584837973077413
0.228000000000000064,53.371307738284954780
0.229000000000000065,52.734246716488073048
0.230000000000000066,52.102163669441111438
0.231000000000000066,51.474857914016126870
0.232000000000000067,50.852165414994331627
0.233000000000000068,50.233957538395657139
0.234000000000000069,49.620139402048835109
0.235000000000000070,49.010647892746405319
0.236000000000000071,48.405449416003008878
0.237000000000000072,47.804537440444150320
0.238000000000000073,47.207929894375105562
0.239000000000000073,46.615666467275843843
0.240000000000000074,46.027805863969540212
0.241000000000000075,45.444423054140962392
0.242000000000000076,44.865606554831678920
0.243000000000000077,44.291455778594190917
0.244000000000000078,43.722078475212335036
0.245000000000000079,43.157588290342594917
0.246000000000000080,42.598102460139770642
0.247000000000000081,42.043739656928941884
0.248000000000000081,41.494617997293921974
0.249000000000000082,40.950853220579929825
0.250000000000000111,40.412557042761079629
0.251000000000000112,39.879835687896907359
0.252000000000000113,39.352788596992581915
0.253000000000000114,38.831507311972970342
0.254000000000000115,38.316074530668110754
0.255000000000000115,37.806563327170593425
0.256000000000000116,37.303036530648213898
0.257000000000000117,36.805546254656874794
0.258000000000000118,36.314133568182981548
0.259000000000000119,35.828828299029410687
0.260000000000000120,35.349648959726692965
0.261000000000000121,34.876602785882319324
0.262000000000000122,34.409685876757478695
0.263000000000000123,33.948883427864124940
0.264000000000000123,33.494170045490108123
0.265000000000000124,33.045510133269651476
0.266000000000000125,32.602858341207124226
0.267000000000000126,32.166160067918475818
0.268000000000000127,31.735352007266367735
0.269000000000000128,31.310362731019285576
0.270000000000000129,30.891113299651408397
0.271000000000000130,30.477517893910174962
0.272000000000000131,30.069484460303577578
0.273000000000000131,29.666915364191545734
0.274000000000000132,29.269708044699989102
0.275000000000000133,28.877755666205406015
0.276000000000000134,28.490947761658201642
0.277000000000000135,28.109170863520859029
0.278000000000000136,27.732309118586989882
0.279000000000000137,27.360244883419330364
0.280000000000000138,26.992859297595032331
0.281000000000000139,26.630032832373025542
0.282000000000000139,26.271645812801398989
0.283000000000000140,25.917578911659916230
0.284000000000000141,25.567713613984782484
0.285000000000000142,25.221932651248636148
0.286000000000000143,24.880120404569080250
0.287000000000000144,24.542163276594216370
0.288000000000000145,24.207950031963139992
0.289000000000000146,23.877372106466047796
0.290000000000000147,23.550323885230493914
0.291000000000000147,23.226702950440930806
0.292000000000000148,22.906410299257252916
0.293000000000000149,22.589350532736883537
0.294000000000000150,22.275432016683886616
0.295000000000000151,21.964567015450320753
0.296000000000000152,21.656671799799276812
0.297000000000000153,21.351666730008204809
0.298000000000000154,21.049476315445041052
0.299000000000000155,20.750029251891088933
0.300000000000000155,20.453258437912936074
0.301000000000000156,20.159100971603653107
0.302000000000000157,19.867498129020454201
0.303000000000000158,19.578395325644951441
0.304000000000000159,19.291742062181732820
0.305000000000000160,19.007491855994267382
0.306000000000000161,18.725602159453593742
0.307000000000000162,18.446034266446137195
0.308000000000000163,18.168753208253146880
0.309000000000000163,17.893727639976471977
0.310000000000000164,17.620929718643619566
0.311000000000000165,17.350334974081089712
0.312000000000000166,17.081922173598350412
0.313000000000000167,16.815673181476412879
0.314000000000000168,16.551572814205602668
0.315000000000000169,16.289608692366474685
0.316000000000000170,16.029771089997076672
0.317000000000000171,15.772052782238612068
0.318000000000000171,15.516448892000912707
0.319000000000000172,15.262956736338475494
0.320000000000000173,15.011575673178475299
0.321000000000000174,14.762306948993364486
0.322000000000000175,14.515153547962878378
0.323000000000000176,14.270120043124361331
0.324000000000000177,14.027212449964940433
0.325000000000000178,13.786438082866174781
0.326000000000000179,13.547805414769637622
0.327000000000000179,13.311323940392151499
0.328000000000000180,13.077004043280771484
0.329000000000000181,12.844856866961402275
0.330000000000000182,12.614894190399875029
0.331000000000000183,12.387128307961605245
0.332000000000000184,12.161571914024790431
0.333000000000000185,11.938237992372876306
0.334000000000000186,11.717139710464469005
0.335000000000000187,11.498290318653189956
0.336000000000000187,11.281703054405943121
0.337000000000000188,11.067391051545937941
0.338000000000000189,10.855367254525884135
0.339000000000000190,10.645644337717973471
0.340000000000000191,10.438234629689683075
0.341000000000000192,10.233150042418479586
0.342000000000000193,10.030402005383777464
0.343000000000000194,9.830001404461501835
0.344000000000000195,9.631958525534784599
0.345000000000000195,9.436283002723286017
0.346000000000000196,9.242983771124803738
0.347000000000000197,9.052069023954025795
0.348000000000000198,8.863546173956354579
0.349000000000000199,8.677421818968387157
0.350000000000000200,8.493701711491411288
0.351000000000000201,8.312390732139856908
0.352000000000000202,8.133492866823187839
0.353000000000000203,7.957011187516900286
0.354000000000000203,7.782947836476173720
0.355000000000000204,7.611304013744602415
0.356000000000000205,7.442079967809489105
0.357000000000000206,7.275274989254933544
0.358000000000000207,7.110887407264696591
0.359000000000000208,6.948914588827287631
0.360000000000000209,6.789352940497056288
0.361000000000000210,6.632197912567090903
0.362000000000000210,6.477444005511244995
0.363000000000000211,6.325084778555477349
0.364000000000000212,6.175112860240991708
0.365000000000000213,6.027519960844792912
0.366000000000000214,5.882296886526299673
0.367000000000000215,5.739433555072089632
0.368000000000000216,5.598919013114140419
0.369000000000000217,5.460741454700942299
0.370000000000000218,5.324888241104201114
0.371000000000000218,5.191345921748069969
0.372000000000000219,5.060100256151526921
0.373000000000000220,4.931136236778598914
0.374000000000000221,4.804438112695222252
0.375000000000000222,4.679989413935573772
0.376000000000000223,4.557772976484467442
0.377000000000000224,4.437770967786994092
0.378000000000000225,4.319964912700097415
0.379000000000000226,4.204335719805172289
0.380000000000000226,4.090863708004317978
0.381000000000000227,3.979528633327265030
0.382000000000000228,3.870309715879360901
0.383000000000000229,3.763185666865143553
0.384000000000000230,3.658134715625505518
0.385000000000000231,3.555134636630138623
0.386000000000000232,3.454162776370590215
0.387000000000000233,3.355196080102448519
0.388000000000000234,3.258211118388861571
0.389000000000000234,3.163184113400583808
0.390000000000000235,3.070090964930970667
0.391000000000000236,2.978907276087556344
0.392000000000000237,2.889608378624520579
0.393000000000000238,2.802169357883451450
0.394000000000000239,2.716565077312471210
0.395000000000000240,2.632770202536344861
0.396000000000000241,2.550759224952915183
0.397000000000000242,2.470506484833486560
0.398000000000000242,2.391986193907155389
0.399000000000000243,2.315172457411438067
0.400000000000000244,2.240039295593415858
0.401000000000000245,2.166560664647901202
0.402000000000000246,2.094710477081034750
0.403000000000000247,2.024462621489309555
0.404000000000000248,1.955790981746106327
0.405000000000000249,1.888669455589252477
0.406000000000000250,1.823071972604781932
0.407000000000000250,1.758972511603463573
0.408000000000000251,1.696345117388138091
0.409000000000000252,1.635163916911201998
0.410000000000000253,1.575403134822721096
0.411000000000000254,1.517037108410924207
0.412000000000000255,1.460040301937843177
0.413000000000000256,1.404387320373803760
0.414000000000000257,1.350052922535597499
0.415000000000000258,1.297012033633742956
0.416000000000000258,1.245239757235375055
0.417000000000000259,1.194711386649718321
0.418000000000000260,1.145402415744046110
0.419000000000000261,1.097288549198430996
0.420000000000000262,1.050345712208350601
0.421000000000000263,1.004550059644517379
0.422000000000000264,0.959877984680012730
0.423000000000000265,0.916306126894955164
0.424000000000000266,0.873811379869472993
0.425000000000000266,0.832370898276090898
0.426000000000000267,0.791962104482737073
0.427000000000000268,0.752562694678076460
0.428000000000000269,0.714150644530877843
0.429000000000000270,0.676704214395370318
0.430000000000000271,0.640201954074763213
0.431000000000000272,0.604622707154990779
0.432000000000000273,0.569945614921132715
0.433000000000000274,0.536150119868700203
0.434000000000000274,0.503215968822212201
0.435000000000000275,0.471123215673422746
0.436000000000000276,0.439852223751491078
0.437000000000000277,0.409383667837420973
0.438000000000000278,0.379698535834994189
0.439000000000000279,0.350778130110295461
0.440000000000000280,0.322604068511936348
0.441000000000000281,0.295158285083890082
0.442000000000000282,0.268423030482671021
0.443000000000000282,0.242380872110645129
0.444000000000000283,0.217014693976827377
0.445000000000000284,0.192307696296631303
0.446000000000000285,0.168243394841667282
0.447000000000000286,0.144805620050520834
0.448000000000000287,0.121978515911427013
0.449000000000000288,0.099746538627260767
0.450000000000000289,0.078094455073360075
0.451000000000000290,0.057007341058255445
0.452000000000000290,0.036470579397248938
0.453000000000000291,0.016469857808648757
0.454000000000000292,-0.003008833357952589
0.455000000000000293,-0.021979203552005978
0.456000000000000294,-0.040454664601927037
0.457000000000000295,-0.058448333435848231
0.458000000000000296,-0.075973034934514197
0.459000000000000297,-0.093041304908131700
0.460000000000000298,-0.109665393188923016
0.461000000000000298,-0.125857266831625958
0.462000000000000299,-0.141628613414237992
0.463000000000000300,-0.156990844431597054
0.464000000000000301,-0.171955098774671855
0.465000000000000302,-0.186532246288579062
0.466000000000000303,-0.200732891402579355
0.467000000000000304,-0.214567376825680750
0.468000000000000305,-0.228045787301401182
0.469000000000000306,-0.241177953415776386
0.470000000000000306,-0.253973455452778274
0.471000000000000307,-0.266441627291404415
0.472000000000000308,-0.278591560339161992
0.473000000000000309,-0.290432107496697678
0.474000000000000310,-0.301971887148544615
0.475000000000000311,-0.313219287175234451
0.476000000000000312,-0.324182468982149863
0.477000000000000313,-0.334869371540744531
0.478000000000000314,-0.345287715437822940
0.479000000000000314,-0.355445006928974794
0.480000000000000315,-0.365348541992179698
0.481000000000000316,-0.375005410378004223
0.482000000000000317,-0.384422499652805394
0.483000000000000318,-0.393606499231667351
0.484000000000000319,-0.402563904397855943
0.485000000000000320,-0.411301020305763376
0.486000000000000321,-0.419823965964534807
0.487000000000000322,-0.428138678199631861
0.488000000000000322,-0.436250915589718402
0.489000000000000323,-0.444166262376581689
0.490000000000000324,-0.451890132345661777
0.491000000000000325,-0.459427772675134183
0.492000000000000326,-0.466784267751468029
0.493000000000000327,-0.473964542949630807
0.494000000000000328,-0.480973368376095334
0.495000000000000329,-0.487815362573072786
0.496000000000000330,-0.494494996182333613
0.497000000000000330,-0.501016595567345013
0.498000000000000331,-0.507384346392182328
0.499000000000000332,-0.513602297156223853
0.500000000000000333,-0.519674362683378299
0.501000000000000334,-0.525604327564793250
0.502000000000000335,-0.531395849554249677
0.503000000000000336,-0.537052462915245110
0.504000000000000337,-0.542577581719128732
0.505000000000000338,-0.547974503093525467
0.506000000000000338,-0.553246410420500823
0.507000000000000339,-0.558396376483937806
0.508000000000000340,-0.563427366565616317
0.509000000000000341,-0.568342241489747768
0.510000000000000342,-0.573143760615468678
0.511000000000000343,-0.577834584777220606
0.512000000000000344,-0.582417279172680935
0.513000000000000345,-0.586894316198182553
0.514000000000000346,-0.591268078231576899
0.515000000000000346,-0.595540860362409052
0.516000000000000347,-0.599714873069514987
0.517000000000000348,-0.603792244846105053
0.518000000000000349,-0.607775024772389982
0.519000000000000350,-0.611665185036010528
0.520000000000000351,-0.615464623400326150
0.521000000000000352,-0.619175165620994838
0.522000000000000353,-0.622798567810901926
0.523000000000000353,-0.626336518753937255
0.524000000000000354,-0.629790642167839532
0.525000000000000355,-0.633162498916541194
0.526000000000000356,-0.636453589172362721
0.527000000000000357,-0.639665354528563990
0.528000000000000358,-0.642799180062603392
0.529000000000000359,-0.645856396350694251
0.530000000000000360,-0.648838281434016118
0.531000000000000361,-0.651746062737254772
0.532000000000000361,-0.654580918939886014
0.533000000000000362,-0.657343981800817767
0.534000000000000363,-0.660036337936922957
0.535000000000000364,-0.662659030556116857
0.536000000000000365,-0.665213061145466300
0.537000000000000366,-0.667699391115068930
0.538000000000000367,-0.670118943398182787
0.539000000000000368,-0.672472604008399477
0.540000000000000369,-0.674761223554333434
0.541000000000000369,-0.676985618712633075
0.542000000000000370,-0.679146573659798691
0.543000000000000371,-0.681244841463651718
0.544000000000000372,-0.683281145434956660
0.545000000000000373,-0.685256180439979934
0.546000000000000374,-0.687170614174591576
0.547000000000000375,-0.689025088400605612
0.548000000000000376,-0.690820220145048403
0.549000000000000377,-0.692556602863001136
0.550000000000000377,-0.694234807564747647
0.551000000000000378,-0.695855383907812097
0.552000000000000379,-0.697418861254688993
0.553000000000000380,-0.698925749696817977
0.554000000000000381,-0.700376541045541368
0.555000000000000382,-0.701771709790746323
0.556000000000000383,-0.703111714027728318
0.557000000000000384,-0.704396996353139793
0.558000000000000385,-0.705627984730455182
0.559000000000000385,-0.706805093325803213
0.560000000000000386,-0.707928723314709352
0.561000000000000387,-0.708999263660420209
0.562000000000000388,-0.710017091864428407
0.563000000000000389,-0.710982574689903890
0.564000000000000390,-0.711896068858559605
0.565000000000000391,-0.712757921721648868
0.566000000000000392,-0.713568471905659196
0.567000000000000393,-0.714328049933375064
0.568000000000000393,-0.715036978820820845
0.569000000000000394,-0.715695574650747068
0.570000000000000395,-0.716304147123248192
0.571000000000000396,-0.716863000084006163
0.572000000000000397,-0.717372432030870533
0.573000000000000398,-0.717832736599184118
0.574000000000000399,-0.718244203026546679
0.575000000000000400,-0.718607116597457241
0.576000000000000401,-0.718921759068420374
0.577000000000000401,-0.719188409074088875
0.578000000000000402,-0.719407342514867265
0.579000000000000403,-0.719578832926543566
0.580000000000000404,-0.719703151832517984
0.581000000000000405,-0.719780569078961596
0.582000000000000406,-0.719811353153582134
0.583000000000000407,-0.719795771488319192
0.584000000000000408,-0.719734090746542710
0.585000000000000409,-0.719626577095176856
0.586000000000000409,-0.719473496462174733
0.587000000000000410,-0.719275114779882485
0.588000000000000411,-0.719031698214583015
0.589000000000000412,-0.718743513382829713
0.590000000000000413,-0.718410827554801790
0.591000000000000414,-0.718033908845243873
0.592000000000000415,-0.717613026392308395
0.593000000000000416,-0.717148450524717540
0.594000000000000417,-0.716640452917623128
0.595000000000000417,-0.716089306737604181
0.596000000000000418,-0.715495286777028339
0.597000000000000419,-0.714858669578328998
0.598000000000000420,-0.714179733548366280
0.599000000000000421,-0.713458759063370862
0.600000000000000422,-0.712696028564713813
0.601000000000000423,-0.711891826645838277
0.602000000000000424,-0.711046440130752133
0.603000000000000425,-0.710160158144314657
0.604000000000000425,-0.709233272174630835
0.605000000000000426,-0.708266076127910815
0.606000000000000427,-0.707258866376069939
0.607000000000000428,-0.706211941797241893
0.608000000000000429,-0.705125603809728552
0.609000000000000430,-0.704000156399354093
0.610000000000000431,-0.702835906140761857
0.611000000000000432,-0.701633162212728090
0.612000000000000433,-0.700392236407821778
0.613000000000000433,-0.699113443136653467
0.614000000000000434,-0.697797099426935352
0.615000000000000435,-0.696443524917579104
