# Gypsum-011_SER-AC
# h[nm],U(h)[kJ/mol]
0.149999999999999994,180.481400585893055677
0.150999999999999995,177.755054643199059683
0.151999999999999996,175.363982063774841436
0.152999999999999997,173.033618272597891519
0.153999999999999998,170.672106914184269044
0.154999999999999999,168.272354861100779999
0.156000000000000000,165.858742943877899734
0.157000000000000001,163.460462734233630044
0.158000000000000002,161.100086766529813076
0.159000000000000002,158.790340564531248901
0.160000000000000003,156.534868808950335506
0.161000000000000004,154.330583912273709757
0.162000000000000005,152.170301403597136414
0.163000000000000006,150.045039331359362222
0.164000000000000007,147.945747499858782703
0.165000000000000008,145.864442723856711837
0.166000000000000009,143.794828060504272571
0.167000000000000010,141.732512213297695780
0.168000000000000010,139.674948560042906820
0.169000000000000011,137.621199166080089071
0.170000000000000012,135.571608195125321572
0.171000000000000013,133.527447233216946643
0.172000000000000014,131.490575238578117023
0.173000000000000015,129.463139424994153615
0.174000000000000016,127.447330675872535721
0.175000000000000017,125.445197827761944609
0.176000000000000018,123.458518860925281047
0.177000000000000018,121.488723114813794268
0.178000000000000019,119.536856547067287693
0.179000000000000020,117.603581278209389893
0.180000000000000021,115.689200795326954108
0.181000000000000022,113.793702896623130982
0.182000000000000023,111.916813493330963070
0.183000000000000024,110.058055562457411725
0.184000000000000025,108.216808735453653867
0.185000000000000026,106.392366130627422649
0.186000000000000026,104.583986041108261134
0.187000000000000027,102.790936950471561317
0.188000000000000028,101.012535057301363395
0.189000000000000029,99.248174052412849733
0.190000000000000030,97.497347319955636635
0.191000000000000031,95.759663042073171368
0.192000000000000032,94.034852893875154223
0.193000000000000033,92.322775138974435549
0.194000000000000034,90.623412992629027940
0.195000000000000034,88.936869124903054740
0.196000000000000035,87.263357143630202017
0.197000000000000036,85.603190837724085327
0.198000000000000037,83.956771884952686946
0.199000000000000038,82.324576642263792792
0.200000000000000039,80.707142547036966107
0.201000000000000040,79.105054568718927044
0.202000000000000041,77.518932065416649380
0.203000000000000042,75.949416321398487639
0.204000000000000042,74.397158970470613326
0.205000000000000043,72.862811447597550796
0.206000000000000044,71.347015557136359121
0.207000000000000045,69.850395200515151828
0.208000000000000046,68.373549268682538127
0.209000000000000047,66.917045674589175519
0.210000000000000048,65.481416477620271621
0.211000000000000049,64.067154034519546713
0.212000000000000050,62.674708099139920137
0.213000000000000050,61.304483785572280397
0.214000000000000051,59.956840305106325673
0.215000000000000052,58.632090386403888260
0.216000000000000053,57.330500289603413933
0.217000000000000054,56.052290328284357201
0.218000000000000055,54.797635817828414417
0.219000000000000056,53.566668374316023460
0.220000000000000057,52.359477494339422776
0.221000000000000058,51.176112352723897914
0.222000000000000058,50.016583761877420500
0.223000000000000059,48.880866243164078355
0.224000000000000060,47.768900167163089066
0.225000000000000061,46.680593925830685009
0.226000000000000062,45.615826105344737584
0.227000000000000063,44.574447633732965812
0.228000000000000064,43.556283882233813642
0.229000000000000065,42.561136703699489203
0.230000000000000066,41.588786395229519144
0.231000000000000066,40.638993575626692234
0.232000000000000067,39.711500971221411760
0.233000000000000068,38.806035106137464652
0.234000000000000069,37.922307895204234285
0.235000000000000070,37.060018139490821909
0.236000000000000071,36.218852925879701843
0.237000000000000072,35.398488933244550481
0.238000000000000073,34.598593648684719426
0.239000000000000073,33.818826497929812547
0.240000000000000074,33.058839894487583422
0.241000000000000075,32.318280212404204121
0.242000000000000076,31.596788687656442107
0.243000000000000077,30.894002253228268984
0.244000000000000078,30.209554312862131553
0.245000000000000079,29.543075458334065786
0.246000000000000080,28.894194134903479210
0.247000000000000081,28.262537259342593643
0.248000000000000081,27.647730794675375421
0.249000000000000082,27.049400285459039850
0.250000000000000111,26.467171357133423726
0.251000000000000112,25.900670182652532958
0.252000000000000113,25.349523919304594699
0.253000000000000114,24.813361118327907917
0.254000000000000115,24.291812109642055617
0.255000000000000115,23.784509363742756705
0.256000000000000116,23.291087832554055126
0.257000000000000117,22.811185270796773494
0.258000000000000118,22.344442539217205024
0.259000000000000119,21.890503890825328881
0.260000000000000120,21.449017241116997923
0.261000000000000121,21.019634423100598042
0.262000000000000122,20.602011427812815469
0.263000000000000123,20.195808630891228574
0.264000000000000123,19.800691005671161804
0.265000000000000124,19.416328323190619187
0.266000000000000125,19.042395339417396372
0.267000000000000126,18.678571969957253884
0.268000000000000127,18.324543452457568549
0.269000000000000128,17.980000496889051220
0.270000000000000129,17.644639423864312278
0.271000000000000130,17.318162291137575437
0.272000000000000131,17.000277008422340685
0.273000000000000131,16.690697440662670914
0.274000000000000132,16.389143499897539158
0.275000000000000133,16.095341225866015122
0.276000000000000134,15.809022855512315786
0.277000000000000135,15.529926881564733776
0.278000000000000136,15.257798100377538475
0.279000000000000137,14.992387649243202219
0.280000000000000138,14.733453033400234489
0.281000000000000139,14.480758142980198144
0.282000000000000139,14.234073260156042906
0.283000000000000140,13.993175056771523401
0.284000000000000141,13.757846582748559428
0.285000000000000142,13.527877245585262500
0.286000000000000143,13.303062781272078752
0.287000000000000144,13.083205216966863560
0.288000000000000145,12.868112825781121700
0.289000000000000146,12.657600074040431082
0.290000000000000147,12.451487561389797065
0.291000000000000147,12.249601954122180558
0.292000000000000148,12.051775912112972833
0.293000000000000149,11.857848009747280926
0.294000000000000150,11.667662651228203785
0.295000000000000151,11.481069980654854845
0.296000000000000152,11.297925787257712571
0.297000000000000153,11.118091406176064950
0.298000000000000154,10.941433615158516091
0.299000000000000155,10.767824527562297021
0.300000000000000155,10.597141482020507652
0.301000000000000156,10.429266929139538789
0.302000000000000157,10.264088315579821042
0.303000000000000158,10.101497965864421502
0.304000000000000159,9.941392962249562260
0.305000000000000160,9.783675022980707681
0.306000000000000161,9.628250379246448887
0.307000000000000162,9.475029651130606467
0.308000000000000163,9.323927722850999800
0.309000000000000163,9.174863617560635731
0.310000000000000164,9.027760371974405729
0.311000000000000165,8.882544911071450500
0.312000000000000166,8.739147923110371252
0.313000000000000167,8.597503735181296847
0.314000000000000168,8.457550189505951721
0.315000000000000169,8.319228520683683570
0.316000000000000170,8.182483234068749667
0.317000000000000171,8.047261985451282129
0.318000000000000171,7.913515462202227013
0.319000000000000172,7.781197266029782789
0.320000000000000173,7.650263797483459527
0.321000000000000174,7.520674142329942136
0.322000000000000175,7.392389959913595376
0.323000000000000176,7.265375373603700559
0.324000000000000177,7.139596863419680695
0.325000000000000178,7.015023160915559330
0.326000000000000179,6.891625146394888546
0.327000000000000179,6.769375748518146274
0.328000000000000180,6.648249846355518855
0.329000000000000181,6.528224173929308094
0.330000000000000182,6.409277227282276890
0.331000000000000183,6.291389174100105564
0.332000000000000184,6.174541765909164148
0.333000000000000185,6.058718252863690701
0.334000000000000186,5.943903301129823014
0.335000000000000187,5.830082912868090439
0.336000000000000187,5.717244348809801480
0.337000000000000188,5.605376053417943538
0.338000000000000189,5.494467582617659218
0.339000000000000190,5.384509534077052351
0.340000000000000191,5.275493480014843861
0.341000000000000192,5.167411902507170751
0.342000000000000193,5.060258131262504122
0.343000000000000194,4.954026283830041955
0.344000000000000195,4.848711208204476542
0.345000000000000195,4.744308427786542381
0.346000000000000196,4.640814088657108094
0.347000000000000197,4.538224909119893624
0.348000000000000198,4.436538131466205570
0.349000000000000199,4.335751475913392383
0.350000000000000200,4.235863096667220162
0.351000000000000201,4.136871540057183161
0.352000000000000202,4.038775704692829649
0.353000000000000203,3.941574803588169917
0.354000000000000203,3.845268328200698082
0.355000000000000204,3.749856014331206300
0.356000000000000205,3.655337809829998896
0.357000000000000206,3.561713844055016231
0.358000000000000207,3.468984399027593035
0.359000000000000208,3.377149882231358369
0.360000000000000209,3.286210800999997073
0.361000000000000210,3.196167738440367945
0.362000000000000210,3.107021330837194117
0.363000000000000211,3.018772246486733479
0.364000000000000212,2.931421165906940018
0.365000000000000213,2.844968763372618614
0.366000000000000214,2.759415689724662002
0.367000000000000215,2.674762556403364577
0.368000000000000216,2.591009920656486720
0.369000000000000217,2.508158271874008527
0.370000000000000218,2.426208019002044747
0.371000000000000218,2.345159478989778279
0.372000000000000219,2.265012866223997445
0.373000000000000220,2.185768282907022630
0.374000000000000221,2.107425710334916324
0.375000000000000222,2.029985001033959957
0.376000000000000223,1.953445871714252435
0.377000000000000224,1.877807897000859594
0.378000000000000225,1.803070503903658306
0.379000000000000226,1.729232966988450526
0.380000000000000226,1.656294404212758753
0.381000000000000227,1.584253773391250952
0.382000000000000228,1.513109869256438866
0.383000000000000229,1.442861321081745585
0.384000000000000230,1.373506590835051888
0.385000000000000231,1.305043971831772343
0.386000000000000232,1.237471587857961186
0.387000000000000233,1.170787392734606858
0.388000000000000234,1.104989170295735512
0.389000000000000234,1.040074534753630431
0.390000000000000235,0.976040931425809055
0.391000000000000236,0.912885637799174865
0.392000000000000237,0.850605764907913175
0.393000000000000238,0.789198259002526603
0.394000000000000239,0.728659903488517391
0.395000000000000240,0.668987321113967637
0.396000000000000241,0.610176976386311964
0.397000000000000242,0.552225178199420297
0.398000000000000242,0.495128082652916190
0.399000000000000243,0.438881696046635739
0.400000000000000244,0.383481878033756329
0.401000000000000245,0.328924344916997569
0.402000000000000246,0.275204673073183692
0.403000000000000247,0.222318302491898268
0.404000000000000248,0.170260540414984785
0.405000000000000249,0.119026565064129189
0.406000000000000250,0.068611429444565636
0.407000000000000250,0.019010065213479144
0.408000000000000251,-0.029782713397605166
0.409000000000000252,-0.077772205616615686
0.410000000000000253,-0.124963820130457190
0.411000000000000254,-0.171363071059290689
0.412000000000000255,-0.216975573913988834
0.413000000000000256,-0.261807041544843633
0.414000000000000257,-0.305863280088766842
0.415000000000000258,-0.349150184922248918
0.416000000000000258,-0.391673736626305780
0.417000000000000259,-0.433439996969729180
0.418000000000000260,-0.474455104916146175
0.419000000000000261,-0.514725272660280009
0.420000000000000262,-0.554256781698141077
0.421000000000000263,-0.593055978935859596
0.422000000000000264,-0.631129272841066347
0.423000000000000265,-0.668483129640874307
0.424000000000000266,-0.705124069569871281
0.425000000000000266,-0.741058663171277332
0.426000000000000267,-0.776293527654280946
0.427000000000000268,-0.810835323310130418
0.428000000000000269,-0.844690749989349010
0.429000000000000270,-0.877866543642249808
0.430000000000000271,-0.910369472924585921
0.431000000000000272,-0.942206335870067635
0.432000000000000273,-0.973383956631132974
0.433000000000000274,-1.003909182289288271
0.434000000000000274,-1.033788879736081245
0.435000000000000275,-1.063029932625543461
0.436000000000000276,-1.091639238398920853
0.437000000000000277,-1.119623705382156720
0.438000000000000278,-1.146990249956619135
0.439000000000000279,-1.173745793803323778
0.440000000000000280,-1.199897261220797207
0.441000000000000281,-1.225451576516568775
0.442000000000000282,-1.250415661472334516
0.443000000000000282,-1.274796432882381092
0.444000000000000283,-1.298600800165185198
0.445000000000000284,-1.321835663047667087
0.446000000000000285,-1.344507909321626782
0.447000000000000286,-1.366624412671936017
0.448000000000000287,-1.388192030575645886
0.449000000000000288,-1.409217602271531034
0.450000000000000289,-1.429707946799131157
0.451000000000000290,-1.449669861106582802
0.452000000000000290,-1.469110118226360395
0.453000000000000291,-1.488035465517936862
0.454000000000000292,-1.506452622976497846
0.455000000000000293,-1.524368281606652831
0.456000000000000294,-1.541789101860115974
0.457000000000000295,-1.558721712136336146
0.458000000000000296,-1.575172707344896228
0.459000000000000297,-1.591148647528673354
0.460000000000000298,-1.606656056546539757
0.461000000000000298,-1.621701420814481098
0.462000000000000299,-1.636291188103990990
0.463000000000000300,-1.650431766396485589
0.464000000000000301,-1.664129522792647808
0.465000000000000302,-1.677390782475412845
0.466000000000000303,-1.690221827725439052
0.467000000000000304,-1.702628896987879781
0.468000000000000305,-1.714618183989172762
0.469000000000000306,-1.726195836902706615
0.470000000000000306,-1.737367957562199861
0.471000000000000307,-1.748140600721434623
0.472000000000000308,-1.758519773359339400
0.473000000000000309,-1.768511434029142793
0.474000000000000310,-1.778121492250380964
0.475000000000000311,-1.787355807942703212
0.476000000000000312,-1.796220190900212899
0.477000000000000313,-1.804720400305280803
0.478000000000000314,-1.812862144280603216
0.479000000000000314,-1.820651079478517786
0.480000000000000315,-1.828092810706313909
0.481000000000000316,-1.835192890586605730
0.482000000000000317,-1.841956819251554078
0.483000000000000318,-1.848390044069975868
0.484000000000000319,-1.854497959406251395
0.485000000000000320,-1.860285906410007239
0.486000000000000321,-1.865759172835590007
0.487000000000000322,-1.870922992890337699
0.488000000000000322,-1.875782547110584009
0.489000000000000323,-1.880342962264627715
0.490000000000000324,-1.884609311281548072
0.491000000000000325,-1.888586613205056164
0.492000000000000326,-1.892279833171410797
0.493000000000000327,-1.895693882410617759
0.494000000000000328,-1.898833618269914369
0.495000000000000329,-1.901703844258857412
0.496000000000000330,-1.904309310114996379
0.497000000000000330,-1.906654711889575804
0.498000000000000331,-1.908744692052171121
0.499000000000000332,-1.910583839613796631
0.500000000000000333,-1.912176690267548107
0.501000000000000334,-1.913527726546056629
0.502000000000000335,-1.914641377995136340
0.503000000000000336,-1.915522021362849214
0.504000000000000337,-1.916173980803352439
0.505000000000000338,-1.916601528094821871
0.506000000000000338,-1.916808882870873365
0.507000000000000339,-1.916800212864814057
0.508000000000000340,-1.916579634166090118
0.509000000000000341,-1.916151211488462236
0.510000000000000342,-1.915518958449138553
0.511000000000000343,-1.914686837858528445
0.512000000000000344,-1.913658762019872395
0.513000000000000345,-1.912438593038348955
0.514000000000000346,-1.911030143139159865
0.515000000000000346,-1.909437174993978470
0.516000000000000347,-1.907663402055383983
0.517000000000000348,-1.905712488898827051
0.518000000000000349,-1.903588051571565298
0.519000000000000350,-1.901293657948283755
0.520000000000000351,-1.898832828092813285
0.521000000000000352,-1.896209034625718770
0.522000000000000353,-1.893425703097178170
0.523000000000000353,-1.890486212364911101
0.524000000000000354,-1.887393894976725051
0.525000000000000355,-1.884152037557323967
0.526000000000000356,-1.880763881199029708
0.527000000000000357,-1.877232621856128603
0.528000000000000358,-1.873561410742454969
0.529000000000000359,-1.869753354731966244
0.530000000000000360,-1.865811516761934685
0.531000000000000361,-1.861738916238561359
0.532000000000000361,-1.857538529444654030
0.533000000000000362,-1.853213289949148024
0.534000000000000363,-1.848766089018178960
0.535000000000000364,-1.844199776027517057
0.536000000000000365,-1.839517158876033065
0.537000000000000366,-1.834721004400083233
0.538000000000000367,-1.829814038788452280
0.539000000000000368,-1.824798947997817722
0.540000000000000369,-1.819678378168342103
0.541000000000000369,-1.814454936039388455
0.542000000000000370,-1.809131189364984404
0.543000000000000371,-1.803709667329021826
0.544000000000000372,-1.798192860959921591
0.545000000000000373,-1.792583223544633286
0.546000000000000374,-1.786883171041814267
0.547000000000000375,-1.781095082494008608
0.548000000000000376,-1.775221300438756700
0.549000000000000377,-1.769264131318402322
0.550000000000000377,-1.763225845888563015
0.551000000000000378,-1.757108679625030589
0.552000000000000379,-1.750914833129128656
0.553000000000000380,-1.744646472531270920
0.554000000000000381,-1.738305729892682283
0.555000000000000382,-1.731894703605236119
0.556000000000000383,-1.725415458789156586
0.557000000000000384,-1.718870027688697011
0.558000000000000385,-1.712260410065506777
0.559000000000000385,-1.705588573589765122
0.560000000000000386,-1.698856454228928170
0.561000000000000387,-1.692065956634021262
0.562000000000000388,-1.685218954523406421
0.563000000000000389,-1.678317291064023165
0.564000000000000390,-1.671362779249935482
0.565000000000000391,-1.664357202278226922
0.566000000000000392,-1.657302313922118575
0.567000000000000393,-1.650199838901350136
0.568000000000000393,-1.643051473249645067
0.569000000000000394,-1.635858884679359138
0.570000000000000395,-1.628623712943199520
0.571000000000000396,-1.621347570192941845
0.572000000000000397,-1.614032041335239587
0.573000000000000398,-1.606678684384343470
0.574000000000000399,-1.599289030811836154
0.575000000000000400,-1.591864585893247197
0.576000000000000401,-1.584406829051595800
0.577000000000000401,-1.576917214197862460
0.578000000000000402,-1.569397170068274061
0.579000000000000403,-1.561848100558460128
0.580000000000000404,-1.554271385054503130
0.581000000000000405,-1.546668378760748919
0.582000000000000406,-1.539040413024509224
0.583000000000000407,-1.531388795657522950
0.584000000000000408,-1.523714811254282431
0.585000000000000409,-1.516019721507139817
0.586000000000000409,-1.508304765518207358
0.587000000000000410,-1.500571160108130631
0.588000000000000411,-1.492820100121565741
0.589000000000000412,-1.485052758729589195
0.590000000000000413,-1.477270287728816189
0.591000000000000414,-1.469473817837401608
0.592000000000000415,-1.461664458987868453
0.593000000000000416,-1.453843300616736611
0.594000000000000417,-1.446011411951002135
0.595000000000000417,-1.438169842291547651
0.596000000000000418,-1.430319621293275612
0.597000000000000419,-1.422461759242274582
0.598000000000000420,-1.414597247329746788
0.599000000000000421,-1.406727057922938062
0.600000000000000422,-1.398852144832927413
0.601000000000000423,-1.390973443579368141
0.602000000000000424,-1.383091871652189608
0.603000000000000425,-1.375208328770278765
0.604000000000000425,-1.367323697137097227
0.605000000000000426,-1.359438841693351385
0.606000000000000427,-1.351554610366707543
0.607000000000000428,-1.343671834318426628
0.608000000000000429,-1.335791328187254656
0.609000000000000430,-1.327913890330189028
0.610000000000000431,-1.320040303060523224
0.611000000000000432,-1.312171332882907659
0.612000000000000433,-1.304307730725585923
0.613000000000000433,-1.296450232169824357
0.614000000000000434,-1.288599557676512131
