# C-amorph-1_ALASCA-JS
# h[nm],U(h)[kJ/mol]
0.149999999999999994,86.632364416992288625
0.150999999999999995,85.404734295629168628
0.151999999999999996,83.686233443003374077
0.152999999999999997,81.827031290025985300
0.153999999999999998,79.994010907342868677
0.154999999999999999,78.248120620705577721
0.156000000000000000,76.594828938298832099
0.157000000000000001,75.015358777158553494
0.158000000000000002,73.484688076602836304
0.159000000000000002,71.980812967256937895
0.160000000000000003,70.488533313897406174
0.161000000000000004,69.000041069565298812
0.162000000000000005,67.513844665331788519
0.163000000000000006,66.033011648501172886
0.164000000000000007,64.563318924353808370
0.165000000000000008,63.111629881443455758
0.166000000000000009,61.684639836527665580
0.167000000000000010,60.288020518320365682
0.168000000000000010,58.925930864976166390
0.169000000000000011,57.600830035241202154
0.170000000000000012,56.313517927534448404
0.171000000000000013,55.063330512656172289
0.172000000000000014,53.848426219983743124
0.173000000000000015,52.666111644498208477
0.174000000000000016,51.513167510321103748
0.175000000000000017,50.386147671499216472
0.176000000000000018,49.281634175857981006
0.177000000000000018,48.196439746601051013
0.178000000000000019,47.127755426115825799
0.179000000000000020,46.073245728061486659
0.180000000000000021,45.031096698780068266
0.181000000000000022,44.000024073764272714
0.182000000000000023,42.979249505049992308
0.183000000000000024,41.968452884922626822
0.184000000000000025,40.967708321395129190
0.185000000000000026,39.977410515661446766
0.186000000000000026,38.998197298354952522
0.187000000000000027,38.030873012942542744
0.188000000000000028,37.076336373843005845
0.189000000000000029,36.135515431318530943
0.190000000000000030,35.209311381547550468
0.191000000000000031,34.298552188893552284
0.192000000000000032,33.403956346156164159
0.193000000000000033,32.526106586372648621
0.194000000000000034,31.665432969103921579
0.195000000000000034,30.822204483627494653
0.196000000000000035,29.996528127352945603
0.197000000000000036,29.188354315418603591
0.198000000000000037,28.397487442216345244
0.199000000000000038,27.623600433643304086
0.200000000000000039,26.866252187479943814
0.201000000000000040,26.124906887152413049
0.202000000000000041,25.398954281500468966
0.203000000000000042,24.687730141842752829
0.204000000000000042,23.990536230897419046
0.205000000000000043,23.306659240658188281
0.206000000000000044,22.635388274062243852
0.207000000000000045,21.976030555237393571
0.208000000000000046,21.327925153235785416
0.209000000000000047,20.690454593193919663
0.210000000000000048,20.063054306191354215
0.211000000000000049,19.445219934614463853
0.212000000000000050,18.836512563864673098
0.213000000000000050,18.236561994379819396
0.214000000000000051,17.645068200963287097
0.215000000000000052,17.061801150280338391
0.216000000000000053,16.486599163101793408
0.217000000000000054,15.919366016494382876
0.218000000000000055,15.360066983713968725
0.219000000000000056,14.808724007049917759
0.220000000000000057,14.265410192234318387
0.221000000000000058,13.730243803142860415
0.222000000000000058,13.203381923153134636
0.223000000000000059,12.685013935401125096
0.224000000000000060,12.175354958894809343
0.225000000000000061,11.674639361539208338
0.226000000000000062,11.183114455044993463
0.227000000000000063,10.701034460805418647
0.228000000000000064,10.228654820434488926
0.229000000000000065,9.766226909998483308
0.230000000000000066,9.313993203224709916
0.231000000000000066,8.872182916262115526
0.232000000000000067,8.441008154985942369
0.233000000000000068,8.020660575427873695
0.234000000000000069,7.611308558692806869
0.235000000000000070,7.213094893681244457
0.236000000000000071,6.826134954042998970
0.237000000000000072,6.450515349993906966
0.238000000000000073,6.086293030873401122
0.239000000000000073,5.733494810537446362
0.240000000000000074,5.392117284790065135
0.241000000000000075,5.062127107981654994
0.242000000000000076,4.743461594558798566
0.243000000000000077,4.436029610659019795
0.244000000000000078,4.139712720725101214
0.245000000000000079,3.854366554490442631
0.246000000000000080,3.579822360487022959
0.247000000000000081,3.315888713381066388
0.248000000000000081,3.062353343886247359
0.249000000000000082,2.818985061680247206
0.250000000000000111,2.585535743604158387
0.251000000000000112,2.361742361408123880
0.252000000000000113,2.147329025375866784
0.253000000000000114,1.942009022279632235
0.254000000000000115,1.745486828248948630
0.255000000000000115,1.557460079255858165
0.256000000000000116,1.377621483998778373
0.257000000000000117,1.205660665987722480
0.258000000000000118,1.041265923578093666
0.259000000000000119,0.884125898554493972
0.260000000000000120,0.733931145619683756
0.261000000000000121,0.590375596789781909
0.262000000000000122,0.453157916228095037
0.263000000000000123,0.321982742464950622
0.264000000000000123,0.196561816246581117
0.265000000000000124,0.076614993433922279
0.266000000000000125,-0.038128856567443345
0.267000000000000126,-0.147931065418517665
0.268000000000000127,-0.253042491236267097
0.269000000000000128,-0.353702951768657348
0.270000000000000129,-0.450140761735118744
0.271000000000000130,-0.542572370180286145
0.272000000000000131,-0.631202093246900575
0.273000000000000131,-0.716221937416125831
0.274000000000000132,-0.797811507983883561
0.275000000000000133,-0.876137997333945706
0.276000000000000134,-0.951356247426546675
0.277000000000000135,-1.023608880838832835
0.278000000000000136,-1.093026494665278125
0.279000000000000137,-1.159727911605762385
0.280000000000000138,-1.223820482631770901
0.281000000000000139,-1.285400435721262724
0.282000000000000139,-1.344553265285747257
0.283000000000000140,-1.401354157073956941
0.284000000000000141,-1.455868443521269429
0.285000000000000142,-1.508152084718477948
0.286000000000000143,-1.558252170393910063
0.287000000000000144,-1.606207438535747656
0.288000000000000145,-1.652048806524159419
0.289000000000000146,-1.695799910891357509
0.290000000000000147,-1.737477652081167223
0.291000000000000147,-1.777092740833921214
0.292000000000000148,-1.814650243077177594
0.293000000000000149,-1.850150120454509217
0.294000000000000150,-1.883587763873020959
0.295000000000000151,-1.914954517693349345
0.296000000000000152,-1.944238192422429012
0.297000000000000153,-1.971423563998691009
0.298000000000000154,-1.996492857980265656
0.299000000000000155,-2.019426217158850179
0.300000000000000155,-2.040202151324502555
0.301000000000000156,-2.058797968099218334
0.302000000000000157,-2.075190183939686239
0.303000000000000158,-2.089354914581600386
0.304000000000000159,-2.101268244359657977
0.305000000000000160,-2.110906573988128088
0.306000000000000161,-2.118246946527852614
0.307000000000000162,-2.123267351395620395
0.308000000000000163,-2.125947006392004290
0.309000000000000163,-2.126266617834150274
0.310000000000000164,-2.124208618980529373
0.311000000000000165,-2.119757387025848594
0.312000000000000166,-2.112899439026882042
0.313000000000000167,-2.103623607193362055
0.314000000000000168,-2.091921194043640408
0.315000000000000169,-2.077786107982286801
0.316000000000000170,-2.061214979906965450
0.317000000000000171,-2.042207261494785708
0.318000000000000171,-2.020765305854800964
0.319000000000000172,-1.996894431263353864
0.320000000000000173,-1.970602968723283110
0.321000000000000174,-1.941902294106671034
0.322000000000000175,-1.910806845654703157
0.323000000000000176,-1.877334127617144244
0.324000000000000177,-1.841504700818686002
0.325000000000000178,-1.803342160940128336
0.326000000000000179,-1.762873105299693322
0.327000000000000179,-1.720127088913383506
0.328000000000000180,-1.675136570604242037
0.329000000000000181,-1.627936849918894424
0.330000000000000182,-1.578565995594994220
0.331000000000000183,-1.527064766307577370
0.332000000000000184,-1.473476524403694699
0.333000000000000185,-1.417847143315272174
0.334000000000000186,-1.360224909318881181
0.335000000000000187,-1.300660418288877240
0.336000000000000187,-1.239206468067116873
0.337000000000000188,-1.175917947048366718
0.338000000000000189,-1.110851719555988160
0.339000000000000190,-1.044066508557294215
0.340000000000000191,-0.975622776242519363
0.341000000000000192,-0.905582602966035544
0.342000000000000193,-0.834009565022392096
0.343000000000000194,-0.760968611704712972
0.344000000000000195,-0.686525942067088168
0.345000000000000195,-0.610748881787911757
0.346000000000000196,-0.533705760506006932
0.347000000000000197,-0.455465789977125890
0.348000000000000198,-0.376098943374588934
0.349000000000000199,-0.295675836034245521
0.350000000000000200,-0.214267607921457520
0.351000000000000201,-0.131945808075309451
0.352000000000000202,-0.048782281264063879
0.353000000000000203,0.035150942935068472
0.354000000000000203,0.119781758438877922
0.355000000000000204,0.205038088170107352
0.356000000000000205,0.290847986623316346
0.357000000000000206,0.377139739347418401
0.358000000000000207,0.463841959224708777
0.359000000000000208,0.550883679442432106
0.360000000000000209,0.638194443068531347
0.361000000000000210,0.725704389157912244
0.362000000000000210,0.813344335329602153
0.363000000000000211,0.901045856768376452
0.364000000000000212,0.988741361616921055
0.365000000000000213,1.076364162736444641
0.366000000000000214,1.163848545824601510
0.367000000000000215,1.251129833890068488
0.368000000000000216,1.338144448092696948
0.369000000000000217,1.424829964967259777
0.370000000000000218,1.511125170057131317
0.371000000000000218,1.596970107992106369
0.372000000000000219,1.682306129051557519
0.373000000000000220,1.767075932260907534
0.374000000000000221,1.851223605075189571
0.375000000000000222,1.934694659709211617
0.376000000000000223,2.017436066178587062
0.377000000000000224,2.099396282120510104
0.378000000000000225,2.180525279467100841
0.379000000000000226,2.260774568047744459
0.380000000000000226,2.340097216199921171
0.381000000000000227,2.418447868470853912
0.382000000000000228,2.495782760494521302
0.383000000000000229,2.572059731130596827
0.384000000000000230,2.647238231953636056
0.385000000000000231,2.721279334181858633
0.386000000000000232,2.794145733136163212
0.387000000000000233,2.865801750320529973
0.388000000000000234,2.936213333215522248
0.389000000000000234,3.005348052876654297
0.390000000000000235,3.073175099429538371
0.391000000000000236,3.139665275553205070
0.392000000000000237,3.204790988042820921
0.393000000000000238,3.268526237542067836
0.394000000000000239,3.330846606534860310
0.395000000000000240,3.391729245684935279
0.396000000000000241,3.451152858610790020
0.397000000000000242,3.509097685182144488
0.398000000000000242,3.565545483422705608
0.399000000000000243,3.620479510102520671
0.400000000000000244,3.673884500101718409
0.401000000000000245,3.725746644625441029
0.402000000000000246,3.776053568348410661
0.403000000000000247,3.824794305565478059
0.404000000000000248,3.871959275422640623
0.405000000000000249,3.917540256301187185
0.406000000000000250,3.961530359425537995
0.407000000000000250,4.003924001763368601
0.408000000000000251,4.044716878284617678
0.409000000000000252,4.083905933643756647
0.410000000000000253,4.121489333347852835
0.411000000000000254,4.157466434470616257
0.412000000000000255,4.191837755970734491
0.413000000000000256,4.224604948670558358
0.414000000000000257,4.255770764949251550
0.415000000000000258,4.285339028202276523
0.416000000000000258,4.313314602117229057
0.417000000000000259,4.339703359813774419
0.418000000000000260,4.364512152893600394
0.419000000000000261,4.387748780444225005
0.420000000000000262,4.409421958038478806
0.421000000000000263,4.429541286769662634
0.422000000000000264,4.448117222360332690
0.423000000000000265,4.465161044380980826
0.424000000000000266,4.480684825612764932
0.425000000000000266,4.494701401586958411
0.426000000000000267,4.507224340331760892
0.427000000000000268,4.518267912355574012
0.428000000000000269,4.527847060894059084
0.429000000000000270,4.535977372446692080
0.430000000000000271,4.542675047626961948
0.431000000000000272,4.547956872348760449
0.432000000000000273,4.551840189370034651
0.433000000000000274,4.554342870213305972
0.434000000000000274,4.555483287481234100
0.435000000000000275,4.555280287584026588
0.436000000000000276,4.553753163894196376
0.437000000000000277,4.550921630342826596
0.438000000000000278,4.546805795470324263
0.439000000000000279,4.541426136943412573
0.440000000000000280,4.534803476548925794
0.441000000000000281,4.526958955673984875
0.442000000000000282,4.517914011280835140
0.443000000000000282,4.507690352383934673
0.444000000000000283,4.496309937035489313
0.445000000000000284,4.483794949825059106
0.446000000000000285,4.470167779897765925
0.447000000000000286,4.455450999494727782
0.448000000000000287,4.439667343018696144
0.449000000000000288,4.422839686626894640
0.450000000000000289,4.404991028352439386
0.451000000000000290,4.386144468754943126
0.452000000000000290,4.366323192100239226
0.453000000000000291,4.345550448068519422
0.454000000000000292,4.323849533989564620
0.455000000000000293,4.301243777603156460
0.456000000000000294,4.277756520342238744
0.457000000000000295,4.253411101135879946
0.458000000000000296,4.228230840728505413
0.459000000000000297,4.202239026511624509
0.460000000000000298,4.175458897863555841
0.461000000000000298,4.147913631992572014
0.462000000000000299,4.119626330278199688
0.463000000000000300,4.090620005105316537
0.464000000000000301,4.060917567185179600
0.465000000000000302,4.030541813357364056
0.466000000000000303,3.999515414866137597
0.467000000000000304,3.967860906104774266
0.468000000000000305,3.935600673820782269
0.469000000000000306,3.902756946775117974
0.470000000000000306,3.869351785848016423
0.471000000000000307,3.835407074583995435
0.472000000000000308,3.800944510168470458
0.473000000000000309,3.765985594828158867
0.474000000000000310,3.730551627647481716
0.475000000000000311,3.694663696792849894
0.476000000000000312,3.658342672136937868
0.477000000000000313,3.621609198274595709
0.478000000000000314,3.584483687922319639
0.479000000000000314,3.546986315692932212
0.480000000000000315,3.509137012237186326
0.481000000000000316,3.470955458743945066
0.482000000000000317,3.432461081790584068
0.483000000000000318,3.393673048535249759
0.484000000000000319,3.354610262242617491
0.485000000000000320,3.315291358134816679
0.486000000000000321,3.275734699559188723
0.487000000000000322,3.235958374464601661
0.488000000000000322,3.195980192178063284
0.489000000000000323,3.155817680473465892
0.490000000000000324,3.115488082924275481
0.491000000000000325,3.075008356532117126
0.492000000000000326,3.034395169623224753
0.493000000000000327,2.993664900004842533
0.494000000000000328,2.952833633373668221
0.495000000000000329,2.911917161968633483
0.496000000000000330,2.870930983460260322
0.497000000000000330,2.829890300069063169
0.498000000000000331,2.788810017905438698
0.499000000000000332,2.747704746523754959
0.500000000000000333,2.706588798683200903
0.501000000000000334,2.665476190308343707
0.502000000000000335,2.624380640642243634
0.503000000000000336,2.583315572585234143
0.504000000000000337,2.542294113212440365
0.505000000000000338,2.501329094463382141
0.506000000000000338,2.460433053997015840
0.507000000000000339,2.419618236205725026
0.508000000000000340,2.378896593381904623
0.509000000000000341,2.338279787030907553
0.510000000000000342,2.297779189324189009
0.511000000000000343,2.257405884686693120
0.512000000000000344,2.217170671512575630
0.513000000000000345,2.177084064003556030
0.514000000000000346,2.137156294124206823
0.515000000000000346,2.097397313668765140
0.516000000000000347,2.057816796434021267
0.517000000000000348,2.018424140493078944
0.518000000000000349,1.979228470564811548
0.519000000000000350,1.940238640474105214
0.520000000000000351,1.901463235697870902
0.521000000000000352,1.862910575992211548
0.522000000000000353,1.824588718096010087
0.523000000000000353,1.786505458506435717
0.524000000000000354,1.748668336322045436
0.525000000000000355,1.711084636149069027
0.526000000000000356,1.673761391066865389
0.527000000000000357,1.636705385648394628
0.528000000000000358,1.599923159031787279
0.529000000000000359,1.563421008039276305
0.530000000000000360,1.527204990339672275
0.531000000000000361,1.491280927650866062
0.532000000000000361,1.455654408978821035
0.533000000000000362,1.420330793889710730
0.534000000000000363,1.385315215811906864
0.535000000000000364,1.350612585364637575
0.536000000000000365,1.316227593710270094
0.537000000000000366,1.282164715927235132
0.538000000000000367,1.248428214400713943
0.539000000000000368,1.215022142228339375
0.540000000000000369,1.181950346638197091
0.541000000000000369,1.149216472416581869
0.542000000000000370,1.116823965342990332
0.543000000000000371,1.084776075629950487
0.544000000000000372,1.053075861365374788
0.545000000000000373,1.021726191955229845
0.546000000000000374,0.990729751564329297
0.547000000000000375,0.960089042553244232
0.548000000000000376,0.929806388909309334
0.549000000000000377,0.899883939669865129
0.550000000000000377,0.870323672335857723
0.551000000000000378,0.841127396274102046
0.552000000000000379,0.812296756106519302
0.553000000000000380,0.783833235084719027
0.554000000000000381,0.755738158448439945
0.555000000000000382,0.728012696766357714
0.556000000000000383,0.700657869257872545
0.557000000000000384,0.673674547094554876
0.558000000000000385,0.647063456679975224
0.559000000000000385,0.620825182906707962
0.560000000000000386,0.594960172389395914
0.561000000000000387,0.569468736672752107
0.562000000000000388,0.544351055413510809
0.563000000000000389,0.519607179535307773
0.564000000000000390,0.495237034355641481
0.565000000000000391,0.471240422683982085
0.566000000000000392,0.447617027890255315
0.567000000000000393,0.424366416942934865
0.568000000000000393,0.401488043416017182
0.569000000000000394,0.378981250464199948
0.570000000000000395,0.356845273765684368
0.571000000000000396,0.335079244431972123
0.572000000000000397,0.313682191884144090
0.573000000000000398,0.292653046695127483
0.574000000000000399,0.271990643397497400
0.575000000000000400,0.251693723256375179
0.576000000000000401,0.231760937007077283
0.577000000000000401,0.212190847557145373
0.578000000000000402,0.192981932652449978
0.579000000000000403,0.174132587507121517
0.580000000000000404,0.155641127397030843
0.581000000000000405,0.137505790216632923
0.582000000000000406,0.119724738998980618
0.583000000000000407,0.102296064398770120
0.584000000000000408,0.085217787138277074
0.585000000000000409,0.068487860416121621
0.586000000000000409,0.052104172278743380
0.587000000000000410,0.036064547954585510
0.588000000000000411,0.020366752150957828
0.589000000000000412,0.005008491313554875
0.590000000000000413,-0.010012584151299847
0.591000000000000414,-0.024698877691675492
0.592000000000000415,-0.039052844462237037
0.593000000000000416,-0.053076989213537963
0.594000000000000417,-0.066773864218320961
0.595000000000000417,-0.080146067234656629
0.596000000000000418,-0.093196239505845130
0.597000000000000419,-0.105927063796853724
0.598000000000000420,-0.118341262467174468
0.599000000000000421,-0.130441595579870645
0.600000000000000422,-0.142230859046650976
0.601000000000000423,-0.153711882808705014
0.602000000000000424,-0.164887529053119347
0.603000000000000425,-0.175760690464627362
0.604000000000000425,-0.186334288512390006
0.605000000000000426,-0.196611271771608448
0.606000000000000427,-0.206594614279669159
0.607000000000000428,-0.216287313926511793
0.608000000000000429,-0.225692390878995008
0.609000000000000430,-0.234812886038860219
0.610000000000000431,-0.243651859534093740
0.611000000000000432,-0.252212389243280488
0.612000000000000433,-0.260497569352665992
0.613000000000000433,-0.268510508945612625
0.614000000000000434,-0.276254330624060351
0.615000000000000435,-0.283732169161691750
0.616000000000000436,-0.290947170188449067
0.617000000000000437,-0.297902488906033214
0.618000000000000438,-0.304601288834030703
0.619000000000000439,-0.311046740586324533
