# C-amorph-1_ILESCA-JS
# h[nm],U(h)[kJ/mol]
0.149999999999999994,111.055863518063659967
0.150999999999999995,106.949375757852493507
0.151999999999999996,104.383066657701377267
0.152999999999999997,102.169466336509060511
0.153999999999999998,99.876212351104783238
0.154999999999999999,97.424118869251685737
0.156000000000000000,94.870907276106507311
0.157000000000000001,92.303942541730563676
0.158000000000000002,89.794280545530966720
0.159000000000000002,87.383092127954554940
0.160000000000000003,85.083489160922837868
0.161000000000000004,82.888251071508150858
0.162000000000000005,80.778501594990927970
0.163000000000000006,78.731063558908971345
0.164000000000000007,76.723719720236815078
0.165000000000000008,74.738385856630458193
0.166000000000000009,72.762552681828793766
0.167000000000000010,70.789462149657964574
0.168000000000000010,68.817466646594084523
0.169000000000000011,66.848945496022608381
0.170000000000000012,64.889061572436688152
0.171000000000000013,62.944552620898491568
0.172000000000000014,61.022676845570842374
0.173000000000000015,59.130373695547248758
0.174000000000000016,57.273658206674291193
0.175000000000000017,55.457238699325067444
0.176000000000000018,53.684330388336924500
0.177000000000000018,51.956628804424326518
0.178000000000000019,50.274404406011413471
0.179000000000000020,48.636681333889995926
0.180000000000000021,47.041467318894298444
0.181000000000000022,45.486007088343512805
0.182000000000000023,43.967037370665011053
0.183000000000000024,42.481027192290667926
0.184000000000000025,41.024392239680366856
0.185000000000000026,39.593676429731985422
0.186000000000000026,38.185697419150294252
0.187000000000000027,36.797655592854525253
0.188000000000000028,35.427208159281804001
0.189000000000000029,34.072511431487789935
0.190000000000000030,32.732235285372986766
0.191000000000000031,31.405554260532817068
0.192000000000000032,30.092119900609436201
0.193000000000000033,28.792018804939733201
0.194000000000000034,27.505720556739795768
0.195000000000000034,26.234019267953506471
0.196000000000000035,24.977971988317101193
0.197000000000000036,23.738836706265225018
0.198000000000000037,22.518012152367450796
0.199000000000000038,21.316981123959180877
0.200000000000000039,20.137258597392762027
0.201000000000000040,18.980345491031833660
0.202000000000000041,17.847688592365862803
0.203000000000000042,16.740646867589180857
0.204000000000000042,15.660464130265665972
0.205000000000000043,14.608247854095688822
0.206000000000000044,13.584953768940128072
0.207000000000000045,12.591375774094156981
0.208000000000000046,11.628140632990531245
0.209000000000000047,10.695706873698522799
0.210000000000000048,9.794367304614407743
0.211000000000000049,8.924254559805415710
0.212000000000000050,8.085349109190541839
0.213000000000000050,7.277489201230913807
0.214000000000000051,6.500382246660189267
0.215000000000000052,5.753617198119066245
0.216000000000000053,5.036677529941054665
0.217000000000000054,4.348954472784772207
0.218000000000000055,3.689760207737821762
0.219000000000000056,3.058340772701679811
0.220000000000000057,2.453888479385855526
0.221000000000000058,1.875553681452779786
0.222000000000000058,1.322455772829992160
0.223000000000000059,0.793693329719435847
0.224000000000000060,0.288353340295546379
0.225000000000000061,-0.194480507462744340
0.226000000000000062,-0.655720486784422851
0.227000000000000063,-1.096268430040181041
0.228000000000000064,-1.517010236196073780
0.229000000000000065,-1.918811248048611917
0.230000000000000066,-2.302512450002714317
0.231000000000000066,-2.668927430185860761
0.232000000000000067,-3.018840045946452832
0.233000000000000068,-3.353002728967231949
0.234000000000000069,-3.672135365051237166
0.235000000000000070,-3.976924683844797137
0.236000000000000071,-4.268024095103835513
0.237000000000000072,-4.546053910366035566
0.238000000000000073,-4.811601891859841551
0.239000000000000073,-5.065224073985335806
0.240000000000000074,-5.307445806587388404
0.241000000000000075,-5.538762973369901310
0.242000000000000076,-5.759643343059186016
0.243000000000000077,-5.970528015215957218
0.244000000000000078,-6.171832926838836997
0.245000000000000079,-6.363950390032383275
0.246000000000000080,-6.547250634977781480
0.247000000000000081,-6.722083336205249005
0.248000000000000081,-6.888779103693591033
0.249000000000000082,-7.047650923595031536
0.250000000000000111,-7.198995536390617289
0.251000000000000112,-7.343094743015790016
0.252000000000000113,-7.480216631960177942
0.253000000000000114,-7.610616722540387791
0.254000000000000115,-7.734539021482893517
0.255000000000000115,-7.852216991642002597
0.256000000000000116,-7.963874433132363428
0.257000000000000117,-8.069726278388836604
0.258000000000000118,-8.169979303695329875
0.259000000000000119,-8.264832760565036907
0.260000000000000120,-8.354478931023599841
0.261000000000000121,-8.439103611360058821
0.262000000000000122,-8.518886529285513376
0.263000000000000123,-8.594001699690151597
0.264000000000000123,-8.664617724332547510
0.265000000000000124,-8.730898040842921759
0.266000000000000125,-8.793001126390027622
0.267000000000000126,-8.851080661259555171
0.268000000000000127,-8.905285657433882562
0.269000000000000128,-8.955760557057431015
0.270000000000000129,-9.002645305429464173
0.271000000000000130,-9.046075402894903306
0.272000000000000131,-9.086181939711298838
0.273000000000000131,-9.123091617663437347
0.274000000000000132,-9.156926761881859278
0.275000000000000133,-9.187805326003523732
0.276000000000000134,-9.215840893495661490
0.277000000000000135,-9.241142677651858151
0.278000000000000136,-9.263815522465719710
0.279000000000000137,-9.283959906294537490
0.280000000000000138,-9.301671949945102824
0.281000000000000139,-9.317043430548533678
0.282000000000000139,-9.330161802341114807
0.283000000000000140,-9.341110225235111031
0.284000000000000141,-9.349967601847581022
0.285000000000000142,-9.356808623456894125
0.286000000000000143,-9.361703825175769822
0.287000000000000144,-9.364719650465797685
0.288000000000000145,-9.365918524972443038
0.289000000000000146,-9.365358939528686477
0.290000000000000147,-9.363095542061994792
0.291000000000000147,-9.359179238039716964
0.292000000000000148,-9.353657299003989678
0.293000000000000149,-9.346573478675827218
0.294000000000000150,-9.337968136049976664
0.295000000000000151,-9.327878364855973103
0.296000000000000152,-9.316338128724840573
0.297000000000000153,-9.303378401376203755
0.298000000000000154,-9.289027311123694730
0.299000000000000155,-9.273310288989184969
0.300000000000000155,-9.256250219715642658
0.301000000000000156,-9.237867594974783714
0.302000000000000157,-9.218180668077852857
0.303000000000000158,-9.197205609515076929
0.304000000000000159,-9.174956662671240437
0.305000000000000160,-9.151446299090155279
0.306000000000000161,-9.126685372689786746
0.307000000000000162,-9.100683272361051124
0.308000000000000163,-9.073448072416651300
0.309000000000000163,-9.044986680391538414
0.310000000000000164,-9.015304981732745304
0.311000000000000165,-8.984407980953173833
0.312000000000000166,-8.952299938861482786
0.313000000000000167,-8.918984505517494554
0.314000000000000168,-8.884464848599751718
0.315000000000000169,-8.848743776908516878
0.316000000000000170,-8.811823858763627726
0.317000000000000171,-8.773707535091526566
0.318000000000000171,-8.734397227029711885
0.319000000000000172,-8.693895437909922919
0.320000000000000173,-8.652204849512431295
0.321000000000000174,-8.609328412513939099
0.322000000000000175,-8.565269431080068330
0.323000000000000176,-8.520031641580294135
0.324000000000000177,-8.473619285428359404
0.325000000000000178,-8.426037176074901325
0.326000000000000179,-8.377290760201157482
0.327000000000000179,-8.327386173182649287
0.328000000000000180,-8.276330288910646260
0.329000000000000181,-8.224130764076488020
0.330000000000000182,-8.170796077038843919
0.331000000000000183,-8.116335561408570598
0.332000000000000184,-8.060759434497843046
0.333000000000000185,-8.004078820791564297
0.334000000000000186,-7.946305770608484309
0.335000000000000187,-7.887453274127897984
0.336000000000000187,-7.827535270964849801
0.337000000000000188,-7.766566655482298742
0.338000000000000189,-7.704563278033797147
0.339000000000000190,-7.641541942333435422
0.340000000000000191,-7.577520399152442465
0.341000000000000192,-7.512517336543663937
0.342000000000000193,-7.446552366795384792
0.343000000000000194,-7.379646010316363913
0.344000000000000195,-7.311819676652478783
0.345000000000000195,-7.243095642834378900
0.346000000000000196,-7.173497029252734691
0.347000000000000197,-7.103047773255218189
0.348000000000000198,-7.031772600655818550
0.349000000000000199,-6.959696995343191084
0.350000000000000200,-6.886847167170659922
0.351000000000000201,-6.813250018305564204
0.352000000000000202,-6.738933108210824585
0.353000000000000203,-6.663924617426317809
0.354000000000000203,-6.588253310312023991
0.355000000000000204,-6.511948496909167439
0.356000000000000205,-6.435039994069851055
0.357000000000000206,-6.357558085999426289
0.358000000000000207,-6.279533484349747674
0.359000000000000208,-6.200997287995360985
0.360000000000000209,-6.121980942618321819
0.361000000000000210,-6.042516200221062839
0.362000000000000210,-5.962635078680484924
0.363000000000000211,-5.882369821450239122
0.364000000000000212,-5.801752857512006756
0.365000000000000213,-5.720816761670315387
0.366000000000000214,-5.639594215279627676
0.367000000000000215,-5.558117967486301936
0.368000000000000216,-5.476420797062415247
0.369000000000000217,-5.394535474902513172
0.370000000000000218,-5.312494727249076121
0.371000000000000218,-5.230331199706805378
0.372000000000000219,-5.148077422100816314
0.373000000000000220,-5.065765774228593088
0.374000000000000221,-4.983428452550732857
0.375000000000000222,-4.901097437860628681
0.376000000000000223,-4.818804463968791474
0.377000000000000224,-4.736580987433058887
0.378000000000000225,-4.654458158361682862
0.379000000000000226,-4.572466792312250838
0.380000000000000226,-4.490637343305655449
0.381000000000000227,-4.408999877970371628
0.382000000000000228,-4.327584050829128337
0.383000000000000229,-4.246419080736471230
0.384000000000000230,-4.165533728472615493
0.385000000000000231,-4.084956275496179678
0.386000000000000232,-4.004714503855309360
0.387000000000000233,-3.924835677254256527
0.388000000000000234,-3.845346523269859595
0.389000000000000234,-3.766273216710266158
0.390000000000000235,-3.687641364105696873
0.391000000000000236,-3.609475989319508304
0.392000000000000237,-3.531801520265459793
0.393000000000000238,-3.454641776715810408
0.394000000000000239,-3.378019959182887000
0.395000000000000240,-3.301958638855617689
0.396000000000000241,-3.226479748571040140
0.397000000000000242,-3.151604574799554026
0.398000000000000242,-3.077353750621802497
0.399000000000000243,-3.003747249673863529
0.400000000000000244,-2.930804381036621553
0.401000000000000245,-2.858543785044683538
0.402000000000000246,-2.786983429989150274
0.403000000000000247,-2.716140609688188157
0.404000000000000248,-2.646031941899011919
0.405000000000000249,-2.576673367544223048
0.406000000000000250,-2.508080150725289670
0.407000000000000250,-2.440266879495784025
0.408000000000000251,-2.373247467366621066
0.409000000000000252,-2.307035155515756664
0.410000000000000253,-2.241642515674437064
0.411000000000000254,-2.177081453662431443
0.412000000000000255,-2.113363213544546149
0.413000000000000256,-2.050498382381036322
0.414000000000000257,-1.988496895544504373
0.415000000000000258,-1.927368042576412588
0.416000000000000258,-1.867120473556302951
0.417000000000000259,-1.807762205957358592
0.418000000000000260,-1.749300631962209973
0.419000000000000261,-1.691742526213233289
0.420000000000000262,-1.635094053972109496
0.421000000000000263,-1.579360779663795622
0.422000000000000264,-1.524547675780483669
0.423000000000000265,-1.470659132121662882
0.424000000000000266,-1.417698965347015339
0.425000000000000266,-1.365670428819124371
0.426000000000000267,-1.314576222713810028
0.427000000000000268,-1.264418504376279229
0.428000000000000269,-1.215198898901901359
0.429000000000000270,-1.166918509921030633
0.430000000000000271,-1.119577930567770441
0.431000000000000272,-1.073177254613293385
0.432000000000000273,-1.027716087744820594
0.433000000000000274,-0.983193558972036086
0.434000000000000274,-0.939608332143212821
0.435000000000000275,-0.896958617554038384
0.436000000000000276,-0.855242183632656583
0.437000000000000277,-0.814456368684977505
0.438000000000000278,-0.774598092685053863
0.439000000000000279,-0.735663869095782630
0.440000000000000280,-0.697649816705770087
0.441000000000000281,-0.660551671468843304
0.442000000000000282,-0.624364798333256754
0.443000000000000282,-0.589084203048075072
0.444000000000000283,-0.554704543934963712
0.445000000000000284,-0.521220143614021914
0.446000000000000285,-0.488625000672786580
0.447000000000000286,-0.456912801268334001
0.448000000000000287,-0.426076930652489416
0.449000000000000288,-0.396110484611112312
0.450000000000000289,-0.367006280808559793
0.451000000000000290,-0.338756870029135237
0.452000000000000290,-0.311354547307700902
0.453000000000000291,-0.284791362942125592
0.454000000000000292,-0.259059133380700912
0.455000000000000293,-0.234149451978027168
0.456000000000000294,-0.210053699613430872
0.457000000000000295,-0.186763055166217440
0.458000000000000296,-0.164268505842637774
0.459000000000000297,-0.142560857349689318
0.460000000000000298,-0.121630743911372588
0.461000000000000298,-0.101468638123275806
0.462000000000000299,-0.082064860641846218
0.463000000000000300,-0.063409589704904887
0.464000000000000301,-0.045492870480415747
0.465000000000000302,-0.028304624240784993
0.466000000000000303,-0.011834657360260592
0.467000000000000304,0.003927329866696838
0.468000000000000305,0.018991734587823838
0.469000000000000306,0.033369042937896221
0.470000000000000306,0.047069821767213485
0.471000000000000307,0.060104710554825823
0.472000000000000308,0.072484413507229076
0.473000000000000309,0.084219691843158029
0.474000000000000310,0.095321356264776849
0.475000000000000311,0.105800259615402931
0.476000000000000312,0.115667289723666661
0.477000000000000313,0.124933362433900366
0.478000000000000314,0.133609414822251360
0.479000000000000314,0.141706398597877675
0.480000000000000315,0.149235273688512193
0.481000000000000316,0.156207002009353974
0.482000000000000317,0.162632541414257231
0.483000000000000318,0.168522839827934673
0.484000000000000319,0.173888829557853286
0.485000000000000320,0.178741421784249122
0.486000000000000321,0.183091501226730097
0.487000000000000322,0.186949920985687634
0.488000000000000322,0.190327497556724456
0.489000000000000323,0.193235006016140132
0.490000000000000324,0.195683175375496232
0.491000000000000325,0.197682684103129669
0.492000000000000326,0.199244155810487766
0.493000000000000327,0.200378155100988442
0.494000000000000328,0.201095183579131337
0.495000000000000329,0.201405676017475666
0.496000000000000330,0.201319996679063251
0.497000000000000330,0.200848435792812779
0.498000000000000331,0.200001206179364399
0.499000000000000332,0.198788440024830287
0.500000000000000333,0.197220185799831332
0.501000000000000334,0.195306405321225285
0.502000000000000335,0.193056970953857265
0.503000000000000336,0.190481662949664343
0.504000000000000337,0.187590166921450197
0.505000000000000338,0.184392071448614026
0.506000000000000338,0.180896865812114144
0.507000000000000339,0.177113937855954917
0.508000000000000340,0.173052571972446695
0.509000000000000341,0.168721947208524958
0.510000000000000342,0.164131135490377666
0.511000000000000343,0.159289099963671854
0.512000000000000344,0.154204693446641727
0.513000000000000345,0.148886656993343081
0.514000000000000346,0.143343618564340941
0.515000000000000346,0.137584091802187752
0.516000000000000347,0.131616474908989756
0.517000000000000348,0.125449049623387682
0.518000000000000349,0.119089980294374273
0.519000000000000350,0.112547313049290151
0.520000000000000351,0.105828975053392504
0.521000000000000352,0.098942773858485961
0.522000000000000353,0.091896396838021754
0.523000000000000353,0.084697410706170401
0.524000000000000354,0.077353261118387875
0.525000000000000355,0.069871272350991664
0.526000000000000356,0.062258647057367944
0.527000000000000357,0.054522466098350118
0.528000000000000358,0.046669688444458977
0.529000000000000359,0.038707151147663453
0.530000000000000360,0.030641569380336013
0.531000000000000361,0.022479536539178186
0.532000000000000361,0.014227524411876146
0.533000000000000362,0.005891883404280801
0.534000000000000363,-0.002521157174016422
0.535000000000000364,-0.011005488767845007
0.536000000000000365,-0.019555123180436087
0.537000000000000366,-0.028164192125260973
0.538000000000000367,-0.036826946727729494
0.539000000000000368,-0.045537756978740226
0.540000000000000369,-0.054291111141975587
0.541000000000000369,-0.063081615116870882
0.542000000000000370,-0.071903991759096453
0.543000000000000371,-0.080753080160358842
0.544000000000000372,-0.089623834889333398
0.545000000000000373,-0.098511325195428781
0.546000000000000374,-0.107410734177127251
0.547000000000000375,-0.116317357916517622
0.548000000000000376,-0.125226604581721718
0.549000000000000377,-0.134133993498723930
0.550000000000000377,-0.143035154194208064
0.551000000000000378,-0.151925825410924448
0.552000000000000379,-0.160801854097018582
0.553000000000000380,-0.169659194370830213
0.554000000000000381,-0.178493906462510427
0.555000000000000382,-0.187302155633885026
0.556000000000000383,-0.196080211077846067
0.557000000000000384,-0.204824444798625382
0.558000000000000385,-0.213531330474179881
0.559000000000000385,-0.222197442301951043
0.560000000000000386,-0.230819453829165078
0.561000000000000387,-0.239394136768877663
0.562000000000000388,-0.247918359802872246
0.563000000000000389,-0.256389087372525637
0.564000000000000390,-0.264803378458689676
0.565000000000000391,-0.273158385351666311
0.566000000000000392,-0.281451352412235289
0.567000000000000393,-0.289679614824752518
0.568000000000000393,-0.297840597343227320
0.569000000000000394,-0.305931813031342648
0.570000000000000395,-0.313950861997245811
0.571000000000000396,-0.321895430124017889
0.572000000000000397,-0.329763287796643323
0.573000000000000398,-0.337552288626249919
0.574000000000000399,-0.345260368172442766
0.575000000000000400,-0.352885542664447216
0.576000000000000401,-0.360425907721794503
0.577000000000000401,-0.367879637075253729
0.578000000000000402,-0.375244981288686774
0.579000000000000403,-0.382520266482438032
0.580000000000000404,-0.389703893058940376
0.581000000000000405,-0.396794334431096518
0.582000000000000406,-0.403790135754016233
0.583000000000000407,-0.410689912660692547
0.584000000000000408,-0.417492350002113710
0.585000000000000409,-0.424196200592337758
0.586000000000000409,-0.430800283959038466
0.587000000000000410,-0.437303485099958089
0.588000000000000411,-0.443704753245734995
0.589000000000000412,-0.450003100629545127
0.590000000000000413,-0.456197601263940267
0.591000000000000414,-0.462287389725304809
0.592000000000000415,-0.468271659946282448
0.593000000000000416,-0.474149664016541628
0.594000000000000417,-0.479920710992216670
0.595000000000000417,-0.485584165714331994
0.596000000000000418,-0.491139447636540383
0.597000000000000419,-0.496586029662442030
0.598000000000000420,-0.501923436992764649
0.599000000000000421,-0.507151245982667143
0.600000000000000422,-0.512269083009408877
0.601000000000000423,-0.517276623350606202
0.602000000000000424,-0.522173590073292226
0.603000000000000425,-0.526959752934016201
0.604000000000000425,-0.531634927290096426
0.605000000000000426,-0.536198973022276704
0.606000000000000427,-0.540651793468923225
0.607000000000000428,-0.544993334371872917
0.608000000000000429,-0.549223582834169943
0.609000000000000430,-0.553342566289683591
0.610000000000000431,-0.557350351484868112
0.611000000000000432,-0.561247043472658746
0.612000000000000433,-0.565032784618646811
0.613000000000000433,-0.568707753619644873
0.614000000000000434,-0.572272164534654904
