# C-amorph-1_BGLCNA-JS
# h[nm],U(h)[kJ/mol]
0.149999999999999994,158.654565203591005229
0.150999999999999995,156.535038053304248251
0.151999999999999996,153.111803314700978262
0.152999999999999997,149.419892455262981912
0.153999999999999998,145.844384913393412262
0.154999999999999999,142.464029351517496025
0.156000000000000000,139.236829542983656438
0.157000000000000001,136.092629981005813988
0.158000000000000002,132.973231776140920601
0.159000000000000002,129.844675794217380371
0.160000000000000003,126.696183496206302266
0.161000000000000004,123.533894854367488847
0.162000000000000005,120.373666574706959409
0.163000000000000006,117.234906864343656707
0.164000000000000007,114.136136892948613308
0.165000000000000008,111.092297940330851702
0.166000000000000009,108.113517453084483577
0.167000000000000010,105.204948452599367670
0.168000000000000010,102.367306754327529461
0.169000000000000011,99.597790312766122156
0.170000000000000012,96.891140861848171539
0.171000000000000013,94.240681781419738172
0.172000000000000014,91.639229269560203761
0.173000000000000015,89.079823510883187510
0.174000000000000016,86.556262739837194431
0.175000000000000017,84.063447546503198282
0.176000000000000018,81.597557676806502514
0.177000000000000018,79.156091207551767752
0.178000000000000019,76.737798379703335172
0.179000000000000020,74.342541268353969031
0.180000000000000021,71.971107213725574070
0.181000000000000022,69.624999557096060698
0.182000000000000023,67.306224450838584517
0.183000000000000024,65.017087837076047663
0.184000000000000025,62.760012423173840546
0.185000000000000026,60.537380793373586130
0.186000000000000026,58.351407753077616292
0.187000000000000027,56.204042605950021994
0.188000000000000028,54.096900270628317742
0.189000000000000029,52.031218884735835672
0.190000000000000030,50.007840738512598477
0.191000000000000031,48.027212945695637814
0.192000000000000032,46.089404115845255205
0.193000000000000033,44.194133367987703309
0.194000000000000034,42.340808257355767807
0.195000000000000034,40.528568522205674185
0.196000000000000035,38.756332953050979029
0.197000000000000036,37.022847108188727816
0.198000000000000037,35.326730021279821869
0.199000000000000038,33.666518450228338111
0.200000000000000039,32.040707588846089493
0.201000000000000040,30.447787495781511780
0.202000000000000041,28.886274784759809364
0.203000000000000042,27.354739365089308478
0.204000000000000042,25.851826222575702730
0.205000000000000043,24.376272390939675461
0.206000000000000044,22.926919386043021376
0.207000000000000045,21.502721463796564905
0.208000000000000046,20.102750121912045245
0.209000000000000047,18.726195300067857374
0.210000000000000048,17.372363746829627473
0.211000000000000049,16.040675018777207583
0.212000000000000050,14.730655561355632699
0.213000000000000050,13.441931295226174470
0.214000000000000051,12.174219099150372259
0.215000000000000052,10.927317543109968057
0.216000000000000053,9.701097185460927363
0.217000000000000054,8.495490707091747140
0.218000000000000055,7.310483115123195041
0.219000000000000056,6.146102209673877326
0.220000000000000057,5.002409470377925160
0.221000000000000058,3.879491485231574277
0.222000000000000058,2.777452013296742184
0.223000000000000059,1.696404745015118731
0.224000000000000060,0.636466799438981878
0.225000000000000061,-0.402247023461008268
0.226000000000000062,-1.419629235208889950
0.227000000000000063,-2.415583910695694669
0.228000000000000064,-3.390030226379103340
0.229000000000000065,-4.342905321240586147
0.230000000000000066,-5.274166524167810621
0.231000000000000066,-6.183792996609798642
0.232000000000000067,-7.071786842721262012
0.233000000000000068,-7.938173741024118435
0.234000000000000069,-8.783003152099695399
0.235000000000000070,-9.606348156206793831
0.236000000000000071,-10.408304973198651666
0.237000000000000072,-11.188992214874568631
0.238000000000000073,-11.948549917109469121
0.239000000000000073,-12.687138395905819266
0.240000000000000074,-13.404936968038654754
0.241000000000000075,-14.102142573318701579
0.242000000000000076,-14.778968331782289525
0.243000000000000077,-15.435642065405241752
0.244000000000000078,-16.072404810296230693
0.245000000000000079,-16.689509341806100906
0.246000000000000080,-17.287218731633618773
0.247000000000000081,-17.865804952847433640
0.248000000000000081,-18.425547545798352189
0.249000000000000082,-18.966732355181637359
0.250000000000000111,-19.489650346034181894
0.251000000000000112,-19.994596504216946897
0.252000000000000113,-20.481868824940395513
0.253000000000000114,-20.951767391128349516
0.254000000000000115,-21.404593541883642160
0.255000000000000115,-21.840649129997171229
0.256000000000000116,-22.260235866325938758
0.257000000000000117,-22.663654747936583078
0.258000000000000118,-23.051205566155559268
0.259000000000000119,-23.423186490072705368
0.260000000000000120,-23.779893720594483142
0.261000000000000121,-24.121621209821171306
0.262000000000000122,-24.448660440318331410
0.263000000000000123,-24.761300258747603209
0.264000000000000123,-25.059826758307977457
0.265000000000000124,-25.344523204498141666
0.266000000000000125,-25.615669998836978039
0.267000000000000126,-25.873544675357095457
0.268000000000000127,-26.118421924910357745
0.269000000000000128,-26.350573642581156975
0.270000000000000129,-26.570268993788197065
0.271000000000000130,-26.777774494959537321
0.272000000000000131,-26.973354104982597335
0.273000000000000131,-27.157269323955244289
0.274000000000000132,-27.329779296090197960
0.275000000000000133,-27.491140913950470548
0.276000000000000134,-27.641608921512037966
0.277000000000000135,-27.781436013860002276
0.278000000000000136,-27.910872931624290061
0.279000000000000137,-28.030168548546207319
0.280000000000000138,-28.139569950838097867
0.281000000000000139,-28.239322507253586281
0.282000000000000139,-28.329669929023054920
0.283000000000000140,-28.410854319030299564
0.284000000000000141,-28.483116209808166275
0.285000000000000142,-28.546694590116267420
0.286000000000000143,-28.601826920031051316
0.287000000000000144,-28.648749134628122448
0.288000000000000145,-28.687695636470674998
0.289000000000000146,-28.718899277233617795
0.290000000000000147,-28.742591328895809255
0.291000000000000147,-28.759001445018167686
0.292000000000000148,-28.768357612699638537
0.293000000000000149,-28.770886095861250453
0.294000000000000150,-28.766811370557348937
0.295000000000000151,-28.756356053048818922
0.296000000000000152,-28.739740821398761739
0.297000000000000153,-28.717184331368436290
0.298000000000000154,-28.688903127398141635
0.299000000000000155,-28.655111549458563758
0.300000000000000155,-28.616021636550801333
0.301000000000000156,-28.571843027620463573
0.302000000000000157,-28.522782860632844404
0.303000000000000158,-28.469045670532885595
0.304000000000000159,-28.410833286787074314
0.305000000000000160,-28.348344731172801403
0.306000000000000161,-28.281776116448888558
0.307000000000000162,-28.211320546504190077
0.308000000000000163,-28.137168018544365111
0.309000000000000163,-28.059505327838479616
0.310000000000000164,-27.978515975507214364
0.311000000000000165,-27.894380079794672156
0.312000000000000166,-27.807274291225844820
0.313000000000000167,-27.717371712011601659
0.314000000000000168,-27.624841820023512184
0.315000000000000169,-27.529850397622276148
0.316000000000000170,-27.432559465585409697
0.317000000000000171,-27.333127222342984197
0.318000000000000171,-27.231707988694456191
0.319000000000000172,-27.128452158145769602
0.320000000000000173,-27.023506152972622374
0.321000000000000174,-26.917012386084838482
0.322000000000000175,-26.809109228736922148
0.323000000000000176,-26.699930984102309139
0.324000000000000177,-26.589607866702102967
0.325000000000000178,-26.478265987654634017
0.326000000000000179,-26.366027345689843742
0.327000000000000179,-26.253009823850625537
0.328000000000000180,-26.139327191784389015
0.329000000000000181,-26.025089113510311734
0.330000000000000182,-25.910401160531328912
0.331000000000000183,-25.795364830145910418
0.332000000000000184,-25.680077568801216614
0.333000000000000185,-25.564632800318182859
0.334000000000000186,-25.449119958808861242
0.335000000000000187,-25.333624526097604956
0.336000000000000187,-25.218228073450866589
0.337000000000000188,-25.103008307413549716
0.338000000000000189,-24.988039119545799593
0.339000000000000190,-24.873390639849855432
0.340000000000000191,-24.759129293673879602
0.341000000000000192,-24.645317861878620391
0.342000000000000193,-24.532015544050935318
0.343000000000000194,-24.419278024549619488
0.344000000000000195,-24.307157541168358250
0.345000000000000195,-24.195702956203980705
0.346000000000000196,-24.084959829718748381
0.347000000000000197,-23.974970494789818787
0.348000000000000198,-23.865774134541503315
0.349000000000000199,-23.757406860760518441
0.350000000000000200,-23.649901793898557401
0.351000000000000201,-23.543289144271547286
0.352000000000000202,-23.437596294269976482
0.353000000000000203,-23.332847881400503809
0.354000000000000203,-23.229065881984446662
0.355000000000000204,-23.126269695345023081
0.356000000000000205,-23.024476228321393734
0.357000000000000206,-22.923699979953831019
0.358000000000000207,-22.823953126190790641
0.359000000000000208,-22.725245604475176719
0.360000000000000209,-22.627585198074051220
0.361000000000000210,-22.530977620022024865
0.362000000000000210,-22.435426596555863910
0.363000000000000211,-22.340933949923861945
0.364000000000000212,-22.247499680460855132
0.365000000000000213,-22.155122047825280163
0.366000000000000214,-22.063797651302174074
0.367000000000000215,-21.973521509081372471
0.368000000000000216,-21.884287136427325038
0.369000000000000217,-21.796086622662162569
0.370000000000000218,-21.708910706890389264
0.371000000000000218,-21.622748852398860464
0.372000000000000219,-21.537589319671667454
0.373000000000000220,-21.453419237965096755
0.374000000000000221,-21.370224675392964997
0.375000000000000222,-21.287990707477881358
0.376000000000000223,-21.206701484129368396
0.377000000000000224,-21.126340295013800841
0.378000000000000225,-21.046889633286777865
0.379000000000000226,-20.968331257661944278
0.380000000000000226,-20.890646252795612270
0.381000000000000227,-20.813815087969530282
0.382000000000000228,-20.737817674059179751
0.383000000000000229,-20.662633418777755168
0.384000000000000230,-20.588241280189954807
0.385000000000000231,-20.514619818493244452
0.386000000000000232,-20.441747246067006216
0.387000000000000233,-20.369601475793281509
0.388000000000000234,-20.298160167655503017
0.389000000000000234,-20.227400773624601982
0.390000000000000235,-20.157300580843752869
0.391000000000000236,-20.087836753126111944
0.392000000000000237,-20.018986370781444606
0.393000000000000238,-19.950726468790055179
0.394000000000000239,-19.883034073343917925
0.395000000000000240,-19.815886236777039642
0.396000000000000241,-19.749260070908356113
0.397000000000000242,-19.683132778822091780
0.398000000000000242,-19.617481685111947343
0.399000000000000243,-19.552284264616424991
0.400000000000000244,-19.487518169673933244
0.401000000000000245,-19.423161255927297475
0.402000000000000246,-19.359191606707973676
0.403000000000000247,-19.295587556031186693
0.404000000000000248,-19.232327710233892759
0.405000000000000249,-19.169390968288073651
0.406000000000000250,-19.106756540821987045
0.407000000000000250,-19.044403967883077655
0.408000000000000251,-18.982313135475756383
0.409000000000000252,-18.920464290908292071
0.410000000000000253,-18.858838056982484943
0.411000000000000254,-18.797415445060423167
0.412000000000000255,-18.736177867042336231
0.413000000000000256,-18.675107146289796844
0.414000000000000257,-18.614185527527986608
0.415000000000000258,-18.553395685761110201
0.416000000000000258,-18.492720734234531221
0.417000000000000259,-18.432144231476879526
0.418000000000000260,-18.371650187455497161
0.419000000000000261,-18.311223068877712450
0.420000000000000262,-18.250847803670488645
0.421000000000000263,-18.190509784670553017
0.422000000000000264,-18.130194872556224084
0.423000000000000265,-18.069889398052321638
0.424000000000000266,-18.009580163438762668
0.425000000000000266,-17.949254443392693048
0.426000000000000267,-17.888899985193905451
0.427000000000000268,-17.828505008322515835
0.428000000000000269,-17.768058203477238521
0.429000000000000270,-17.707548731042102474
0.430000000000000271,-17.646966219028954015
0.431000000000000272,-17.586300760522252773
0.432000000000000273,-17.525542910652081474
0.433000000000000274,-17.464683683121045021
0.434000000000000274,-17.403714546309409172
0.435000000000000275,-17.342627418982839771
0.436000000000000276,-17.281414665626151361
0.437000000000000277,-17.220069091425752816
0.438000000000000278,-17.158583936923051283
0.439000000000000279,-17.096952872360397180
0.440000000000000280,-17.035169991740282569
0.441000000000000281,-16.973229806618139293
0.442000000000000282,-16.911127239648386933
0.443000000000000282,-16.848857617902492478
0.444000000000000283,-16.786416665977682783
0.445000000000000284,-16.723800498913782064
0.446000000000000285,-16.661005614935348262
0.447000000000000286,-16.598028888035795347
0.448000000000000287,-16.534867560419062471
0.449000000000000288,-16.471519234814511634
0.450000000000000289,-16.407981866679552496
0.451000000000000290,-16.344253756304198077
0.452000000000000290,-16.280333540831293249
0.453000000000000291,-16.216220186205287490
0.454000000000000292,-16.151912979062224451
0.455000000000000293,-16.087411518572775293
0.456000000000000294,-16.022715708249968714
0.457000000000000295,-15.957825747732448107
0.458000000000000296,-15.892742124553709715
0.459000000000000297,-15.827465605907423907
0.460000000000000298,-15.761997230418220539
0.461000000000000298,-15.696338299927043991
0.462000000000000299,-15.630490371299696761
0.463000000000000300,-15.564455248266636289
0.464000000000000301,-15.498234973301890705
0.465000000000000302,-15.431831819548287754
0.466000000000000303,-15.365248282796002854
0.467000000000000304,-15.298487073520902868
0.468000000000000305,-15.231551108988821142
0.469000000000000306,-15.164443505431586701
0.470000000000000306,-15.097167570300232597
0.471000000000000307,-15.029726794600330564
0.472000000000000308,-14.962124845314434651
0.473000000000000309,-14.894365557915786979
0.474000000000000310,-14.826452928977579049
0.475000000000000311,-14.758391108881454556
0.476000000000000312,-14.690184394628904130
0.477000000000000313,-14.621837222758662378
0.478000000000000314,-14.553354162372993841
0.479000000000000314,-14.484739908275923170
0.480000000000000315,-14.415999274225356430
0.481000000000000316,-14.347137186301765155
0.482000000000000317,-14.278158676395118931
0.483000000000000318,-14.209068875811919241
0.484000000000000319,-14.139873009003895987
0.485000000000000320,-14.070576387419654552
0.486000000000000321,-14.001184403480527507
0.487000000000000322,-13.931702524681403688
0.488000000000000322,-13.862136287817417468
0.489000000000000323,-13.792491293337183933
0.490000000000000324,-13.722773199822878354
0.491000000000000325,-13.652987718597509925
0.492000000000000326,-13.583140608459483900
0.493000000000000327,-13.513237670544603120
0.494000000000000328,-13.443284743315107477
0.495000000000000329,-13.373287697675786845
0.496000000000000330,-13.303252432216501333
0.497000000000000330,-13.233184868580881499
0.498000000000000331,-13.163090946960291916
0.499000000000000332,-13.092976621712713481
0.500000000000000333,-13.022847857105423586
0.501000000000000334,-12.952710623180731631
0.502000000000000335,-12.882570891743759134
0.503000000000000336,-12.812434632471241258
0.504000000000000337,-12.742307809140154262
0.505000000000000338,-12.672196375974989380
0.506000000000000338,-12.602106274112411910
0.507000000000000339,-12.532043428181973255
0.508000000000000340,-12.462013743001431720
0.509000000000000341,-12.392023100385424428
0.510000000000000342,-12.322077356065737064
0.511000000000000343,-12.252182336721856970
0.512000000000000344,-12.182343837120132690
0.513000000000000345,-12.112567617359948358
0.514000000000000346,-12.042859400225360389
0.515000000000000346,-11.973224868640361507
0.516000000000000347,-11.903669663226178699
0.517000000000000348,-11.834199379958969089
0.518000000000000349,-11.764819567925931310
0.519000000000000350,-11.695535727178333119
0.520000000000000351,-11.626353306679479971
0.521000000000000352,-11.557277702346029358
0.522000000000000353,-11.488314255180643642
0.523000000000000353,-11.419468249494308054
0.524000000000000354,-11.350744911216573030
0.525000000000000355,-11.282149406291662075
0.526000000000000356,-11.213686839158883757
0.527000000000000357,-11.145362251315441782
0.528000000000000358,-11.077180619959712260
0.529000000000000359,-11.009146856713419638
0.530000000000000360,-10.941265806420679141
0.531000000000000361,-10.873542246022257274
0.532000000000000361,-10.805980883503183421
0.533000000000000362,-10.738586356911977049
0.534000000000000363,-10.671363233449735475
0.535000000000000364,-10.604316008627229451
0.536000000000000365,-10.537449105488423839
0.537000000000000366,-10.470766873898572413
0.538000000000000367,-10.404273589895183250
0.539000000000000368,-10.337973455100287978
0.540000000000000369,-10.271870596192117731
0.541000000000000369,-10.205969064434784244
0.542000000000000370,-10.140272835264088513
0.543000000000000371,-10.074785807927989723
0.544000000000000372,-10.009511805180096644
0.545000000000000373,-9.944454573024568589
0.546000000000000374,-9.879617780510907110
0.547000000000000375,-9.815005019577043299
0.548000000000000376,-9.750619804939315571
0.549000000000000377,-9.686465574027762315
0.550000000000000377,-9.622545686965224832
0.551000000000000378,-9.558863426588905199
0.552000000000000379,-9.495421998512952655
0.553000000000000380,-9.432224531230579245
0.554000000000000381,-9.369274076254402672
0.555000000000000382,-9.306573608293772892
0.556000000000000383,-9.244126025467444663
0.557000000000000384,-9.181934149550675883
0.558000000000000385,-9.120000726255176104
0.559000000000000385,-9.058328425540818074
0.560000000000000386,-8.996919841957801367
0.561000000000000387,-8.935777495018125904
0.562000000000000388,-8.874903829595123028
0.563000000000000389,-8.814301216349957002
0.564000000000000390,-8.753971952183915661
0.565000000000000391,-8.693918260715413737
0.566000000000000392,-8.634142292780591532
0.567000000000000393,-8.574646126956542602
0.568000000000000393,-8.515431770105960751
0.569000000000000394,-8.456501157942350133
0.570000000000000395,-8.397856155614807250
0.571000000000000396,-8.339498558311239762
0.572000000000000397,-8.281430091879320443
0.573000000000000398,-8.223652413464055400
0.574000000000000399,-8.166167112161202724
0.575000000000000400,-8.108975709685577016
0.576000000000000401,-8.052079661053397786
0.577000000000000401,-7.995480355278023588
0.578000000000000402,-7.939179116077918152
0.579000000000000403,-7.883177202596371558
0.580000000000000404,-7.827475810132132672
0.581000000000000405,-7.772076070880084231
0.582000000000000406,-7.716979054681398331
0.583000000000000407,-7.662185769782320577
0.584000000000000408,-7.607697163601064183
0.585000000000000409,-7.553514123501986255
0.586000000000000409,-7.499637477576479583
0.587000000000000410,-7.446067995429993758
0.588000000000000411,-7.392806388974451970
0.589000000000000412,-7.339853313225631837
0.590000000000000413,-7.287209367104781066
0.591000000000000414,-7.234875094244014981
0.592000000000000415,-7.182850983795001198
0.593000000000000416,-7.131137471240225345
0.594000000000000417,-7.079734939206498545
0.595000000000000417,-7.028643718280309649
0.596000000000000418,-6.977864087824125150
0.597000000000000419,-6.927396276793831298
0.598000000000000420,-6.877240464556220623
0.599000000000000421,-6.827396781706610795
0.600000000000000422,-6.777865310885863082
0.601000000000000423,-6.728646087596601433
0.602000000000000424,-6.679739101018117076
0.603000000000000425,-6.631144294819709906
0.604000000000000425,-6.582861567972011940
0.605000000000000426,-6.534890775556019271
