# C-amorph-1_AMAN-JS
# h[nm],U(h)[kJ/mol]
0.200000000000000011,143.497764442506934301
0.201000000000000012,141.376633481597679065
0.202000000000000013,138.995608806018992709
0.203000000000000014,136.580471474730700265
0.204000000000000015,134.243990939139791863
0.205000000000000016,132.029826035200784418
0.206000000000000016,129.941995980321735260
0.207000000000000017,127.964127007742462183
0.208000000000000018,126.071559654378432924
0.209000000000000019,124.238560128029234875
0.210000000000000020,122.442250621934050514
0.211000000000000021,120.664406938461780783
0.212000000000000022,118.891928044917420948
0.213000000000000023,117.116531024620442736
0.214000000000000024,115.334043177739459907
0.215000000000000024,113.543533110384103679
0.216000000000000025,111.746431095747837503
0.217000000000000026,109.945725625044858020
0.218000000000000027,108.145280221134910903
0.219000000000000028,106.349286516604522035
0.220000000000000029,104.561852019458271457
0.221000000000000030,102.786710737712652985
0.222000000000000031,101.027039588165578721
0.223000000000000032,99.285361590189907588
0.224000000000000032,97.563517035383483744
0.225000000000000033,95.862685276221554886
0.226000000000000034,94.183441901681334230
0.227000000000000035,92.525838467319459824
0.228000000000000036,90.889494362569919872
0.229000000000000037,89.273692669460686488
0.230000000000000038,87.677473904540192962
0.231000000000000039,86.099723297456591808
0.232000000000000040,84.539248735143814883
0.233000000000000040,82.994847700113439259
0.234000000000000041,81.465362477273799868
0.235000000000000042,79.949723624761034557
0.236000000000000043,78.446982231724760481
0.237000000000000044,76.956331851039863068
0.238000000000000045,75.477121226951794597
0.239000000000000046,74.008859063508197096
0.240000000000000047,72.551212122921668879
0.241000000000000048,71.103997924166520761
0.242000000000000048,69.667173248311001998
0.243000000000000049,68.240819562552431421
0.244000000000000050,66.825126361155440691
0.245000000000000051,65.420373297598345630
0.246000000000000052,64.026911855263605844
0.247000000000000053,62.645147179234257351
0.248000000000000054,61.275520573010965109
0.249000000000000055,59.918493053849303465
0.250000000000000056,58.574530260590748298
0.251000000000000056,57.244088919196499887
0.252000000000000057,55.927604993990897242
0.253000000000000058,54.625483586720427809
0.254000000000000059,53.338090590459366069
0.255000000000000060,52.065746060443018450
0.256000000000000061,50.808719228235680987
0.257000000000000062,49.567225058315401043
0.258000000000000063,48.341422226222071856
0.259000000000000064,47.131412383911381880
0.260000000000000064,45.937240569962781933
0.261000000000000065,44.758896618934180367
0.262000000000000066,43.596317424626001014
0.263000000000000067,42.449389915583843447
0.264000000000000068,41.317954607166150538
0.265000000000000069,40.201809602346969541
0.266000000000000070,39.100714922607501478
0.267000000000000071,38.014397060348187551
0.268000000000000071,36.942553654859047185
0.269000000000000072,35.884858204703249385
0.270000000000000073,34.840964740143888889
0.271000000000000074,33.810512389771517405
0.272000000000000075,32.793129785605891868
0.273000000000000076,31.788439260528996044
0.274000000000000077,30.796060800868662710
0.275000000000000078,29.815615725229797306
0.276000000000000079,28.846730068232176336
0.277000000000000079,27.889037654637139241
0.278000000000000080,26.942182855439739342
0.279000000000000081,26.005823022873034489
0.280000000000000082,25.079630605948796784
0.281000000000000083,24.163294952172428509
0.282000000000000084,23.256523804460297100
0.283000000000000085,22.359044505096921540
0.284000000000000086,21.470604920839480911
0.285000000000000087,20.590974105062503696
0.286000000000000087,19.719942714172397302
0.287000000000000088,18.857323196464609083
0.288000000000000089,18.002949772185537824
0.289000000000000090,17.156678223840373221
0.290000000000000091,16.318385515800535757
0.291000000000000092,15.487969262042724949
0.292000000000000093,14.665347060437346371
0.293000000000000094,13.850455711426453931
0.294000000000000095,13.043250338221360707
0.295000000000000095,12.243703424833572768
0.296000000000000096,11.451803787357714981
0.297000000000000097,10.667555492968606501
0.298000000000000098,9.890976740100239084
0.299000000000000099,9.122098712255805708
0.300000000000000100,8.360964416872963767
0.301000000000000101,7.607627519645701497
0.302000000000000102,6.862151183700487600
0.303000000000000103,6.124606922039999901
0.304000000000000103,5.395073470720649134
0.305000000000000104,4.673635689316391506
0.306000000000000105,3.960383494352504474
0.307000000000000106,3.255410830569441138
0.308000000000000107,2.558814684101578418
0.309000000000000108,1.870694140931553395
0.310000000000000109,1.191149493305628138
0.311000000000000110,0.520281396175283684
0.312000000000000111,-0.141809924844480933
0.313000000000000111,-0.795025413028926264
0.314000000000000112,-1.439267867112761667
0.315000000000000113,-2.074442574803742723
0.316000000000000114,-2.700457893550422206
0.317000000000000115,-3.317225779211175229
0.318000000000000116,-3.924662263568625242
0.319000000000000117,-4.522687881890860240
0.320000000000000118,-5.111228051962629415
0.321000000000000119,-5.690213406197648816
0.322000000000000119,-6.259580078598786734
0.323000000000000120,-6.819269948459623087
0.324000000000000121,-7.369230842802340753
0.325000000000000122,-7.909416699621320213
0.326000000000000123,-8.439787694055896239
0.327000000000000124,-8.960310329649223249
0.328000000000000125,-9.470957496865217706
0.329000000000000126,-9.971708501034424188
0.330000000000000127,-10.462549061885106028
0.331000000000000127,-10.943471286786996544
0.332000000000000128,-11.414473619797012915
0.333000000000000129,-11.875560768547661183
0.334000000000000130,-12.326743610961869990
0.335000000000000131,-12.768039083715848392
0.336000000000000132,-13.199470054300991961
0.337000000000000133,-13.621065178463661383
0.338000000000000134,-14.032858744724794775
0.339000000000000135,-14.434890507599845932
0.340000000000000135,-14.827205511060776999
0.341000000000000136,-15.209853903696901156
0.342000000000000137,-15.582890746949937366
0.343000000000000138,-15.946375817714621093
0.344000000000000139,-16.300373406515447527
0.345000000000000140,-16.644952112387489507
0.346000000000000141,-16.980184635510969571
0.347000000000000142,-17.306147568570573014
0.348000000000000143,-17.622921187735627768
0.349000000000000143,-17.930589244083325440
0.350000000000000144,-18.229238756217085893
0.351000000000000145,-18.518959804763397869
0.352000000000000146,-18.799845329366043245
0.353000000000000147,-19.071990928733658421
0.354000000000000148,-19.335494664237568685
0.355000000000000149,-19.590456867500627425
0.356000000000000150,-19.836979952364043100
0.357000000000000151,-20.075168231569268329
0.358000000000000151,-20.305127738444468832
0.359000000000000152,-20.526966053840723703
0.360000000000000153,-20.740792138521946697
0.361000000000000154,-20.946716171172894860
0.362000000000000155,-21.144849392154959844
0.363000000000000156,-21.335303953105068331
0.364000000000000157,-21.518192772442642280
0.365000000000000158,-21.693629396821926036
0.366000000000000159,-21.861727868539656328
0.367000000000000159,-22.022602598886329872
0.368000000000000160,-22.176368247406049505
0.369000000000000161,-22.323139607011960095
0.370000000000000162,-22.463031494886120498
0.371000000000000163,-22.596158649077203506
0.372000000000000164,-22.722635630695908304
0.373000000000000165,-22.842576731595290340
0.374000000000000166,-22.956095887413390244
0.375000000000000167,-23.063306595845187275
0.376000000000000167,-23.164321840004426178
0.377000000000000168,-23.259254016728299064
0.378000000000000169,-23.348214869673132199
0.379000000000000170,-23.431315427044431488
0.380000000000000171,-23.508665943802274256
0.381000000000000172,-23.580375848179254916
0.382000000000000173,-23.646553692348078357
0.383000000000000174,-23.707307107074164776
0.384000000000000175,-23.762742760189066615
0.385000000000000175,-23.812966318720686587
0.386000000000000176,-23.858082414518118952
0.387000000000000177,-23.898194613209629011
0.388000000000000178,-23.933405386335444121
0.389000000000000179,-23.963816086498788138
0.390000000000000180,-23.989526925381916556
0.391000000000000181,-24.010636954477156735
0.392000000000000182,-24.027244048386055653
0.393000000000000183,-24.039444890544057643
0.394000000000000183,-24.047334961231495498
0.395000000000000184,-24.051008527736271958
0.396000000000000185,-24.050558636537449075
0.397000000000000186,-24.046077107383432292
0.398000000000000187,-24.037654529142994164
0.399000000000000188,-24.025380257311724108
0.400000000000000189,-24.009342413060601018
0.401000000000000190,-23.989627883718846135
0.402000000000000191,-23.966322324586624148
0.403000000000000191,-23.939510161978340363
0.404000000000000192,-23.909274597401413587
0.405000000000000193,-23.875697612779894996
0.406000000000000194,-23.838859976636506133
0.407000000000000195,-23.798841251151070963
0.408000000000000196,-23.755719800017217835
0.409000000000000197,-23.709572797023476198
0.410000000000000198,-23.660476235289024771
0.411000000000000199,-23.608504937087506192
0.412000000000000199,-23.553732564197083832
0.413000000000000200,-23.496231628717563211
0.414000000000000201,-23.436073504299702819
0.415000000000000202,-23.373328437734652852
0.416000000000000203,-23.308065560855084186
0.417000000000000204,-23.240352902702642979
0.418000000000000205,-23.170257401919311491
0.419000000000000206,-23.097844919323318180
0.420000000000000207,-23.023180250632737653
0.421000000000000207,-22.946327139303235754
0.422000000000000208,-22.867348289447853915
0.423000000000000209,-22.786305378810560285
0.424000000000000210,-22.703259071766357380
0.425000000000000211,-22.618269032323627954
0.426000000000000212,-22.531393937106528824
0.427000000000000213,-22.442691488296624414
0.428000000000000214,-22.352218426515580774
0.429000000000000214,-22.260030543632073119
0.430000000000000215,-22.166182695477655074
0.431000000000000216,-22.070728814458476563
0.432000000000000217,-21.973721922050330591
0.433000000000000218,-21.875214141166914317
0.434000000000000219,-21.775256708391527383
0.435000000000000220,-21.673899986064576240
0.436000000000000221,-21.571193474219537478
0.437000000000000222,-21.467185822361692260
0.438000000000000222,-21.361924841084771742
0.439000000000000223,-21.255457513521339052
0.440000000000000224,-21.147830006624104726
0.441000000000000225,-21.039087682275368962
0.442000000000000226,-20.929275108223560409
0.443000000000000227,-20.818436068845301179
0.444000000000000228,-20.706613575733165078
0.445000000000000229,-20.593849878109089957
0.446000000000000230,-20.480186473064076580
0.447000000000000230,-20.365664115625644826
0.448000000000000231,-20.250322828654425678
0.449000000000000232,-20.134201912571732862
0.450000000000000233,-20.017339954920849721
0.451000000000000234,-19.899774839764024392
0.452000000000000235,-19.781543756918566146
0.453000000000000236,-19.662683211034639896
0.454000000000000237,-19.543229030518428857
0.455000000000000238,-19.423216376303734876
0.456000000000000238,-19.302679750475860487
0.457000000000000239,-19.181653004751208158
0.458000000000000240,-19.060169348816664581
0.459000000000000241,-18.938261358532148648
0.460000000000000242,-18.815960984000756895
0.461000000000000243,-18.693299557509870823
0.462000000000000244,-18.570307801347770038
0.463000000000000245,-18.447015835498820735
0.464000000000000246,-18.323453185222135176
0.465000000000000246,-18.199648788516803677
0.466000000000000247,-18.075631003477912628
0.467000000000000248,-17.951427615546982963
0.468000000000000249,-17.827065844660715754
0.469000000000000250,-17.702572352301512382
0.470000000000000251,-17.577973248453496069
0.471000000000000252,-17.453294098467313944
0.472000000000000253,-17.328559929837563658
0.473000000000000254,-17.203795238895565944
0.474000000000000254,-17.079023997421227676
0.475000000000000255,-16.954269659176752327
0.476000000000000256,-16.829555166365416596
0.477000000000000257,-16.704902956018237603
0.478000000000000258,-16.580334966311188083
0.479000000000000259,-16.455872642815997153
0.480000000000000260,-16.331536944686767754
0.481000000000000261,-16.207348350784936741
0.482000000000000262,-16.083326865745100065
0.483000000000000262,-15.959492025983783137
0.484000000000000263,-15.835862905653286248
0.485000000000000264,-15.712458122542756200
0.486000000000000265,-15.589295843928278273
0.487000000000000266,-15.466393792373750671
0.488000000000000267,-15.343769251484463467
0.489000000000000268,-15.221439071614748073
0.490000000000000269,-15.099419675531297713
0.491000000000000270,-14.977727064033667048
0.492000000000000270,-14.856376821532970567
0.493000000000000271,-14.735384121590339390
0.494000000000000272,-14.614763732416099273
0.495000000000000273,-14.494530022330522456
0.496000000000000274,-14.374696965187586883
0.497000000000000275,-14.255278145762090958
0.498000000000000276,-14.136286765101289120
0.499000000000000277,-14.017735645841625569
0.500000000000000222,-13.899637237491120345
0.501000000000000334,-13.782003621678262206
0.502000000000000224,-13.664846517367658763
0.503000000000000336,-13.548177286042900391
0.504000000000000226,-13.432006936857373347
0.505000000000000338,-13.316346131752709425
0.506000000000000227,-13.201205190545948653
0.507000000000000339,-13.086594095984844799
0.508000000000000229,-12.972522498772184107
0.509000000000000341,-12.858999722558593248
0.510000000000000231,-12.746034768904678458
0.511000000000000343,-12.633636322211641456
0.512000000000000233,-12.521812754621333141
0.513000000000000345,-12.410572130884752085
0.514000000000000234,-12.299922213199984355
0.515000000000000346,-12.189870466018321693
0.516000000000000236,-12.080424060819584753
0.517000000000000348,-11.971589880855495025
0.518000000000000238,-11.863374525861896558
0.519000000000000350,-11.755784316738575157
0.520000000000000240,-11.648825300197517052
0.521000000000000352,-11.542503253378580297
0.522000000000000242,-11.436823688432841806
0.523000000000000353,-11.331791857072966323
0.524000000000000243,-11.227412755090721674
0.525000000000000355,-11.123691126840993704
0.526000000000000245,-11.020631469692428794
0.527000000000000357,-10.918238038443819349
0.528000000000000247,-10.816514849706658552
0.529000000000000359,-10.715465686252873212
0.530000000000000249,-10.615094101327979814
0.531000000000000361,-10.515403422928887522
0.532000000000000250,-10.416396758046539972
0.533000000000000362,-10.318076996872509454
0.534000000000000252,-10.220446816969857906
0.535000000000000364,-10.123508687407305473
0.536000000000000254,-10.027264872857193367
0.537000000000000366,-9.931717437655979808
0.538000000000000256,-9.836868249828057742
0.539000000000000368,-9.742718985071553206
0.540000000000000258,-9.649271130706837951
0.541000000000000369,-9.556525989586512893
0.542000000000000259,-9.464484683967549827
0.543000000000000371,-9.373148159344497188
0.544000000000000261,-9.282517188244195694
0.545000000000000373,-9.192592373981238296
0.546000000000000263,-9.103374154374510141
0.547000000000000375,-9.014862805423833336
0.548000000000000265,-8.927058444947565619
0.549000000000000377,-8.839961036179827758
0.550000000000000266,-8.753570391328192812
0.551000000000000378,-8.667886175090945500
0.552000000000000268,-8.582907908134247421
0.553000000000000380,-8.498634970528724963
0.554000000000000270,-8.415066605145765877
0.555000000000000382,-8.332201921012837076
0.556000000000000272,-8.250039896628475589
0.557000000000000384,-8.168579383236053815
0.558000000000000274,-8.087819108057082929
0.559000000000000385,-8.007757677483166248
0.560000000000000275,-7.928393580227391269
0.561000000000000387,-7.849725190434396538
0.562000000000000277,-7.771750770749642712
0.563000000000000389,-7.694468475347522762
0.564000000000000279,-7.617876352918637295
0.565000000000000391,-7.541972349615913451
0.566000000000000281,-7.466754311959964419
0.567000000000000393,-7.392219989703377792
0.568000000000000282,-7.318367038654438161
0.569000000000000394,-7.245193023459767900
0.570000000000000284,-7.172695420346670403
0.571000000000000396,-7.100871619824578929
0.572000000000000286,-7.029718929346371326
0.573000000000000398,-6.959234575929043487
0.574000000000000288,-6.889415708734462740
0.575000000000000400,-6.820259401609885863
0.576000000000000290,-6.751762655588703588
0.577000000000000401,-6.683922401351355624
0.578000000000000291,-6.616735501646789253
0.579000000000000403,-6.550198753674446372
0.580000000000000293,-6.484308891427239985
0.581000000000000405,-6.419062587995304270
0.582000000000000295,-6.354456457831336280
0.583000000000000407,-6.290487058977063839
0.584000000000000297,-6.227150895251686968
0.585000000000000409,-6.164444418402054815
0.586000000000000298,-6.102364030215237101
0.587000000000000410,-6.040906084593330228
0.588000000000000300,-5.980066889591188151
0.589000000000000412,-5.919842709416913706
0.590000000000000302,-5.860229766395794293
0.591000000000000414,-5.801224242897688121
0.592000000000000304,-5.742822283228288249
0.593000000000000416,-5.685019995484421607
0.594000000000000306,-5.627813453373962105
0.595000000000000417,-5.571198698000284111
0.596000000000000307,-5.515171739611927748
0.597000000000000419,-5.459728559317538199
0.598000000000000309,-5.404865110766581715
0.599000000000000421,-5.350577321796013308
0.600000000000000311,-5.296861096043386397
0.601000000000000423,-5.243712314526535856
0.602000000000000313,-5.191126837190492616
0.603000000000000425,-5.139100504421493021
0.604000000000000314,-5.087629138529067063
0.605000000000000426,-5.036708545195839548
0.606000000000000316,-4.986334514896075376
0.607000000000000428,-4.936502824282754887
0.608000000000000318,-4.887209237544010598
0.609000000000000430,-4.838449507728846299
0.610000000000000320,-4.790219378042960940
0.611000000000000432,-4.742514583114557425
0.612000000000000322,-4.695330850230926778
0.613000000000000433,-4.648663900545907168
0.614000000000000323,-4.602509450258675194
0.615000000000000435,-4.556863211764232702
0.616000000000000325,-4.511720894776007462
0.617000000000000437,-4.467078207420771108
0.618000000000000327,-4.422930857306519137
0.619000000000000439,-4.379274552563344969
0.620000000000000329,-4.336105002858007040
0.621000000000000441,-4.293417920382324837
0.622000000000000330,-4.251209020815898576
0.623000000000000442,-4.209474024263418990
0.624000000000000332,-4.168208656167083248
0.625000000000000444,-4.127408648194320406
0.626000000000000334,-4.087069739101331756
0.627000000000000446,-4.047187675572692100
0.628000000000000336,-4.007758213037486250
0.629000000000000448,-3.968777116462243182
0.630000000000000338,-3.930240161121155928
0.631000000000000449,-3.892143133343771488
0.632000000000000339,-3.854481831240686773
0.633000000000000451,-3.817252065407486405
0.634000000000000341,-3.780449659607365565
0.635000000000000453,-3.744070451432671920
0.636000000000000343,-3.708110292945878683
0.637000000000000455,-3.672565051300152650
0.638000000000000345,-3.637430609340101650
0.639000000000000457,-3.602702866182700525
0.640000000000000346,-3.568377737779183434
0.641000000000000458,-3.534451157457769277
0.642000000000000348,-3.500919076447980949
0.643000000000000460,-3.467777464386544661
0.644000000000000350,-3.435022309805483953
0.645000000000000462,-3.402649620602491431
0.646000000000000352,-3.370655424494144459
0.647000000000000464,-3.339035769451998537
0.648000000000000353,-3.307786724122272037
0.649000000000000465,-3.276904378228950865
0.650000000000000355,-3.246384842961125283
0.651000000000000467,-3.216224251344433238
0.652000000000000357,-3.186418758597278966
0.653000000000000469,-3.156964542471837110
0.654000000000000359,-3.127857803580381901
0.655000000000000471,-3.099094765707020471
0.656000000000000361,-3.070671676105376058
0.657000000000000473,-3.042584805782212243
0.658000000000000362,-3.014830449767598175
