# C-amorph-1_PROPENE-AC
# h[nm],U(h)[kJ/mol]
0.149999999999999994,84.218829266896918284
0.150999999999999995,81.367096139214027062
0.151999999999999996,79.411978249834106691
0.152999999999999997,77.652649903331010250
0.153999999999999998,75.850001802228490533
0.154999999999999999,73.971433186023176631
0.156000000000000000,72.057932250038277289
0.157000000000000001,70.161190224737410404
0.158000000000000002,68.318870228875724138
0.159000000000000002,66.549141855229152043
0.160000000000000003,64.853722591530228669
0.161000000000000004,63.223638693334052618
0.162000000000000005,61.644866841356886766
0.163000000000000006,60.102694750180020833
0.164000000000000007,58.584534445404038649
0.165000000000000008,57.081352140777468662
0.166000000000000009,55.588043403134371090
0.167000000000000010,54.103105193397617256
0.168000000000000010,52.627911575824711576
0.169000000000000011,51.165830044129954501
0.170000000000000012,49.721343519334475047
0.171000000000000013,48.299280217714212426
0.172000000000000014,46.904203921096851104
0.173000000000000015,45.539981058036381967
0.174000000000000016,44.209516896028233646
0.175000000000000017,42.914638782278544227
0.176000000000000018,41.656097377880676902
0.177000000000000018,40.433655051552264581
0.178000000000000019,39.246232236884175393
0.179000000000000020,38.092086204037670427
0.180000000000000021,36.969001310405971594
0.181000000000000022,35.874474645240951531
0.182000000000000023,34.805885593825074409
0.183000000000000024,33.760641935196318286
0.184000000000000025,32.736298514421932282
0.185000000000000026,31.730647256661001165
0.186000000000000026,30.741779342256812413
0.187000000000000027,29.768121806084838710
0.188000000000000028,28.808451747151412548
0.189000000000000029,27.861891829914689822
0.190000000000000030,26.927890919039906947
0.191000000000000031,26.006193598945095857
0.192000000000000032,25.096802062702145975
0.193000000000000033,24.199933474053327842
0.194000000000000034,23.315975462109282290
0.195000000000000034,22.445441940238389122
0.196000000000000035,21.588930978340236777
0.197000000000000036,20.747086022151957962
0.198000000000000037,19.920561358360963311
0.199000000000000038,19.109992378225179266
0.200000000000000039,18.315970898757441887
0.201000000000000040,17.539025559545621036
0.202000000000000041,16.779607122736013736
0.203000000000000042,16.038078359728626054
0.204000000000000042,15.314708105812124828
0.205000000000000043,14.609668997876482877
0.206000000000000044,13.923038374898704106
0.207000000000000045,13.254801810657394157
0.208000000000000046,12.604858757965242688
0.209000000000000047,11.973029808940754748
0.210000000000000048,11.359065112314137735
0.211000000000000049,10.762653532875521734
0.212000000000000050,10.183432186870055247
0.213000000000000050,9.620996037907122655
0.214000000000000051,9.074907288743549572
0.215000000000000052,8.544704353544387843
0.216000000000000053,8.029910241730348730
0.217000000000000054,7.530040227443270950
0.218000000000000055,7.044608717448492818
0.219000000000000056,6.573135264635905806
0.220000000000000057,6.115149704064568148
0.221000000000000058,5.670196413768659127
0.222000000000000058,5.237837723462090977
0.223000000000000059,4.817656511106389594
0.224000000000000060,4.409258040350790608
0.225000000000000061,4.012271101473035451
0.226000000000000062,3.626348525018824098
0.227000000000000063,3.251167141239287961
0.228000000000000064,2.886427260036109832
0.229000000000000065,2.531851745803441744
0.230000000000000066,2.187184759647800458
0.231000000000000066,1.852190238283997870
0.232000000000000067,1.526650174736522203
0.233000000000000068,1.210362761076579474
0.234000000000000069,0.903140448023655784
0.235000000000000070,0.604807970533101980
0.236000000000000071,0.315200382647782218
0.237000000000000072,0.034161139052044209
0.238000000000000073,-0.238459744950943575
0.239000000000000073,-0.502807428819201929
0.240000000000000074,-0.759023856504546401
0.241000000000000075,-1.007249224402330556
0.242000000000000076,-1.247623295871335358
0.243000000000000077,-1.480286554758046602
0.244000000000000078,-1.705381194021251989
0.245000000000000079,-1.923051938792387006
0.246000000000000080,-2.133446706029597628
0.247000000000000081,-2.336717105342447365
0.248000000000000081,-2.533018787595555654
0.249000000000000082,-2.722511649566315306
0.250000000000000111,-2.905359904258464798
0.251000000000000112,-3.081732027485336811
0.252000000000000113,-3.251800592064095774
0.253000000000000114,-3.415742001429904029
0.254000000000000115,-3.573736134719204927
0.255000000000000115,-3.725965915407678075
0.256000000000000116,-3.872616815450470540
0.257000000000000117,-4.013876306584088560
0.258000000000000118,-4.149933270034571464
0.259000000000000119,-4.280977375358768988
0.260000000000000120,-4.407198438544527974
0.261000000000000121,-4.528785768829878933
0.262000000000000122,-4.645927512989381114
0.263000000000000123,-4.758810005091384632
0.264000000000000123,-4.867617128968093176
0.265000000000000124,-4.972529699871955700
0.266000000000000125,-5.073724871028291616
0.267000000000000126,-5.171375570043252878
0.268000000000000127,-5.265649969396863916
0.269000000000000128,-5.356710994547968951
0.270000000000000129,-5.444715872507577714
0.271000000000000130,-5.529815723102879943
0.272000000000000131,-5.612155194559020899
0.273000000000000131,-5.691872144471963324
0.274000000000000132,-5.769097366734822430
0.275000000000000133,-5.843954364512375932
0.276000000000000134,-5.916559168934602653
0.277000000000000135,-5.987020202798914781
0.278000000000000136,-6.055438188232464825
0.279000000000000137,-6.121906096968318778
0.280000000000000138,-6.186509141631380437
0.281000000000000139,-6.249324806210095673
0.282000000000000139,-6.310422913705931336
0.283000000000000140,-6.369865728802391658
0.284000000000000141,-6.427708093277075818
0.285000000000000142,-6.483997591791232473
0.286000000000000143,-6.538774745629718055
0.287000000000000144,-6.592073231927294330
0.288000000000000145,-6.643920125903743035
0.289000000000000146,-6.694336163636170234
0.290000000000000147,-6.743336022922571615
0.291000000000000147,-6.790928619831518631
0.292000000000000148,-6.837117418589106599
0.293000000000000149,-6.881900752522073006
0.294000000000000150,-6.925272153855411617
0.295000000000000151,-6.967220690250631954
0.296000000000000152,-7.007731306066498078
0.297000000000000153,-7.046785166425626024
0.298000000000000154,-7.084360002276672397
0.299000000000000155,-7.120430454751594418
0.300000000000000155,-7.154968417229542688
0.301000000000000156,-7.187943373632339039
0.302000000000000157,-7.219322731590295916
0.303000000000000158,-7.249072149230315176
0.304000000000000159,-7.277155854450519712
0.305000000000000160,-7.303536955655569152
0.306000000000000161,-7.328177743034956393
0.307000000000000162,-7.351039979571287297
0.308000000000000163,-7.372085181067066451
0.309000000000000163,-7.391274884576465531
0.310000000000000164,-7.408570904722370010
0.311000000000000165,-7.423935577468533609
0.312000000000000166,-7.437331991002120724
0.313000000000000167,-7.448724203462430360
0.314000000000000168,-7.458077447327752907
0.315000000000000169,-7.465358320343723264
0.316000000000000170,-7.470534962943334634
0.317000000000000171,-7.473577222170694867
0.318000000000000171,-7.474456802178191417
0.319000000000000172,-7.473147401419650393
0.320000000000000173,-7.469624836710428539
0.321000000000000174,-7.463867154369578039
0.322000000000000175,-7.455854728699153000
0.323000000000000176,-7.445570348091531621
0.324000000000000177,-7.432999289087556249
0.325000000000000178,-7.418129378736369794
0.326000000000000179,-7.400951045632735870
0.327000000000000179,-7.381457360028258918
0.328000000000000180,-7.359644063431264094
0.329000000000000181,-7.335509588124880409
0.330000000000000182,-7.309055067044458731
0.331000000000000183,-7.280284334465339846
0.332000000000000184,-7.249203917958044308
0.333000000000000185,-7.215823022072775927
0.334000000000000186,-7.180153504217027027
0.335000000000000187,-7.142209843190312490
0.336000000000000187,-7.102009100838323263
0.337000000000000188,-7.059570877285193724
0.338000000000000189,-7.014917260197846005
0.339000000000000190,-6.968072768529706806
0.340000000000000191,-6.919064291183440574
0.341000000000000192,-6.867921021023741801
0.342000000000000193,-6.814674384660986739
0.343000000000000194,-6.759357968416241924
0.344000000000000195,-6.702007440866182719
0.345000000000000195,-6.642660472354693368
0.346000000000000196,-6.581356651844885164
0.347000000000000197,-6.518137401472094083
0.348000000000000198,-6.453045889144978453
0.349000000000000199,-6.386126939527644097
0.350000000000000200,-6.317426943721901722
0.351000000000000201,-6.246993767954179155
0.352000000000000202,-6.174876661557478386
0.353000000000000203,-6.101126164524265150
0.354000000000000203,-6.025794014891834749
0.355000000000000204,-5.948933056207397208
0.356000000000000205,-5.870597145306089004
0.357000000000000206,-5.790841060621060521
0.358000000000000207,-5.709720411230947867
0.359000000000000208,-5.627291546836802105
0.360000000000000209,-5.543611468846976642
0.361000000000000210,-5.458737742735808141
0.362000000000000210,-5.372728411829105433
0.363000000000000211,-5.285641912657361274
0.364000000000000212,-5.197536992005614032
0.365000000000000213,-5.108472625777329412
0.366000000000000214,-5.018507939778604765
0.367000000000000215,-4.927702132518176903
0.368000000000000216,-4.836114400108471933
0.369000000000000217,-4.743803863342839655
0.370000000000000218,-4.650829497014814073
0.371000000000000218,-4.557250061535865981
0.372000000000000219,-4.463124036899670521
0.373000000000000220,-4.368509559032433209
0.374000000000000221,-4.273464358561087195
0.375000000000000222,-4.178045702023519326
0.376000000000000223,-4.082310335538105406
0.377000000000000224,-3.986314430942996090
0.378000000000000225,-3.890113534409345597
0.379000000000000226,-3.793762517526731326
0.380000000000000226,-3.697315530853542587
0.381000000000000227,-3.600825959919682795
0.382000000000000228,-3.504346383664401543
0.383000000000000229,-3.407928535287302108
0.384000000000000230,-3.311623265486407952
0.385000000000000231,-3.215480508053551567
0.386000000000000232,-3.119549247793413027
0.387000000000000233,-3.023877490729611761
0.388000000000000234,-2.928512236558002080
0.389000000000000234,-2.833499453304892945
0.390000000000000235,-2.738884054145182212
0.391000000000000236,-2.644709876333480203
0.392000000000000237,-2.551019662199084159
0.393000000000000238,-2.457855042154228009
0.394000000000000239,-2.365256519663233359
0.395000000000000240,-2.273263458119159086
0.396000000000000241,-2.181914069573307469
0.397000000000000242,-2.091245405261993540
0.398000000000000242,-2.001293347874471440
0.399000000000000243,-1.912092605505121501
0.400000000000000244,-1.823676707232602556
0.401000000000000245,-1.736078000268726385
0.402000000000000246,-1.649327648619276276
0.403000000000000247,-1.563455633199214656
0.404000000000000248,-1.478490753344969155
0.405000000000000249,-1.394460629666496976
0.406000000000000250,-1.311391708182339411
0.407000000000000250,-1.229309265681324259
0.408000000000000251,-1.148237416255010857
0.409000000000000252,-1.068199118945799997
0.410000000000000253,-0.989216186456082669
0.411000000000000254,-0.911309294864830477
0.412000000000000255,-0.834497994298678991
0.413000000000000256,-0.758800720505577564
0.414000000000000257,-0.684234807279917034
0.415000000000000258,-0.610816499689199377
0.416000000000000258,-0.538560968053171218
0.417000000000000259,-0.467482322627572333
0.418000000000000260,-0.397593628945690170
0.419000000000000261,-0.328906923771991433
0.420000000000000262,-0.261433231623433016
0.421000000000000263,-0.195182581815022016
0.422000000000000264,-0.130164025987582449
0.423000000000000265,-0.066385656076679525
0.424000000000000266,-0.003854622683181086
0.425000000000000266,0.057422846193224263
0.426000000000000267,0.117441426094676823
0.427000000000000268,0.176196676756063819
0.428000000000000269,0.233685022500998041
0.429000000000000270,0.289903732416417870
0.430000000000000271,0.344850900338250832
0.431000000000000272,0.398525424679260609
0.432000000000000273,0.450926988129078166
0.433000000000000274,0.502056037255212417
0.434000000000000274,0.551913762032699040
0.435000000000000275,0.600502075328823937
0.436000000000000276,0.647823592368293122
0.437000000000000277,0.693881610203099242
0.438000000000000278,0.738680087210177527
0.439000000000000279,0.782223622638902327
0.440000000000000280,0.824517436229462275
0.441000000000000281,0.865567347922038932
0.442000000000000282,0.905379757675698116
0.443000000000000282,0.943961625415041694
0.444000000000000283,0.981320451121482362
0.445000000000000284,1.017464255085244407
0.446000000000000285,1.052401558333255327
0.447000000000000286,1.086141363246984515
0.448000000000000287,1.118693134383761389
0.449000000000000288,1.150066779513919224
0.450000000000000289,1.180272630885521812
0.451000000000000290,1.209321426727506310
0.452000000000000290,1.237224293001339959
0.453000000000000291,1.263992725410557849
0.454000000000000292,1.289638571676746892
0.455000000000000293,1.314174014089968257
0.456000000000000294,1.337611552340759458
0.457000000000000295,1.359963986640398526
0.458000000000000296,1.381244401135275357
0.459000000000000297,1.401466147620811231
0.460000000000000298,1.420642829559594755
0.461000000000000298,1.438788286407995720
0.462000000000000299,1.455916578254849769
0.463000000000000300,1.472041970775404440
0.464000000000000301,1.487178920503108959
0.465000000000000302,1.501342060421428704
0.466000000000000303,1.514546185877391649
0.467000000000000304,1.526806240818145755
0.468000000000000305,1.538137304351311574
0.469000000000000306,1.548554577629671636
0.470000000000000306,1.558073371060204382
0.471000000000000307,1.566709091837212631
0.472000000000000308,1.574477231798891319
0.473000000000000309,1.581393355606421691
0.474000000000000310,1.587473089244288094
0.475000000000000311,1.592732108840304361
0.476000000000000312,1.597186129803477517
0.477000000000000313,1.600850896277693725
0.478000000000000314,1.603742170908825759
0.479000000000000314,1.605875724922733339
0.480000000000000315,1.607267328511398974
0.481000000000000316,1.607932741524174647
0.482000000000000317,1.607887704461023359
0.483000000000000318,1.607147929764372041
0.484000000000000319,1.605729093406113694
0.485000000000000320,1.603646826766041755
0.486000000000000321,1.600916708797984755
0.487000000000000322,1.597554258479668476
0.488000000000000322,1.593574927542285469
0.489000000000000323,1.588994093475604164
0.490000000000000324,1.583827052804387847
0.491000000000000325,1.578089014631747888
0.492000000000000326,1.571795094445064711
0.493000000000000327,1.564960308179948800
0.494000000000000328,1.557599566537681390
0.495000000000000329,1.549727669551593801
0.496000000000000330,1.541359301397636328
0.497000000000000330,1.532509025444546147
0.498000000000000331,1.523191279538800513
0.499000000000000332,1.513420371519689889
0.500000000000000333,1.503210474959665977
0.501000000000000334,1.492575625125239114
0.502000000000000335,1.481529715153605320
0.503000000000000336,1.470086492440232595
0.504000000000000337,1.458259555232610083
0.505000000000000338,1.446062349425372817
0.506000000000000338,1.433508165552051183
0.507000000000000339,1.420610135968697119
0.508000000000000340,1.407381232224638179
0.509000000000000341,1.393834262615698760
0.510000000000000342,1.379981869915166914
0.511000000000000343,1.365836529277915767
0.512000000000000344,1.351410546313036365
0.513000000000000345,1.336716055320451124
0.514000000000000346,1.321765017686956867
0.515000000000000346,1.306569220437242995
0.516000000000000347,1.291140274935444365
0.517000000000000348,1.275489615732837700
0.518000000000000349,1.259628499557372994
0.519000000000000350,1.243568004440762209
0.520000000000000351,1.227319028978860915
0.521000000000000352,1.210892291721255898
0.522000000000000353,1.194298330685883425
0.523000000000000353,1.177547502994662043
0.524000000000000354,1.160649984626175524
0.525000000000000355,1.143615770281421362
0.526000000000000356,1.126454673358847858
0.527000000000000357,1.109176326034812421
0.528000000000000358,1.091790179445763176
0.529000000000000359,1.074305503968493225
0.530000000000000360,1.056731389594826709
0.531000000000000361,1.039076746397243012
0.532000000000000361,1.021350305081950571
0.533000000000000362,1.003560617626015006
0.534000000000000363,0.985716057995214556
0.535000000000000364,0.967824822939357121
0.536000000000000365,0.949894932861852781
0.537000000000000366,0.931934232760424974
0.538000000000000367,0.913950393235885228
0.539000000000000368,0.895950911565979169
0.540000000000000369,0.877943112841376050
0.541000000000000369,0.859934151160942406
0.542000000000000370,0.841931010883484321
0.543000000000000371,0.823940507933260236
0.544000000000000372,0.805969291156551693
0.545000000000000373,0.788023843726745943
0.546000000000000374,0.770110484595337041
0.547000000000000375,0.752235369986421043
0.548000000000000376,0.734404494932227259
0.549000000000000377,0.716623694847387971
0.550000000000000377,0.698898647139618467
0.551000000000000378,0.681234872854587281
0.552000000000000379,0.663637738352854667
0.553000000000000380,0.646112457016698505
0.554000000000000381,0.628664090984847101
0.555000000000000382,0.611297552913101727
0.556000000000000383,0.594017607758905331
0.557000000000000384,0.576828874588011908
0.558000000000000385,0.559735828401410562
0.559000000000000385,0.542742801980737100
0.560000000000000386,0.525853987750500074
0.561000000000000387,0.509073439655406412
0.562000000000000388,0.492405075051217778
0.563000000000000389,0.475852676607566305
0.564000000000000390,0.459419894221237246
0.565000000000000391,0.443110246938438146
0.566000000000000392,0.426927124884672160
0.567000000000000393,0.410873791200840166
0.568000000000000393,0.394953383984263162
0.569000000000000394,0.379168918233338037
0.570000000000000395,0.363523287794651040
0.571000000000000396,0.348019267311307279
0.572000000000000397,0.332659514171377624
0.573000000000000398,0.317446570455369170
0.574000000000000399,0.302382864881644675
0.575000000000000400,0.287470714748788325
0.576000000000000401,0.272712327873955218
0.577000000000000401,0.258109804526249154
0.578000000000000402,0.243665139354227567
0.579000000000000403,0.229380223306710984
0.580000000000000404,0.215256845546020786
0.581000000000000405,0.201296695352885108
0.582000000000000406,0.187501364022258560
0.583000000000000407,0.173872346749300577
0.584000000000000408,0.160411044504871286
0.585000000000000409,0.147118765899853510
0.586000000000000409,0.133996729037660189
0.587000000000000410,0.121046063354374039
0.588000000000000411,0.108267811445916129
0.589000000000000412,0.095662930881704633
0.590000000000000413,0.083232296004317113
0.591000000000000414,0.070976699714637242
0.592000000000000415,0.058896855242062396
0.593000000000000416,0.046993397899305206
0.594000000000000417,0.035266886821396233
0.595000000000000417,0.023717806688527555
0.596000000000000418,0.012346569432312354
0.597000000000000419,0.001153515925203241
0.598000000000000420,-0.009861082347319633
0.599000000000000421,-0.020697021632027902
0.600000000000000422,-0.031354164271015075
0.601000000000000423,-0.041832437082761777
0.602000000000000424,-0.052131829761469281
0.603000000000000425,-0.062252393294870409
0.604000000000000425,-0.072194238400687144
0.605000000000000426,-0.081957533981942193
0.606000000000000427,-0.091542505601290555
0.607000000000000428,-0.100949433974476935
0.608000000000000429,-0.110178653483114369
0.609000000000000430,-0.119230550706812322
0.610000000000000431,-0.128105562974846598
0.611000000000000432,-0.136804176937379951
0.612000000000000433,-0.145326927156337132
0.613000000000000433,-0.153674394716008939
0.614000000000000434,-0.161847205853382997
0.615000000000000435,-0.169846030608268611
0.616000000000000436,-0.177671581493239000
0.617000000000000437,-0.185324612183364573
