# C-amorph-1_THRSCA-AC
# h[nm],U(h)[kJ/mol]
0.149999999999999994,90.919926714715842309
0.150999999999999995,88.181942784303458893
0.151999999999999996,86.230781125212885740
0.152999999999999997,84.472013352879770309
0.153999999999999998,82.692846438661774755
0.154999999999999999,80.855873789147608477
0.156000000000000000,78.989736200421106105
0.157000000000000001,77.135975419383314033
0.158000000000000002,75.327013493781194597
0.159000000000000002,73.580236924985285896
0.160000000000000003,71.899503339789731626
0.161000000000000004,70.279302972135042182
0.162000000000000005,68.709158360339031901
0.163000000000000006,67.177205339245375626
0.164000000000000007,65.672642649048867725
0.165000000000000008,64.187110194887878833
0.166000000000000009,62.715212815883106146
0.167000000000000010,61.254444649409911960
0.168000000000000010,59.804748000015251819
0.169000000000000011,58.367894746729248823
0.170000000000000012,56.946827013220399749
0.171000000000000013,55.545046860077967210
0.172000000000000014,54.166106283763767237
0.173000000000000015,52.813219791552910465
0.174000000000000016,51.489001583867171519
0.175000000000000017,50.195316500318440944
0.176000000000000018,48.933226755696622945
0.177000000000000018,47.703013569280145134
0.178000000000000019,46.504252750567950159
0.179000000000000020,45.335925080034506607
0.180000000000000021,44.196545101651473431
0.181000000000000022,43.084295136596949760
0.182000000000000023,41.997154533487879746
0.183000000000000024,40.933017135674070630
0.184000000000000025,39.889792527796331001
0.185000000000000026,38.865488759251583417
0.186000000000000026,37.858275923648498917
0.187000000000000027,36.866531228246756768
0.188000000000000028,35.888867063649925626
0.189000000000000029,34.924144139314947211
0.190000000000000030,33.971472044737161866
0.191000000000000031,33.030199686968458650
0.192000000000000032,32.099897994521782607
0.193000000000000033,31.180337110897937691
0.194000000000000034,30.271460065699965725
0.195000000000000034,29.373354638026786034
0.196000000000000035,28.486224839256134800
0.197000000000000036,27.610363158121867144
0.198000000000000037,26.746124442719423797
0.199000000000000038,25.893902050026628814
0.200000000000000039,25.054106678576307132
0.201000000000000040,24.227148116254788590
0.202000000000000041,23.413419983014797765
0.203000000000000042,22.613287426321409868
0.204000000000000042,21.827077633147247582
0.205000000000000043,21.055072953448423334
0.206000000000000044,20.297506383108178341
0.207000000000000045,19.554559126071790587
0.208000000000000046,18.826359942613020593
0.209000000000000047,18.112985990357646671
0.210000000000000048,17.414464874085627599
0.211000000000000049,16.730777636983287238
0.212000000000000050,16.061862447778342045
0.213000000000000050,15.407618763246400562
0.214000000000000051,14.767911772409036075
0.215000000000000052,14.142576956124434773
0.216000000000000053,13.531424622733197793
0.217000000000000054,12.934244306223495968
0.218000000000000055,12.350808937486956296
0.219000000000000056,11.780878721281041521
0.220000000000000057,11.224204671271191813
0.221000000000000058,10.680531772895031750
0.222000000000000058,10.149601758751064295
0.223000000000000059,9.631155493834333114
0.224000000000000060,9.124934978328779422
0.225000000000000061,8.630684983977877422
0.226000000000000062,8.148154346469494769
0.227000000000000063,7.677096940981664730
0.228000000000000064,7.217272371244514595
0.229000000000000065,6.768446404377824521
0.230000000000000066,6.330391184560193452
0.231000000000000066,5.902885258454952933
0.232000000000000067,5.485713444434363595
0.233000000000000068,5.078666576160959067
0.234000000000000069,4.681541149146497993
0.235000000000000070,4.294138896638676428
0.236000000000000071,3.916266318694079818
0.237000000000000072,3.547734185675668783
0.238000000000000073,3.188357034745332719
0.239000000000000073,2.837952675273142322
0.240000000000000074,2.496341716505960040
0.241000000000000075,2.163347128375737061
0.242000000000000076,1.838793844011167966
0.243000000000000077,1.522508410370498000
0.244000000000000078,1.214318691454256527
0.245000000000000079,0.914053626793304597
0.246000000000000080,0.621543046344588235
0.247000000000000081,0.336617541561764322
0.248000000000000081,0.059108391238349878
0.249000000000000082,-0.211152460262422903
0.250000000000000111,-0.474332375583370935
0.251000000000000112,-0.730597951587673489
0.252000000000000113,-0.980114905533779557
0.253000000000000114,-1.223047924881030202
0.254000000000000115,-1.459560485621173020
0.255000000000000115,-1.689814644142509703
0.256000000000000116,-1.913970807648539774
0.257000000000000117,-2.132187488083011395
0.258000000000000118,-2.344621044370996721
0.259000000000000119,-2.551425417583928823
0.260000000000000120,-2.752751863385688669
0.261000000000000121,-2.948748685826834137
0.262000000000000122,-3.139560976235570067
0.263000000000000123,-3.325330360613777625
0.264000000000000123,-3.506194758593815575
0.265000000000000124,-3.682288156651686073
0.266000000000000125,-3.853740397912132742
0.267000000000000126,-4.020676990524809646
0.268000000000000127,-4.183218936243648933
0.269000000000000128,-4.341482580505917177
0.270000000000000129,-4.495579484987622720
0.271000000000000130,-4.645616323309495144
0.272000000000000131,-4.791694800284313160
0.273000000000000131,-4.933911594833981340
0.274000000000000132,-5.072358326463520584
0.275000000000000133,-5.207121544960183535
0.276000000000000134,-5.338282742789020929
0.277000000000000135,-5.465918389481037920
0.278000000000000136,-5.590099987157269190
0.279000000000000137,-5.710894146199563259
0.280000000000000138,-5.828362679966998527
0.281000000000000139,-5.942562717364414659
0.282000000000000139,-6.053546831995250344
0.283000000000000140,-6.161363186574003947
0.284000000000000141,-6.266055691232780944
0.285000000000000142,-6.367664174330569082
0.286000000000000143,-6.466224564361700899
0.287000000000000144,-6.561769081560070660
0.288000000000000145,-6.654326437807741357
0.289000000000000146,-6.743922043477634354
0.290000000000000147,-6.830578219871343393
0.291000000000000147,-6.914314415951063886
0.292000000000000148,-6.995147428110447763
0.293000000000000149,-7.073091621779920679
0.294000000000000150,-7.148159153718178338
0.295000000000000151,-7.220360193901464996
0.296000000000000152,-7.289703145985166444
0.297000000000000153,-7.356194865377704950
0.298000000000000154,-7.419840874033678979
0.299000000000000155,-7.480645571141236516
0.300000000000000155,-7.538612438946939776
0.301000000000000156,-7.593744243029756369
0.302000000000000157,-7.646043226403376636
0.303000000000000158,-7.695511296892645348
0.304000000000000159,-7.742150207295182440
0.305000000000000160,-7.785961727902561691
0.306000000000000161,-7.826947811017019419
0.307000000000000162,-7.865110747158918336
0.308000000000000163,-7.900453312716662069
0.309000000000000163,-7.932978908845349508
0.310000000000000164,-7.962691691471597721
0.311000000000000165,-7.989596692310707127
0.312000000000000166,-8.013699930848197539
0.313000000000000167,-8.035008517280413542
0.314000000000000168,-8.053530746448977595
0.315000000000000169,-8.069276182840747325
0.316000000000000170,-8.082255736759179854
0.317000000000000171,-8.092481731804037182
0.318000000000000171,-8.099967963825012163
0.319000000000000172,-8.104729751540448390
0.320000000000000173,-8.106783979035427024
0.321000000000000174,-8.106149130373943024
0.322000000000000175,-8.102845316577960588
0.323000000000000176,-8.096894295241796158
0.324000000000000177,-8.088319483063672877
0.325000000000000178,-8.077145961587353540
0.326000000000000179,-8.063400476456438426
0.327000000000000179,-8.047111430490584638
0.328000000000000180,-8.028308870898801075
0.329000000000000181,-8.007024470948739037
0.330000000000000182,-7.983291506412721006
0.331000000000000183,-7.957144827112553109
0.332000000000000184,-7.928620823883965052
0.333000000000000185,-7.897757391280042505
0.334000000000000186,-7.864593886329797279
0.335000000000000187,-7.829171083663959863
0.336000000000000187,-7.791531127315151295
0.337000000000000188,-7.751717479493541063
0.338000000000000189,-7.709774866632618462
0.339000000000000190,-7.665749222992358725
0.340000000000000191,-7.619687632098985475
0.341000000000000192,-7.571638266292408659
0.342000000000000193,-7.521650324643195162
0.343000000000000194,-7.469773969492051080
0.344000000000000195,-7.416060261854816815
0.345000000000000195,-7.360561095926685837
0.346000000000000196,-7.303329132908888077
0.347000000000000197,-7.244417734371270789
0.348000000000000198,-7.183880895353925489
0.349000000000000199,-7.121773177400690713
0.350000000000000200,-7.058149641707269772
0.351000000000000201,-6.993065782556319832
0.352000000000000202,-6.926577461201910424
0.353000000000000203,-6.858740840355681101
0.354000000000000203,-6.789612319417123842
0.355000000000000204,-6.719248470580707178
0.356000000000000205,-6.647705975943130952
0.357000000000000206,-6.575041565724610848
0.358000000000000207,-6.501311957708947098
0.359000000000000208,-6.426573797998467619
0.360000000000000209,-6.350883603171183722
0.361000000000000210,-6.274297703919276437
0.362000000000000210,-6.196872190239909983
0.363000000000000211,-6.118662858241682656
0.364000000000000212,-6.039725158622583301
0.365000000000000213,-5.960114146867993234
0.366000000000000214,-5.879884435210619209
0.367000000000000215,-5.799090146387467115
0.368000000000000216,-5.717784869222861666
0.369000000000000217,-5.636021616060401307
0.370000000000000218,-5.553852782061200699
0.371000000000000218,-5.471330106380216662
0.372000000000000219,-5.388504635227549855
0.373000000000000220,-5.305426686816683279
0.374000000000000221,-5.222145818197166278
0.375000000000000222,-5.138710793964910373
0.376000000000000223,-5.055169556839456568
0.377000000000000224,-4.971569200093682639
0.378000000000000225,-4.887955941818096228
0.379000000000000226,-4.804375100998546699
0.380000000000000226,-4.720871075383409554
0.381000000000000227,-4.637487321113249905
0.382000000000000228,-4.554266334083877155
0.383000000000000229,-4.471249633011092683
0.384000000000000230,-4.388477744163450822
0.385000000000000231,-4.305990187727649854
0.386000000000000232,-4.223825465769205145
0.387000000000000233,-4.142021051749844140
0.388000000000000234,-4.060613381561497093
0.389000000000000234,-3.979637846035893656
0.390000000000000235,-3.899128784887484045
0.391000000000000236,-3.819119482046876790
0.392000000000000237,-3.739642162341033860
0.393000000000000238,-3.660727989476150412
0.394000000000000239,-3.582407065278526481
0.395000000000000240,-3.504708430148621545
0.396000000000000241,-3.427660064683204499
0.397000000000000242,-3.351288892420404952
0.398000000000000242,-3.275620783662696933
0.399000000000000243,-3.200680560332759939
0.400000000000000244,-3.126492001817396726
0.401000000000000245,-3.053077851755297889
0.402000000000000246,-2.980459825724328660
0.403000000000000247,-2.908658619784839861
0.404000000000000248,-2.837693919835913015
0.405000000000000249,-2.767584411741959016
0.406000000000000250,-2.698347792187787864
0.407000000000000250,-2.630000780220941081
0.408000000000000251,-2.562559129440744599
0.409000000000000252,-2.496037640794429358
0.410000000000000253,-2.430450175941297086
0.411000000000000254,-2.365809671146924309
0.412000000000000255,-2.302128151670102874
0.413000000000000256,-2.239416746606247344
0.414000000000000257,-2.177685704151740786
0.415000000000000258,-2.116944407254835347
0.416000000000000258,-2.057201389619434106
0.417000000000000259,-1.998464352029226232
0.418000000000000260,-1.940740178960511431
0.419000000000000261,-1.884034955453006699
0.420000000000000262,-1.828353984209021288
0.421000000000000263,-1.773701802892208246
0.422000000000000264,-1.720082201598211569
0.423000000000000265,-1.667498240470350890
0.424000000000000266,-1.615952267434724643
0.425000000000000266,-1.565445936029697505
0.426000000000000267,-1.515980223306058416
0.427000000000000268,-1.467555447774855804
0.428000000000000269,-1.420171287380931568
0.429000000000000270,-1.373826797481150219
0.430000000000000271,-1.328520428807105080
0.431000000000000272,-1.284250045393129369
0.432000000000000273,-1.241012942451231282
0.433000000000000274,-1.198805864175479741
0.434000000000000274,-1.157625021459206760
0.435000000000000275,-1.117466109509253069
0.436000000000000276,-1.078324325342298273
0.437000000000000277,-1.040194385149073586
0.438000000000000278,-1.003070541513121361
0.439000000000000279,-0.966946600471486284
0.440000000000000280,-0.931815938405441413
0.441000000000000281,-0.897671518750125186
0.442000000000000282,-0.864505908512708032
0.443000000000000282,-0.832311294589240802
0.444000000000000283,-0.801079499871242384
0.445000000000000284,-0.770801999133513438
0.446000000000000285,-0.741469934695362154
0.447000000000000286,-0.713074131848195680
0.448000000000000287,-0.685605114042693642
0.449000000000000288,-0.659053117829703661
0.450000000000000289,-0.633408107549274235
0.451000000000000290,-0.608659789762936443
0.452000000000000290,-0.584797627424794575
0.453000000000000291,-0.561810853787465758
0.454000000000000292,-0.539688486039450632
0.455000000000000293,-0.518419338670868646
0.456000000000000294,-0.497992036565056473
0.457000000000000295,-0.478395027813820761
0.458000000000000296,-0.459616596254652232
0.459000000000000297,-0.441644873728500087
0.460000000000000298,-0.424467852057151152
0.461000000000000298,-0.408073394739544182
0.462000000000000299,-0.392449248366763981
0.463000000000000300,-0.377583053755669473
0.464000000000000301,-0.363462356801543873
0.465000000000000302,-0.350074619050355251
0.466000000000000303,-0.337407227991509129
0.467000000000000304,-0.325447507072237130
0.468000000000000305,-0.314182725435077304
0.469000000000000306,-0.303600107379993822
0.470000000000000306,-0.293686841553061906
0.471000000000000307,-0.284430089863726809
0.472000000000000308,-0.275816996132932091
0.473000000000000309,-0.267834694474517632
0.474000000000000310,-0.260470317412531238
0.475000000000000311,-0.253711003737200236
0.476000000000000312,-0.247543906102516476
0.477000000000000313,-0.241956198368441372
0.478000000000000314,-0.236935082690961918
0.479000000000000314,-0.232467796363311580
0.480000000000000315,-0.228541618411715941
0.481000000000000316,-0.225143875949259664
0.482000000000000317,-0.222261950291405441
0.483000000000000318,-0.219883282836922739
0.484000000000000319,-0.217995380717936893
0.485000000000000320,-0.216585822222989277
0.486000000000000321,-0.215642261996951856
0.487000000000000322,-0.215152436021778998
0.488000000000000322,-0.215104166382058232
0.489000000000000323,-0.215485365819429175
0.490000000000000324,-0.216284042079900651
0.491000000000000325,-0.217488302058184674
0.492000000000000326,-0.219086355743132094
0.493000000000000327,-0.221066519968422220
0.494000000000000328,-0.223417221972649432
0.495000000000000329,-0.226127002772915864
0.496000000000000330,-0.229184520356121052
0.497000000000000330,-0.232578552692061680
0.498000000000000331,-0.236298000572482042
0.499000000000000332,-0.240331890280196914
0.500000000000000333,-0.244669376092410490
0.501000000000000334,-0.249299742622285103
0.502000000000000335,-0.254212407002861907
0.503000000000000336,-0.259396920917341955
0.504000000000000337,-0.264842972479760852
0.505000000000000338,-0.270540387970020280
0.506000000000000338,-0.276479133427236623
0.507000000000000339,-0.282649316105293813
0.508000000000000340,-0.289041185794495559
0.509000000000000341,-0.295645136013120868
0.510000000000000342,-0.302451705072685484
0.511000000000000343,-0.309451577020640356
0.512000000000000344,-0.316635582464205867
0.513000000000000345,-0.323994699278976672
0.514000000000000346,-0.331520053205922482
0.515000000000000346,-0.339202918340286652
0.516000000000000347,-0.347034717515905533
0.517000000000000348,-0.355007022588402610
0.518000000000000349,-0.363111554620597687
0.519000000000000350,-0.371340183973491667
0.520000000000000351,-0.379684930306125934
0.521000000000000352,-0.388137962487484445
0.522000000000000353,-0.396691598423636271
0.523000000000000353,-0.405338304803224081
0.524000000000000354,-0.414070696764324730
0.525000000000000355,-0.422881537485710002
0.526000000000000356,-0.431763737705386674
0.527000000000000357,-0.440710355169352475
0.528000000000000358,-0.449714594013336022
0.529000000000000359,-0.458769804080294996
0.530000000000000360,-0.467869480176375308
0.531000000000000361,-0.477007261267973715
0.532000000000000361,-0.486176929622472720
0.533000000000000362,-0.495372409895197596
0.534000000000000363,-0.504587768165034367
0.535000000000000364,-0.513817210921149958
0.536000000000000365,-0.523055084003142157
0.537000000000000366,-0.532295871496933692
0.538000000000000367,-0.541534194588643714
0.539000000000000368,-0.550764810378633229
0.540000000000000369,-0.559982610657838276
0.541000000000000369,-0.569182620648483129
0.542000000000000370,-0.578359997711192397
0.543000000000000371,-0.587510030020455321
0.544000000000000372,-0.596628135210394706
0.545000000000000373,-0.605709858992662054
0.546000000000000374,-0.614750873748302729
0.547000000000000375,-0.623746977095334776
0.548000000000000376,-0.632694090433776890
0.549000000000000377,-0.641588257469753787
0.550000000000000377,-0.650425642720321551
0.551000000000000378,-0.659202530000573717
0.552000000000000379,-0.667915320894525211
0.553000000000000380,-0.676560533211285842
0.554000000000000381,-0.685134799427910446
0.555000000000000382,-0.693634865120337230
0.556000000000000383,-0.702057587383730031
0.557000000000000384,-0.710399933243535786
0.558000000000000385,-0.718658978058498876
0.559000000000000385,-0.726831903916855038
0.560000000000000386,-0.734915998026844042
0.561000000000000387,-0.742908651102714979
0.562000000000000388,-0.750807355747271421
0.563000000000000389,-0.758609704832040710
0.564000000000000390,-0.766313389876050577
0.565000000000000391,-0.773916199424216744
0.566000000000000392,-0.781416017426263210
0.567000000000000393,-0.788810821617087710
0.568000000000000393,-0.796098681899433114
0.569000000000000394,-0.803277758729723290
0.570000000000000395,-0.810346301507832045
0.571000000000000396,-0.817302646971581503
0.572000000000000397,-0.824145217596710444
0.573000000000000398,-0.830872520002992276
0.574000000000000399,-0.837483143367215077
0.575000000000000400,-0.843975757843648644
0.576000000000000401,-0.850349112992618728
0.577000000000000401,-0.856602036217801177
0.578000000000000402,-0.862733431212782564
0.579000000000000403,-0.868742276417408754
0.580000000000000404,-0.874627623484481864
0.581000000000000405,-0.880388595757240155
0.582000000000000406,-0.886024386758115789
0.583000000000000407,-0.891534258689201109
0.584000000000000408,-0.896917540944829339
0.585000000000000409,-0.902173628636663727
0.586000000000000409,-0.907301981131688806
0.587000000000000410,-0.912302120603417199
0.588000000000000411,-0.917173630596662570
0.589000000000000412,-0.921916154606192473
0.590000000000000413,-0.926529394669520001
0.591000000000000414,-0.931013109974141662
0.592000000000000415,-0.935367115479446953
0.593000000000000416,-0.939591280553537800
0.594000000000000417,-0.943685527625188314
0.595000000000000417,-0.947649830851124308
0.596000000000000418,-0.951484214798818839
0.597000000000000419,-0.955188753144970426
0.598000000000000420,-0.958763567389812943
0.599000000000000421,-0.962208825587392624
0.600000000000000422,-0.965524741091951966
0.601000000000000423,-0.968711571320500675
0.602000000000000424,-0.971769616531699021
0.603000000000000425,-0.974699218621138841
0.604000000000000425,-0.977500759933053187
0.605000000000000426,-0.980174662088561854
0.606000000000000427,-0.982721384830496647
0.607000000000000428,-0.985141424884777406
0.608000000000000429,-0.987435314838495559
0.609000000000000430,-0.989603622034556984
0.610000000000000431,-0.991646947483051044
0.611000000000000432,-0.993565924789225563
0.612000000000000433,-0.995361219098099270
0.613000000000000433,-0.997033526055722263
