# C-amorph-1_HIPSCA-AC
# h[nm],U(h)[kJ/mol]
0.149999999999999994,92.935691310748225646
0.150999999999999995,90.285538305573567186
0.151999999999999996,88.169629879549432871
0.152999999999999997,86.213969378999237847
0.153999999999999998,84.263963399709780333
0.154999999999999999,82.277985878458167690
0.156000000000000000,80.265455647659095462
0.157000000000000001,78.252831993412257816
0.158000000000000002,76.266594836903692567
0.159000000000000002,74.326133596759120792
0.160000000000000003,72.442067649157394271
0.161000000000000004,70.617248781530179258
0.162000000000000005,68.848825349042698463
0.163000000000000006,67.130470693380601688
0.164000000000000007,65.454328402451324109
0.165000000000000008,63.812496617465704674
0.166000000000000009,62.198026197520775327
0.167000000000000010,60.605486097346272345
0.168000000000000010,59.031182548507970864
0.169000000000000011,57.473125474056942608
0.170000000000000012,55.930828194428457323
0.171000000000000013,54.405012523398944779
0.172000000000000014,52.897275390371511605
0.173000000000000015,51.409757748889980178
0.174000000000000016,49.944843054857088305
0.175000000000000017,48.504901544642493150
0.176000000000000018,47.092087969044925444
0.177000000000000018,45.708194143900691131
0.178000000000000019,44.354553340605306744
0.179000000000000020,43.031990799828086836
0.180000000000000021,41.740813158625073243
0.181000000000000022,40.480829019448798078
0.182000000000000023,39.251392990105571812
0.183000000000000024,38.051466066426002044
0.184000000000000025,36.879686040775808920
0.185000000000000026,35.734442567549599801
0.186000000000000026,34.613952504854587744
0.187000000000000027,33.516332112201141058
0.188000000000000028,32.439663572862301066
0.189000000000000029,31.382054100289746401
0.190000000000000030,30.341686567687862208
0.191000000000000031,29.316861165416099766
0.192000000000000032,28.306028045945787142
0.193000000000000033,27.307811268684353934
0.194000000000000034,26.321024617761544562
0.195000000000000034,25.344680046781576266
0.196000000000000035,24.377989617822326096
0.197000000000000036,23.420361859482262901
0.198000000000000037,22.471393481606902753
0.199000000000000038,21.530857362470150917
0.200000000000000039,20.598687676447845263
0.201000000000000040,19.674962964167207247
0.202000000000000041,18.759887869111185665
0.203000000000000042,17.853774179933935784
0.204000000000000042,16.957021730498457401
0.205000000000000043,16.070099623165273073
0.206000000000000044,15.193528157617189223
0.207000000000000045,14.327861769300435313
0.208000000000000046,13.473673209617633262
0.209000000000000047,12.631539135075341207
0.210000000000000048,11.802027215039188945
0.211000000000000049,10.985684817656419909
0.212000000000000050,10.183029290707057868
0.213000000000000050,9.394539818318413893
0.214000000000000051,8.620650805168567743
0.215000000000000052,7.861746716489361297
0.216000000000000053,7.118158284282588788
0.217000000000000054,6.390159977091352417
0.218000000000000055,5.677968621829771578
0.219000000000000056,4.981743060995216688
0.220000000000000057,4.301584726515206292
0.221000000000000058,3.637539012014183726
0.222000000000000058,2.989597327941829086
0.223000000000000059,2.357699728369482273
0.224000000000000060,1.741738003944945934
0.225000000000000061,1.141559142165303964
0.226000000000000062,0.556969063487919080
0.227000000000000063,-0.012263450403014886
0.228000000000000064,-0.566402711835925166
0.229000000000000065,-1.105742033497549404
0.230000000000000066,-1.630599645526533026
0.231000000000000066,-2.141314675266047018
0.232000000000000067,-2.638243234172121365
0.233000000000000068,-3.121754649352339150
0.234000000000000069,-3.592227870628256881
0.235000000000000070,-4.050048077911672983
0.236000000000000071,-4.495603508078714228
0.237000000000000072,-4.929282515427869882
0.238000000000000073,-5.351470875214575429
0.239000000000000073,-5.762549335658064820
0.240000000000000074,-6.162891420202031512
0.241000000000000075,-6.552861478654416594
0.242000000000000076,-6.932812983113127991
0.243000000000000077,-7.303087062274812524
0.244000000000000078,-7.664011265794208327
0.245000000000000079,-8.015898548783265909
0.246000000000000080,-8.359046465280741245
0.247000000000000081,-8.693736558556942384
0.248000000000000081,-9.020233935412694137
0.249000000000000082,-9.338787011159951135
0.250000000000000111,-9.649627411707072611
0.251000000000000112,-9.952970019087196363
0.252000000000000113,-10.249013146842335331
0.253000000000000114,-10.537938831881897173
0.254000000000000115,-10.819913229757464279
0.255000000000000115,-11.095087100710586014
0.256000000000000116,-11.363596374344956175
0.257000000000000117,-11.625562781329353612
0.258000000000000118,-11.881094541140432952
0.259000000000000119,-12.130287095492150229
0.260000000000000120,-12.373223877760420208
0.261000000000000121,-12.609977109385617666
0.262000000000000122,-12.840608614916622088
0.263000000000000123,-13.065170648036959378
0.264000000000000123,-13.283706721583337540
0.265000000000000124,-13.496252435221023802
0.266000000000000125,-13.702836295077455375
0.267000000000000126,-13.903480520248706398
0.268000000000000127,-14.098201831683004670
0.269000000000000128,-14.287012219505992761
0.270000000000000129,-14.469919685384891039
0.271000000000000130,-14.646928957030421969
0.272000000000000131,-14.818042172405805346
0.273000000000000131,-14.983259531651450303
0.274000000000000132,-15.142579915141643809
0.275000000000000133,-15.296001466466288221
0.276000000000000134,-15.443522139477099842
0.277000000000000135,-15.585140208853436761
0.278000000000000136,-15.720854743931116815
0.279000000000000137,-15.850666045796904413
0.280000000000000138,-15.974576047884312402
0.281000000000000139,-16.092588680514431587
0.282000000000000139,-16.204710200008680232
0.283000000000000140,-16.310949483161650164
0.284000000000000141,-16.411318288001368160
0.285000000000000142,-16.505831481884239764
0.286000000000000143,-16.594507238072530697
0.287000000000000144,-16.677367202025838111
0.288000000000000145,-16.754436628706262269
0.289000000000000146,-16.825744492248936979
0.290000000000000147,-16.891323569390173986
0.291000000000000147,-16.951210498071819899
0.292000000000000148,-17.005445812657391969
0.293000000000000149,-17.054073957200909462
0.294000000000000150,-17.097143278206875294
0.295000000000000151,-17.134705998308934483
0.296000000000000152,-17.166818172276492760
0.297000000000000153,-17.193539626734310133
0.298000000000000154,-17.214933884950578857
0.299000000000000155,-17.231068078014214251
0.300000000000000155,-17.242012843683880874
0.301000000000000156,-17.247842214149379458
0.302000000000000157,-17.248633493901454727
0.303000000000000158,-17.244467128859206184
0.304000000000000159,-17.235426567855995472
0.305000000000000160,-17.221598117534533401
0.306000000000000161,-17.203070791651498439
0.307000000000000162,-17.179936155740726633
0.308000000000000163,-17.152288168032669091
0.309000000000000163,-17.120223017476448035
0.310000000000000164,-17.083838959660472057
0.311000000000000165,-17.043236151376653709
0.312000000000000166,-16.998516484524735404
0.313000000000000167,-16.949783420004138179
0.314000000000000168,-16.897141822193987082
0.315000000000000169,-16.840697794575820723
0.316000000000000170,-16.780558517009282582
0.317000000000000171,-16.716832085127531826
0.318000000000000171,-16.649627352278137948
0.319000000000000172,-16.579053774395113408
0.320000000000000173,-16.505221258149596508
0.321000000000000174,-16.428240012690018546
0.322000000000000175,-16.348220405247939624
0.323000000000000176,-16.265272820852612057
0.324000000000000177,-16.179507526365597414
0.325000000000000178,-16.091034539017396554
0.326000000000000179,-15.999963499599735073
0.327000000000000179,-15.906403550440705530
0.328000000000000180,-15.810463218265232044
0.329000000000000181,-15.712250302020072112
0.330000000000000182,-15.611871765720570338
0.331000000000000183,-15.509433636356627417
0.332000000000000184,-15.405040906876015683
0.333000000000000185,-15.298797444246130084
0.334000000000000186,-15.190805902579128883
0.335000000000000187,-15.081167641290457837
0.336000000000000187,-14.969982648247551538
0.337000000000000188,-14.857349467852731806
0.338000000000000189,-14.743365133993597382
0.339000000000000190,-14.628125107783656489
0.340000000000000191,-14.511723220006917501
0.341000000000000192,-14.394251618172344109
0.342000000000000193,-14.275800718076316898
0.343000000000000194,-14.156459159765441669
0.344000000000000195,-14.036313767785975060
0.345000000000000195,-13.915449515602039909
0.346000000000000196,-13.793949494060033345
0.347000000000000197,-13.671894883773896723
0.348000000000000198,-13.549364931302928738
0.349000000000000199,-13.426436928991572373
0.350000000000000200,-13.303186198339485458
0.351000000000000201,-13.179686076768575731
0.352000000000000202,-13.056007907653540911
0.353000000000000203,-12.932221033482145245
0.354000000000000203,-12.808392792011677130
0.355000000000000204,-12.684588515288682586
0.356000000000000205,-12.560871531400104928
0.357000000000000206,-12.437303168825218691
0.358000000000000207,-12.313942763259028368
0.359000000000000208,-12.190847666780136649
0.360000000000000209,-12.068073259237527495
0.361000000000000210,-11.945672961733375672
0.362000000000000210,-11.823698252081101145
0.363000000000000211,-11.702198682120698692
0.364000000000000212,-11.581221896775842239
0.365000000000000213,-11.460813654740253043
0.366000000000000214,-11.341017850683691393
0.367000000000000215,-11.221876538870816375
0.368000000000000216,-11.103429958089497731
0.369000000000000217,-10.985716557787991832
0.370000000000000218,-10.868773025323770653
0.371000000000000218,-10.752634314229904788
0.372000000000000219,-10.637333673408132739
0.373000000000000220,-10.522902677160972829
0.374000000000000221,-10.409371255978495441
0.375000000000000222,-10.296767727998474840
0.376000000000000223,-10.185118831061981126
0.377000000000000224,-10.074449755289505148
0.378000000000000225,-9.964784176105945690
0.379000000000000226,-9.856144287645765445
0.380000000000000226,-9.748550836472896108
0.381000000000000227,-9.642023155552566394
0.382000000000000228,-9.536579198415731540
0.383000000000000229,-9.432235573459141875
0.384000000000000230,-9.329007578327235706
0.385000000000000231,-9.226909234324759623
0.386000000000000232,-9.125953320811641234
0.387000000000000233,-9.026151409534318049
0.388000000000000234,-8.927513898850296670
0.389000000000000234,-8.830050047805283242
0.390000000000000235,-8.733768010024425266
0.391000000000000236,-8.638674867381904932
0.392000000000000237,-8.544776663414978657
0.393000000000000238,-8.452078436451241572
0.394000000000000239,-8.360584252419522855
0.395000000000000240,-8.270297237317345562
0.396000000000000241,-8.181219609309511753
0.397000000000000242,-8.093352710434487562
0.398000000000000242,-8.006697037897055225
0.399000000000000243,-7.921252274927473636
0.400000000000000244,-7.837017321188964658
0.401000000000000245,-7.753990322717312367
0.402000000000000246,-7.672168701377510835
0.403000000000000247,-7.591549183824137792
0.404000000000000248,-7.512127829953596958
0.405000000000000249,-7.433900060837567381
0.406000000000000250,-7.356860686128428028
0.407000000000000250,-7.281003930928688916
0.408000000000000251,-7.206323462117484091
0.409000000000000252,-7.132812414128579803
0.410000000000000253,-7.060463414175108809
0.411000000000000254,-6.989268606917541149
0.412000000000000255,-6.919219678572147814
0.413000000000000256,-6.850307880458311516
0.414000000000000257,-6.782524051983675584
0.415000000000000258,-6.715858643067207367
0.416000000000000258,-6.650301736000746367
0.417000000000000259,-6.585843066750550534
0.418000000000000260,-6.522472045700881793
0.419000000000000261,-6.460177777842344149
0.420000000000000262,-6.398949082408351252
0.421000000000000263,-6.338774511963575442
0.422000000000000264,-6.279642370948714358
0.423000000000000265,-6.221540733686490299
0.424000000000000266,-6.164457461854238041
0.425000000000000266,-6.108380221428709511
0.426000000000000267,-6.053296499109252160
0.427000000000000268,-5.999193618225838520
0.428000000000000269,-5.946058754138624280
0.429000000000000270,-5.893878949136242440
0.430000000000000271,-5.842641126839973609
0.431000000000000272,-5.792332106121538260
0.432000000000000273,-5.742938614542151043
0.433000000000000274,-5.694447301320900046
0.434000000000000274,-5.646844749840498778
0.435000000000000275,-5.600117489698772211
0.436000000000000276,-5.554252008314280786
0.437000000000000277,-5.509234762094507687
0.438000000000000278,-5.465052187175352572
0.439000000000000279,-5.421690709740535574
0.440000000000000280,-5.379136755929656566
0.441000000000000281,-5.337376761343711529
0.442000000000000282,-5.296397180156890094
0.443000000000000282,-5.256184493843416128
0.444000000000000283,-5.216725219528346003
0.445000000000000284,-5.178005917971092664
0.446000000000000285,-5.140013201190397396
0.447000000000000286,-5.102733739739725216
0.448000000000000287,-5.066154269641515384
0.449000000000000288,-5.030261598989232752
0.450000000000000289,-4.995042614225625677
0.451000000000000290,-4.960484286105835139
0.452000000000000290,-4.926573675353823845
0.453000000000000291,-4.893297938020432447
0.454000000000000292,-4.860644330551478376
0.455000000000000293,-4.828600214573988580
0.456000000000000294,-4.797153061408745423
0.457000000000000295,-4.766290456317124224
0.458000000000000296,-4.736000102490108610
0.459000000000000297,-4.706269824787275624
0.460000000000000298,-4.677087573233416506
0.461000000000000298,-4.648441426280324862
0.462000000000000299,-4.620319593841222705
0.463000000000000300,-4.592710420105045266
0.464000000000000301,-4.565602386137843638
0.465000000000000302,-4.538984112278308558
0.466000000000000303,-4.512844360334336002
0.467000000000000304,-4.487172035587400742
0.468000000000000305,-4.461956188611454266
0.469000000000000306,-4.437186016912788133
0.470000000000000306,-4.412850866397325156
0.471000000000000307,-4.388940232671499686
0.472000000000000308,-4.365443762182952270
0.473000000000000309,-4.342351253206939710
0.474000000000000310,-4.319652656684331404
0.475000000000000311,-4.297338076916931371
0.476000000000000312,-4.275397772125705487
0.477000000000000313,-4.253822154877328288
0.478000000000000314,-4.232601792384377504
0.479000000000000314,-4.211727406684447672
0.480000000000000315,-4.191189874703079354
0.481000000000000316,-4.170980228205623419
0.482000000000000317,-4.151089653642664246
0.483000000000000318,-4.131509491893817554
0.484000000000000319,-4.112231237914356186
0.485000000000000320,-4.093246540289177560
0.486000000000000321,-4.074547200698334315
0.487000000000000322,-4.056125173298394948
0.488000000000000322,-4.037972564023625921
0.489000000000000323,-4.020081629811021351
0.490000000000000324,-4.002444777752963034
0.491000000000000325,-3.985054564181281567
0.492000000000000326,-3.967903693686266386
0.493000000000000327,-3.950985018074202770
0.494000000000000328,-3.934291535266787321
0.495000000000000329,-3.917816388145726414
0.496000000000000330,-3.901552863345703059
0.497000000000000330,-3.885494389998812359
0.498000000000000331,-3.869634538433419202
0.499000000000000332,-3.853967018830367408
0.500000000000000333,-3.838485679839325648
0.501000000000000334,-3.823184507157940892
0.502000000000000335,-3.808057622076434168
0.503000000000000336,-3.793099279990178818
0.504000000000000337,-3.778303868882644245
0.505000000000000338,-3.763665907781089892
0.506000000000000338,-3.749180045187256560
0.507000000000000339,-3.734841057485235982
0.508000000000000340,-3.720643847328628517
0.509000000000000341,-3.706583442009019791
0.510000000000000342,-3.692654991807693854
0.511000000000000343,-3.678853768332485341
0.512000000000000344,-3.665175162841561196
0.513000000000000345,-3.651614684555852364
0.514000000000000346,-3.638167958961859405
0.515000000000000346,-3.624830726106309076
0.516000000000000347,-3.611598838884303664
0.517000000000000348,-3.598468261322408601
0.518000000000000349,-3.585435066858025266
0.519000000000000350,-3.572495436616454523
0.520000000000000351,-3.559645657686938414
0.521000000000000352,-3.546882121398879040
0.522000000000000353,-3.534201321599437229
0.523000000000000353,-3.521599852933610553
0.524000000000000354,-3.509074409127914684
0.525000000000000355,-3.496621781278622443
0.526000000000000356,-3.484238856145574825
0.527000000000000357,-3.471922614452497502
0.528000000000000358,-3.459670129194669208
0.529000000000000359,-3.447478563954814668
0.530000000000000360,-3.435345171227974337
0.531000000000000361,-3.423267290756154324
0.532000000000000361,-3.411242347873415959
0.533000000000000362,-3.399267851862119549
0.534000000000000363,-3.387341394320920962
0.535000000000000364,-3.375460647545154735
0.536000000000000365,-3.363623362920132642
0.537000000000000366,-3.351827369327923911
0.538000000000000367,-3.340070571568052316
0.539000000000000368,-3.328350948792677677
0.540000000000000369,-3.316666552956559322
0.541000000000000369,-3.305015507282338838
0.542000000000000370,-3.293396004741428129
0.543000000000000371,-3.281806306550872243
0.544000000000000372,-3.270244740686545359
0.545000000000000373,-3.258709700412922849
0.546000000000000374,-3.247199642829729616
0.547000000000000375,-3.235713087435704072
0.548000000000000376,-3.224248614709725125
0.549000000000000377,-3.212804864709474462
0.550000000000000377,-3.201380535687806450
0.551000000000000378,-3.189974382727050362
0.552000000000000379,-3.178585216391314194
0.553000000000000380,-3.167211901396965512
0.554000000000000381,-3.155853355301351026
0.555000000000000382,-3.144508547209915239
0.556000000000000383,-3.133176496501674180
0.557000000000000384,-3.121856271573244079
0.558000000000000385,-3.110546988601333940
0.559000000000000385,-3.099247810323836116
0.560000000000000386,-3.087957944839431867
0.561000000000000387,-3.076676644425810458
0.562000000000000388,-3.065403204376399682
0.563000000000000389,-3.054136961855655752
0.564000000000000390,-3.042877294772818875
0.565000000000000391,-3.031623620674138486
0.566000000000000392,-3.020375395653469575
0.567000000000000393,-3.009132113281208554
0.568000000000000393,-2.997893303551458111
0.569000000000000394,-2.986658531847365516
0.570000000000000395,-2.975427397924540251
0.571000000000000396,-2.964199534912411060
0.572000000000000397,-2.952974608333475803
0.573000000000000398,-2.941752315140270913
0.574000000000000399,-2.930532382769984068
0.575000000000000400,-2.919314568216534234
0.576000000000000401,-2.908098657120033792
0.577000000000000401,-2.896884462873464905
0.578000000000000402,-2.885671825746416452
0.579000000000000403,-2.874460612025754536
0.580000000000000404,-2.863250713173067119
0.581000000000000405,-2.852042044998706505
0.582000000000000406,-2.840834546852286202
0.583000000000000407,-2.829628180829446560
0.584000000000000408,-2.818422930994750164
0.585000000000000409,-2.807218802620494280
0.586000000000000409,-2.796015821441289795
0.587000000000000410,-2.784814032924237015
0.588000000000000411,-2.773613501554470950
0.589000000000000412,-2.762414310135970830
0.590000000000000413,-2.751216559107352744
0.591000000000000414,-2.740020365872537944
0.592000000000000415,-2.728825864146090296
0.593000000000000416,-2.717633203312984858
0.594000000000000417,-2.706442547802682785
0.595000000000000417,-2.695254076477303862
0.596000000000000418,-2.684067982033643496
0.597000000000000419,-2.672884470418957825
0.598000000000000420,-2.661703760260199836
0.599000000000000421,-2.650526082306599918
0.600000000000000422,-2.639351678885361707
0.601000000000000423,-2.628180803370280927
0.602000000000000424,-2.617013719663093152
0.603000000000000425,-2.605850701687375981
0.604000000000000425,-2.594692032894778677
0.605000000000000426,-2.583538005783409641
0.606000000000000427,-2.572388921428212960
0.607000000000000428,-2.561245089023045374
0.608000000000000429,-2.550106825434428792
0.609000000000000430,-2.538974454766587563
0.610000000000000431,-2.527848307937776262
