# C-amorph-1_CS-6135-AC
# h[nm],U(h)[kJ/mol]
0.200000000000000011,45.748260988306064689
0.201000000000000012,44.341924658638866674
0.202000000000000013,43.178882713805691651
0.203000000000000014,42.152550643684755016
0.204000000000000015,41.193020506644060674
0.205000000000000016,40.257232192618275235
0.206000000000000016,39.321184588459630049
0.207000000000000017,38.373896225752169187
0.208000000000000018,37.412829503233858475
0.209000000000000019,36.440512459073161722
0.210000000000000020,35.462120122956804380
0.211000000000000021,34.483808885347563944
0.212000000000000022,33.511628966386844297
0.213000000000000023,32.550870038321797040
0.214000000000000024,31.605722277676100873
0.215000000000000024,30.679159089640222646
0.216000000000000025,29.772968325436920622
0.217000000000000026,28.887876109174658978
0.218000000000000027,28.023721649833856162
0.219000000000000028,27.179652956073812931
0.220000000000000029,26.354322544634989356
0.221000000000000030,25.546069384708282257
0.222000000000000031,24.753078779430786938
0.223000000000000032,23.973515951265845558
0.224000000000000032,23.205632036070007018
0.225000000000000033,22.447843231459707170
0.226000000000000034,21.698785184621755207
0.227000000000000035,20.957345506912695043
0.228000000000000036,20.222677702485235329
0.229000000000000037,19.494199905298749798
0.230000000000000038,18.771581720693301776
0.231000000000000039,18.054722232968032358
0.232000000000000040,17.343721922141703828
0.233000000000000040,16.638850871359181838
0.234000000000000041,15.940515270763702560
0.235000000000000042,15.249223855126231797
0.236000000000000043,14.565555565449574971
0.237000000000000044,13.890129408267554822
0.238000000000000045,13.223577205566641624
0.239000000000000046,12.566519685320017174
0.240000000000000047,11.919546157515549467
0.241000000000000048,11.283197851742837514
0.242000000000000048,10.657954857322991415
0.243000000000000049,10.044226502449379979
0.244000000000000050,9.442344931376069894
0.245000000000000051,8.852561584755019197
0.246000000000000052,8.275046254277862445
0.247000000000000053,7.709888365477641337
0.248000000000000054,7.157100138806709921
0.249000000000000055,6.616621286131428192
0.250000000000000056,6.088324915087889977
0.251000000000000056,5.572024335158478614
0.252000000000000057,5.067480484995340539
0.253000000000000058,4.574409728865629354
0.254000000000000059,4.092491799822467691
0.255000000000000060,3.621377697261122020
0.256000000000000061,3.160697376062322483
0.257000000000000062,2.710067092908465813
0.258000000000000063,2.269096302102647567
0.259000000000000064,1.837394017986468508
0.260000000000000064,1.414574583620286985
0.261000000000000065,1.000262805638825414
0.262000000000000066,0.594098433082968391
0.263000000000000067,0.195739973560828784
0.264000000000000068,-0.195132146621532332
0.265000000000000069,-0.578813060586171213
0.266000000000000070,-0.955571550375127310
0.267000000000000071,-1.325648713662064271
0.268000000000000071,-1.689257167976293772
0.269000000000000072,-2.046580748694651231
0.270000000000000073,-2.397774654371063185
0.271000000000000074,-2.742965991471919995
0.272000000000000075,-3.082254670106704175
0.273000000000000076,-3.415714602733546545
0.274000000000000077,-3.743395158937252720
0.275000000000000078,-4.065322831090133704
0.276000000000000079,-4.381503067893538272
0.277000000000000079,-4.691922235353520598
0.278000000000000080,-4.996549667567887987
0.279000000000000081,-5.295339772712585713
0.280000000000000082,-5.588234162734702082
0.281000000000000083,-5.875163778426292893
0.282000000000000084,-6.156050984710890184
0.283000000000000085,-6.430811614078484340
0.284000000000000086,-6.699356939117633303
0.285000000000000087,-6.961595557983041083
0.286000000000000087,-7.217435179382322374
0.287000000000000088,-7.466784296246878228
0.288000000000000089,-7.709553739656837656
0.289000000000000090,-7.945658106811433363
0.290000000000000091,-8.175017058867595665
0.291000000000000092,-8.397556486312975466
0.292000000000000093,-8.613209541193580066
0.293000000000000094,-8.821917536987225361
0.294000000000000095,-9.023630718206584689
0.295000000000000095,-9.218308902938206373
0.296000000000000096,-9.405922002483816158
0.297000000000000097,-9.586450423078369809
0.298000000000000098,-9.759885355324268374
0.299000000000000099,-9.926228957514718232
0.300000000000000100,-10.085494439430233271
0.301000000000000101,-10.237706053493473846
0.302000000000000102,-10.382899000366606401
0.303000000000000103,-10.521119256185691881
0.304000000000000103,-10.652423328654558432
0.305000000000000104,-10.776877949178487626
0.306000000000000105,-10.894559708113341401
0.307000000000000106,-11.005554640046813830
0.308000000000000107,-11.109957765824429288
0.309000000000000108,-11.207872597789462432
0.310000000000000109,-11.299410614431836919
0.311000000000000110,-11.384690710340077402
0.312000000000000111,-11.463838627031549322
0.313000000000000111,-11.536986369901081062
0.314000000000000112,-11.604271616184316684
0.315000000000000113,-11.665837118482279777
0.316000000000000114,-11.721830108041833896
0.317000000000000115,-11.772401701636518112
0.318000000000000116,-11.817706315545910556
0.319000000000000117,-11.857901089792452609
0.320000000000000118,-11.893145325463638784
0.321000000000000119,-11.923599937627846757
0.322000000000000119,-11.949426926043461350
0.323000000000000120,-11.970788865566369452
0.324000000000000121,-11.987848417879986229
0.325000000000000122,-12.000767865906004417
0.326000000000000123,-12.009708672003331031
0.327000000000000124,-12.014831060827541265
0.328000000000000125,-12.016293627503999986
0.329000000000000126,-12.014252971563852412
0.330000000000000127,-12.008863356904274866
0.331000000000000127,-12.000276397861513900
0.332000000000000128,-11.988640771327556678
0.333000000000000129,-11.974101954698245009
0.334000000000000130,-11.956801989311390599
0.335000000000000131,-11.936879268918378472
0.336000000000000132,-11.914468352629901560
0.337000000000000133,-11.889699801686742120
0.338000000000000134,-11.862700039328103685
0.339000000000000135,-11.833591232962747952
0.340000000000000135,-11.802491197791677990
0.341000000000000136,-11.769513320983969962
0.342000000000000137,-11.734766505469703901
0.343000000000000138,-11.698355132384650190
0.344000000000000139,-11.660379041179810500
0.345000000000000140,-11.620933526394948032
0.346000000000000141,-11.580109350087406384
0.347000000000000142,-11.537992768906121910
0.348000000000000143,-11.494665574804736607
0.349000000000000143,-11.450205148396452870
0.350000000000000144,-11.404684523966770016
0.351000000000000145,-11.358172465177336363
0.352000000000000146,-11.310733550515070789
0.353000000000000147,-11.262428267564299489
0.354000000000000148,-11.213313115206229753
0.355000000000000149,-11.163440712878593075
0.356000000000000150,-11.112859916058946297
0.357000000000000151,-11.061615937167113444
0.358000000000000151,-11.009750471115683723
0.359000000000000152,-10.957301824771544574
0.360000000000000153,-10.904305049626774604
0.361000000000000154,-10.850792077012247461
0.362000000000000155,-10.796791855223226264
0.363000000000000156,-10.742330487961849528
0.364000000000000157,-10.687431373536810497
0.365000000000000158,-10.632115344296048320
0.366000000000000159,-10.576400805802808947
0.367000000000000159,-10.520303875299651608
0.368000000000000160,-10.463838519038706210
0.369000000000000161,-10.407016688088889467
0.370000000000000162,-10.349848452262822462
0.371000000000000163,-10.292342131837113328
0.372000000000000164,-10.234504426769337471
0.373000000000000165,-10.176340543144094752
0.374000000000000166,-10.117854316608180909
0.375000000000000167,-10.059048332581376428
0.376000000000000167,-9.999924043055040457
0.377000000000000168,-9.940481879814763388
0.378000000000000169,-9.880721363946520341
0.379000000000000170,-9.820641211507822987
0.380000000000000171,-9.760239435265816610
0.381000000000000172,-9.699513442424299470
0.382000000000000173,-9.638460128279630723
0.383000000000000174,-9.577075965763297560
0.384000000000000175,-9.515357090844712928
0.385000000000000175,-9.453299383783221543
0.386000000000000176,-9.390898546232293143
0.387000000000000177,-9.328150174211859991
0.388000000000000178,-9.265049826977042713
0.389000000000000179,-9.201593091822221737
0.390000000000000180,-9.137775644870069769
0.391000000000000181,-9.073593307903973226
0.392000000000000182,-9.009042101311006689
0.393000000000000183,-8.944118293210099324
0.394000000000000183,-8.878818444846766411
0.395000000000000184,-8.813139452342074520
0.396000000000000185,-8.747078584888544839
0.397000000000000186,-8.680633519490672967
0.398000000000000187,-8.613802372351560876
0.399000000000000188,-8.546583727010673925
0.400000000000000189,-8.478976659340606403
0.401000000000000190,-8.410980759512952432
0.402000000000000191,-8.342596151045412967
0.403000000000000191,-8.273823507043269743
0.404000000000000192,-8.204664063749664393
0.405000000000000193,-8.135119631519227568
0.406000000000000194,-8.065192603329970567
0.407000000000000195,-7.994885960948098891
0.408000000000000196,-7.924203278859612176
0.409000000000000197,-7.853148726081968789
0.410000000000000198,-7.781727065967851686
0.411000000000000199,-7.709943654111532041
0.412000000000000199,-7.637804434466998416
0.413000000000000200,-7.565315933784948932
0.414000000000000201,-7.492485254473902678
0.415000000000000202,-7.419320065988347146
0.416000000000000203,-7.345828594844794779
0.417000000000000204,-7.272019613363836399
0.418000000000000205,-7.197902427234002865
0.419000000000000206,-7.123486861990548036
0.420000000000000207,-7.048783248499290721
0.421000000000000207,-6.973802407533350234
0.422000000000000208,-6.898555633527140962
0.423000000000000209,-6.823054677589728279
0.424000000000000210,-6.747311729856233065
0.425000000000000211,-6.671339401253288948
0.426000000000000212,-6.595150704751615578
0.427000000000000213,-6.518759036175626242
0.428000000000000214,-6.442178154637336895
0.429000000000000214,-6.365422162658638250
0.430000000000000215,-6.288505486043244552
0.431000000000000216,-6.211442853556858879
0.432000000000000217,-6.134249276470908008
0.433000000000000218,-6.056940028022832045
0.434000000000000219,-5.979530622842825771
0.435000000000000220,-5.902036796394479978
0.436000000000000221,-5.824474484473874725
0.437000000000000222,-5.746859802809288098
0.438000000000000222,-5.669209026801093287
0.439000000000000223,-5.591538571438863237
0.440000000000000224,-5.513864971430448847
0.441000000000000225,-5.436204861575222758
0.442000000000000226,-5.358574957411780915
0.443000000000000227,-5.280992036167741155
0.444000000000000228,-5.203472918037505224
0.445000000000000229,-5.126034447811623984
0.446000000000000230,-5.048693476879380526
0.447000000000000230,-4.971466845624442854
0.448000000000000231,-4.894371366231426101
0.449000000000000232,-4.817423805919442970
0.450000000000000233,-4.740640870617204961
0.451000000000000234,-4.664039189092244797
0.452000000000000235,-4.587635297545677560
0.453000000000000236,-4.511445624681986288
0.454000000000000237,-4.435486477262307048
0.455000000000000238,-4.359774026147928083
0.456000000000000238,-4.284324292839746917
0.457000000000000239,-4.209153136517916671
0.458000000000000240,-4.134276241585003397
0.459000000000000241,-4.059709105714527588
0.460000000000000242,-3.985467028406132872
0.461000000000000243,-3.911565100047173615
0.462000000000000244,-3.838018191480004226
0.463000000000000245,-3.764840944072934015
0.464000000000000246,-3.692047760292436642
0.465000000000000246,-3.619652794773042359
0.466000000000000247,-3.547669945880841169
0.467000000000000248,-3.476112847765696845
0.468000000000000249,-3.404994862896862262
0.469000000000000250,-3.334329075075777471
0.470000000000000251,-3.264128282919642743
0.471000000000000252,-3.194404993808513282
0.472000000000000253,-3.125171418288554381
0.473000000000000254,-3.056439464923375926
0.474000000000000254,-2.988220735585159993
0.475000000000000255,-2.920526521176903145
0.476000000000000256,-2.853367797776748649
0.477000000000000257,-2.786755223195235942
0.478000000000000258,-2.720699133935803982
0.479000000000000259,-2.655209542548986335
0.480000000000000260,-2.590296135370288244
0.481000000000000261,-2.525968270631667512
0.482000000000000262,-2.462234976936511277
0.483000000000000262,-2.399104952087712128
0.484000000000000263,-2.336586562258484712
0.485000000000000264,-2.274687841495484086
0.486000000000000265,-2.213416491543716447
0.487000000000000266,-2.152779881982739063
0.488000000000000267,-2.092785050663608537
0.489000000000000268,-2.033438704436163036
0.490000000000000269,-1.974747220156037431
0.491000000000000270,-1.916716645961161536
0.492000000000000270,-1.859352702807215652
0.493000000000000271,-1.802660786251927716
0.494000000000000272,-1.746645968477926969
0.495000000000000273,-1.691313000544051537
0.496000000000000274,-1.636666314855267812
0.497000000000000275,-1.582710027841184974
0.498000000000000276,-1.529447942833551011
0.499000000000000277,-1.476883553133146121
0.500000000000000222,-1.425020045256557788
0.501000000000000334,-1.373860302353664853
0.502000000000000224,-1.323406907786686570
0.503000000000000336,-1.273662148861737897
0.504000000000000226,-1.224628020704343623
0.505000000000000338,-1.176306230270000031
0.506000000000000227,-1.128698200481740077
0.507000000000000339,-1.081805074486059004
0.508000000000000229,-1.035627720019531406
0.509000000000000341,-0.990166733877926197
0.510000000000000231,-0.945422446480501000
0.511000000000000343,-0.901394926521620454
0.512000000000000233,-0.858083985702787766
0.513000000000000345,-0.815489183537676632
0.514000000000000234,-0.773609832223629446
0.515000000000000346,-0.732445001572526677
0.516000000000000236,-0.691993523994940962
0.517000000000000348,-0.652253999530944206
0.518000000000000238,-0.613224800921720492
0.519000000000000350,-0.574904078715852918
0.520000000000000240,-0.537289766404787650
0.521000000000000352,-0.500379585581760322
0.522000000000000242,-0.464171051119004363
0.523000000000000353,-0.428661476357954818
0.524000000000000243,-0.393847978307634905
0.525000000000000355,-0.359727482846288971
0.526000000000000245,-0.326296729921850548
0.527000000000000357,-0.293552278746608497
0.528000000000000247,-0.261490512982084533
0.529000000000000359,-0.230107645909794878
0.530000000000000249,-0.199399725584231330
0.531000000000000361,-0.169362639964139028
0.532000000000000250,-0.139992122018716525
0.533000000000000362,-0.111283754805119942
0.534000000000000252,-0.083232976514248866
0.535000000000000364,-0.055835085481533805
0.536000000000000254,-0.029085245159949202
0.537000000000000366,-0.002978489052293043
0.538000000000000256,0.022490274399708732
0.539000000000000368,0.047326256972204897
0.540000000000000258,0.071534785864044340
0.541000000000000369,0.095121298952115491
0.542000000000000259,0.118091340099036740
0.543000000000000371,0.140450554515397091
0.544000000000000261,0.162204684178213709
0.545000000000000373,0.183359563307458340
0.546000000000000263,0.203921113902149731
0.547000000000000375,0.223895341337629894
0.548000000000000265,0.243288330025239224
0.549000000000000377,0.262106239135838137
0.550000000000000266,0.280355298388206942
0.551000000000000378,0.298041803903460023
0.552000000000000268,0.315172114126410163
0.553000000000000380,0.331752645814800462
0.554000000000000270,0.347789870097099052
0.555000000000000382,0.363290308599667822
0.556000000000000272,0.378260529643781429
0.557000000000000384,0.392707144513157247
0.558000000000000274,0.406636803792298107
0.559000000000000385,0.420056193776158604
0.560000000000000275,0.432972032951303654
0.561000000000000387,0.445391068548871172
0.562000000000000277,0.457320073169454333
0.563000000000000389,0.468765841480004664
0.564000000000000279,0.479735186982765960
0.565000000000000391,0.490234938856231650
0.566000000000000281,0.500271938868024124
0.567000000000000393,0.509853038359549204
0.568000000000000282,0.518985095302202382
0.569000000000000394,0.527674971424945349
0.570000000000000284,0.535929529412875194
0.571000000000000396,0.543755630176506966
0.572000000000000286,0.551160130191325370
0.573000000000000398,0.558149878907253649
0.574000000000000288,0.564731716227505620
0.575000000000000400,0.570912470056324173
0.576000000000000290,0.576698953915128931
0.577000000000000401,0.582097964626415054
0.578000000000000291,0.587116280064852059
0.579000000000000403,0.591760656974956056
0.580000000000000293,0.596037828854630858
0.581000000000000405,0.599954503903924463
0.582000000000000295,0.603517363038286181
0.583000000000000407,0.606733057965577638
0.584000000000000297,0.609608209326096162
0.585000000000000409,0.612149404894811400
0.586000000000000298,0.614363197845069875
0.587000000000000410,0.616256105072887084
0.588000000000000300,0.617834605581070617
0.589000000000000412,0.619105138922289244
0.590000000000000302,0.620074103700267942
0.591000000000000414,0.620747856128186726
0.592000000000000304,0.621132708643506115
0.593000000000000416,0.621234928578234591
0.594000000000000306,0.621060736883806808
0.595000000000000417,0.620616306909647863
0.596000000000000307,0.619907763234557208
0.597000000000000419,0.618941180549934078
0.598000000000000309,0.617722582593980052
0.599000000000000421,0.616257941135976872
0.600000000000000311,0.614553175009657671
0.601000000000000423,0.612614149194805502
0.602000000000000313,0.610446673946124174
0.603000000000000425,0.608056503968499640
0.604000000000000314,0.605449337637666396
0.605000000000000426,0.602630816265426361
0.606000000000000316,0.599606523408455216
0.607000000000000428,0.596381984219814920
0.608000000000000318,0.592962664842232812
0.609000000000000430,0.589353971842245472
0.610000000000000320,0.585561251684344586
0.611000000000000432,0.581589790244137372
0.612000000000000322,0.577444812359747539
0.613000000000000433,0.573131481420458777
0.614000000000000323,0.568654898991795887
0.615000000000000435,0.564020104476124495
0.616000000000000325,0.559232074807946566
0.617000000000000437,0.554295724182980676
0.618000000000000327,0.549215903820227780
0.619000000000000439,0.543997401756141197
0.620000000000000329,0.538644942670092441
0.621000000000000441,0.533163187740286260
0.622000000000000330,0.527556734529332827
0.623000000000000442,0.521830116898639895
0.624000000000000332,0.515987804950875151
0.625000000000000444,0.510034204999636032
0.626000000000000334,0.503973659565650989
0.627000000000000446,0.497810447398630340
0.628000000000000336,0.491548783524115962
0.629000000000000448,0.485192819314504642
0.630000000000000338,0.478746642583560145
0.631000000000000449,0.472214277703643659
0.632000000000000339,0.465599685745000880
0.633000000000000451,0.458906764636344000
0.634000000000000341,0.452139349346097674
0.635000000000000453,0.445301212083545117
0.636000000000000343,0.438396062519324503
0.637000000000000455,0.431427548024457153
0.638000000000000345,0.424399253927425946
0.639000000000000457,0.417314703788525088
0.640000000000000346,0.410177359690963805
0.641000000000000458,0.402990622548009270
0.642000000000000348,0.395757832425677081
0.643000000000000460,0.388482268880255832
0.644000000000000350,0.381167151310193741
0.645000000000000462,0.373815639321679272
0.646000000000000352,0.366430833107456722
0.647000000000000464,0.359015773838217367
0.648000000000000353,0.351573444066145546
0.649000000000000465,0.344106768139970709
0.650000000000000355,0.336618612631134684
0.651000000000000467,0.329111786770453663
0.652000000000000357,0.321589042894873278
0.653000000000000469,0.314053076903760275
0.654000000000000359,0.306506528724316218
0.655000000000000471,0.298951982785608750
0.656000000000000361,0.291391968500796739
0.657000000000000473,0.283828960757070647
0.658000000000000362,0.276265380412926531
0.659000000000000474,0.268703594802308932
0.660000000000000364,0.261145918245234421
0.661000000000000476,0.253594612564463084
0.662000000000000366,0.246051887607891512
0.663000000000000478,0.238519901776186233
0.664000000000000368,0.231000762555394618
