# C-amorph-1_CS-9357-AC
# h[nm],U(h)[kJ/mol]
0.149999999999999994,101.827270906785514626
0.150999999999999995,98.411926219057846765
0.151999999999999996,96.136889175246636796
0.152999999999999997,94.165084084143202858
0.153999999999999998,92.174260385668432605
0.154999999999999999,90.089876179540652856
0.156000000000000000,87.938824914853938708
0.157000000000000001,85.774983278029736766
0.158000000000000002,83.645800176576329932
0.159000000000000002,81.581047786052010906
0.160000000000000003,79.592504714297319879
0.161000000000000004,77.678167538714859575
0.162000000000000005,75.827561296664541146
0.163000000000000006,74.026496418500457253
0.164000000000000007,72.260636034302862640
0.165000000000000008,70.517782001182979457
0.166000000000000009,68.789048201816029859
0.167000000000000010,67.069185884159210786
0.168000000000000010,65.356333357769727854
0.169000000000000011,63.651427072152500841
0.170000000000000012,61.957459780376645142
0.171000000000000013,60.278718889849109530
0.172000000000000014,58.620091544744852285
0.173000000000000015,56.986485376722477270
0.174000000000000016,55.382385619001617272
0.175000000000000017,53.811549537813981203
0.176000000000000018,52.276826476641623742
0.177000000000000018,50.780084684640968362
0.178000000000000019,49.322223060300359521
0.179000000000000020,47.903245736919203068
0.180000000000000021,46.522379057942380598
0.181000000000000022,45.178213159862103510
0.182000000000000023,43.868853527359718214
0.183000000000000024,42.592071111552954221
0.184000000000000025,41.345442647594417451
0.185000000000000026,40.126475518072552973
0.186000000000000026,38.932713807085136182
0.187000000000000027,37.761824054600154454
0.188000000000000028,36.611660666359028937
0.189000000000000029,35.480311998166627063
0.190000000000000030,34.366128864128882014
0.191000000000000031,33.267737670186491528
0.192000000000000032,32.184040600835047030
0.193000000000000033,31.114205338435692028
0.194000000000000034,30.057646715901363166
0.195000000000000034,29.014002533466630496
0.196000000000000035,27.983105540970456104
0.197000000000000036,26.964953324662037204
0.198000000000000037,25.959677562363623338
0.199000000000000038,24.967513838252706648
0.200000000000000039,23.988772949619924901
0.201000000000000040,23.023814400190801166
0.202000000000000041,22.073022562538955782
0.203000000000000042,21.136785808040848167
0.204000000000000042,20.215478747248130986
0.205000000000000043,19.309447595718513213
0.206000000000000044,18.418998578572207236
0.207000000000000045,17.544389209065300861
0.208000000000000046,16.685822219685185530
0.209000000000000047,15.843441885919839152
0.210000000000000048,15.017332460172969633
0.211000000000000049,14.207518423636287253
0.212000000000000050,13.413966264801738149
0.213000000000000050,12.636587502446458231
0.214000000000000051,11.875242686329388064
0.215000000000000052,11.129746128747049383
0.216000000000000053,10.399871142998145856
0.217000000000000054,9.685355589438490398
0.218000000000000055,8.985907555131321445
0.219000000000000056,8.301211018281540177
0.220000000000000057,7.630931373032010079
0.221000000000000058,6.974720713315484488
0.222000000000000058,6.332222795936919724
0.223000000000000059,5.703077622686151926
0.224000000000000060,5.086925598908568880
0.225000000000000061,4.483411241540901315
0.226000000000000062,3.892186423159414321
0.227000000000000063,3.312913150147190233
0.228000000000000064,2.745265882763625598
0.229000000000000065,2.188933412813524715
0.230000000000000066,1.643620320910020194
0.231000000000000066,1.109048040152362802
0.232000000000000067,0.584955556556567835
0.233000000000000068,0.071099778937064956
0.234000000000000069,-0.432744387705179201
0.235000000000000070,-0.926784230733574965
0.236000000000000071,-1.411209646032733689
0.237000000000000072,-1.886193748255440950
0.238000000000000073,-2.351893642938740481
0.239000000000000073,-2.808451329936777263
0.240000000000000074,-3.255994709569978163
0.241000000000000075,-3.694638665038414871
0.242000000000000076,-4.124486196924975090
0.243000000000000077,-4.545629587958209150
0.244000000000000078,-4.958151578563456674
0.245000000000000079,-5.362126536062172377
0.246000000000000080,-5.757621602646665337
0.247000000000000081,-6.144697809435399449
0.248000000000000081,-6.523411145977651593
0.249000000000000082,-6.893813576512252794
0.250000000000000111,-7.255953996081748514
0.251000000000000112,-7.609879121252143719
0.252000000000000113,-7.955634311689633087
0.253000000000000114,-8.293264320193284078
0.254000000000000115,-8.622813969986159677
0.255000000000000115,-8.944328759123552075
0.256000000000000116,-9.257855392797228689
0.257000000000000117,-9.563442245102987016
0.258000000000000118,-9.861139752503046196
0.259000000000000119,-10.151000741765509261
0.260000000000000120,-10.433080695607221955
0.261000000000000121,-10.707437959612800427
0.262000000000000122,-10.974133894262372735
0.263000000000000123,-11.233232976079976950
0.264000000000000123,-11.484802852024390774
0.265000000000000124,-11.728914351291370721
0.266000000000000125,-11.965641458689525223
0.267000000000000126,-12.195061253698154857
0.268000000000000127,-12.417253819222377587
0.269000000000000128,-12.632302123933621729
0.270000000000000129,-12.840291881929493556
0.271000000000000130,-13.041311393271248775
0.272000000000000131,-13.235451368763403224
0.273000000000000131,-13.422804742134804457
0.274000000000000132,-13.603466472565560963
0.275000000000000133,-13.777533340285234686
0.276000000000000134,-13.945103737745853323
0.277000000000000135,-14.106277458652062506
0.278000000000000136,-14.261155486913100532
0.279000000000000137,-14.409839787367658914
0.280000000000000138,-14.552433099925716320
0.281000000000000139,-14.689038738572563147
0.282000000000000139,-14.819760396489822796
0.283000000000000140,-14.944701958367446082
0.284000000000000141,-15.063967320810533579
0.285000000000000142,-15.177660221584767797
0.286000000000000143,-15.285884078295771005
0.287000000000000144,-15.388741836959303200
0.288000000000000145,-15.486335830793290569
0.289000000000000146,-15.578767649445747878
0.290000000000000147,-15.666138018768265283
0.291000000000000147,-15.748546691149039489
0.292000000000000148,-15.826092346335343564
0.293000000000000149,-15.898872502599157741
0.294000000000000150,-15.966983438034120013
0.295000000000000151,-16.030520121714150861
0.296000000000000152,-16.089576154394801932
0.297000000000000153,-16.144243718396730003
0.298000000000000154,-16.194613536275966226
0.299000000000000155,-16.240774837857937740
0.300000000000000155,-16.282815335190200301
0.301000000000000156,-16.320821204952448369
0.302000000000000157,-16.354877077851668332
0.303000000000000158,-16.385066034523244838
0.304000000000000159,-16.411469607457110698
0.305000000000000160,-16.434167788468705851
0.306000000000000161,-16.453239041240031781
0.307000000000000162,-16.468760318463157688
0.308000000000000163,-16.480807083129025870
0.309000000000000163,-16.489453333516692624
0.310000000000000164,-16.494771631452650240
0.311000000000000165,-16.496833133425308660
0.312000000000000166,-16.495707624157521565
0.313000000000000167,-16.491463552257616954
0.314000000000000168,-16.484168067588775841
0.315000000000000169,-16.473887060016071615
0.316000000000000170,-16.460685199210466578
0.317000000000000171,-16.444625975209302027
0.318000000000000171,-16.425771739452862619
0.319000000000000172,-16.404183746037158897
0.320000000000000173,-16.379922192942451886
0.321000000000000174,-16.353046263017223083
0.322000000000000175,-16.323614164516079938
0.323000000000000176,-16.291683171008983777
0.324000000000000177,-16.257309660497398340
0.325000000000000178,-16.220549153590035019
0.326000000000000179,-16.181456350608378614
0.327000000000000179,-16.140085167507674413
0.328000000000000180,-16.096488770514657318
0.329000000000000181,-16.050719609398118592
0.330000000000000182,-16.002829449301721354
0.331000000000000183,-15.952869401082153900
0.332000000000000184,-15.900889950107245596
0.333000000000000185,-15.846940983480845233
0.334000000000000186,-15.791071815671367418
0.335000000000000187,-15.733331212531044940
0.336000000000000187,-15.673767413702345053
0.337000000000000188,-15.612428153415772059
0.338000000000000189,-15.549360679691762499
0.339000000000000190,-15.484611771965873572
0.340000000000000191,-15.418227757162885183
0.341000000000000192,-15.350254524251521815
0.342000000000000193,-15.280737537316024799
0.343000000000000194,-15.209721847185878829
0.344000000000000195,-15.137252101668483562
0.345000000000000195,-15.063372554433456685
0.346000000000000196,-14.988127072599700895
0.347000000000000197,-14.911559143079267997
0.348000000000000198,-14.833711877733781748
0.349000000000000199,-14.754628017400879259
0.350000000000000200,-14.674349934849470145
0.351000000000000201,-14.592919636723234333
0.352000000000000202,-14.510378764532481100
0.353000000000000203,-14.426768594754738828
0.354000000000000203,-14.342130038104230039
0.355000000000000204,-14.256503638030210368
0.356000000000000205,-14.169929568503457418
0.357000000000000206,-14.082447631149747735
0.358000000000000207,-13.994097251787602332
0.359000000000000208,-13.904917476427138823
0.360000000000000209,-13.814946966785097260
0.361000000000000210,-13.724223995369914775
0.362000000000000210,-13.632786440189059718
0.363000000000000211,-13.540671779129265673
0.364000000000000212,-13.447917084058721215
0.365000000000000213,-13.354559014698015318
0.366000000000000214,-13.260633812305446355
0.367000000000000215,-13.166177293219718081
0.368000000000000216,-13.071224842301663926
0.369000000000000217,-12.975811406314255336
0.370000000000000218,-12.879971487278513820
0.371000000000000218,-12.783739135840642476
0.372000000000000219,-12.687147944683909273
0.373000000000000220,-12.590231042016881702
0.374000000000000221,-12.493021085167432815
0.375000000000000222,-12.395550254310149896
0.376000000000000223,-12.297850246352929560
0.377000000000000224,-12.199952269006544725
0.378000000000000225,-12.101887035059167630
0.379000000000000226,-12.003684756876005224
0.380000000000000226,-11.905375141142705786
0.381000000000000227,-11.806987383868975172
0.382000000000000228,-11.708550165667791276
0.383000000000000229,-11.610091647323624642
0.384000000000000230,-11.511639465661527737
0.385000000000000231,-11.413220729727788338
0.386000000000000232,-11.314862017291035912
0.387000000000000233,-11.216589371671583208
0.388000000000000234,-11.118428298905271845
0.389000000000000234,-11.020403765247145600
0.390000000000000235,-10.922540195018632048
0.391000000000000236,-10.824861468801255882
0.392000000000000237,-10.727390921978431138
0.393000000000000238,-10.630151343626197402
0.394000000000000239,-10.533164975752459469
0.395000000000000240,-10.436453512883739236
0.396000000000000241,-10.340038101997343745
0.397000000000000242,-10.243939342796068104
0.398000000000000242,-10.148177288322060008
0.399000000000000243,-10.052771445905438696
0.400000000000000244,-9.957740778442790486
0.401000000000000245,-9.863103706000194038
0.402000000000000246,-9.768878107734611405
0.403000000000000247,-9.675081324127106086
0.404000000000000248,-9.581730159521018919
0.405000000000000249,-9.488840884957626898
0.406000000000000250,-9.396429241301465396
0.407000000000000250,-9.304510442647329072
0.408000000000000251,-9.213099180000437372
0.409000000000000252,-9.122209625221149309
0.410000000000000253,-9.031855435225349282
0.411000000000000254,-8.942049756431391216
0.412000000000000255,-8.852805229444390633
0.413000000000000256,-8.764133993968508562
0.414000000000000257,-8.676047693937645633
0.415000000000000258,-8.588557482855176062
0.416000000000000258,-8.501674029332939142
0.417000000000000259,-8.415407522819993602
0.418000000000000260,-8.329767679511437706
0.419000000000000261,-8.244763748427679673
0.420000000000000262,-8.160404517654612278
0.421000000000000263,-8.076698320735172132
0.422000000000000264,-7.993653043202786357
0.423000000000000265,-7.911276129247350575
0.424000000000000266,-7.829574588504601529
0.425000000000000266,-7.748555002959537141
0.426000000000000267,-7.668223533955055515
0.427000000000000268,-7.588585929296844945
0.428000000000000269,-7.509647530445829666
0.429000000000000270,-7.431413279789657267
0.430000000000000271,-7.353887727984755429
0.431000000000000272,-7.277075041360854257
0.432000000000000273,-7.200979009379847362
0.433000000000000274,-7.125603052141292082
0.434000000000000274,-7.050950227926736424
0.435000000000000275,-6.977023240775631407
0.436000000000000276,-6.903824448085484455
0.437000000000000277,-6.831355868229225692
0.438000000000000278,-6.759619188183050298
0.439000000000000279,-6.688615771158137768
0.440000000000000280,-6.618346664229771470
0.441000000000000281,-6.548812605957794908
0.442000000000000282,-6.480014033992463673
0.443000000000000282,-6.411951092659845308
0.444000000000000283,-6.344623640521406926
0.445000000000000284,-6.278031257902382478
0.446000000000000285,-6.212173254383832166
0.447000000000000286,-6.147048676253652033
0.448000000000000287,-6.082656313911654067
0.449000000000000288,-6.018994709224505968
0.450000000000000289,-5.956062162826071926
0.451000000000000290,-5.893856741359253526
0.452000000000000290,-5.832376284655437004
0.453000000000000291,-5.771618412847868029
0.454000000000000292,-5.711580533415596683
0.455000000000000293,-5.652259848154621125
0.456000000000000294,-5.593653360073248315
0.457000000000000295,-5.535757880208751480
0.458000000000000296,-5.478570034362586938
0.459000000000000297,-5.422086269751700272
0.460000000000000298,-5.366302861573498895
0.461000000000000298,-5.311215919482328296
0.462000000000000299,-5.256821393975463330
0.463000000000000300,-5.203115082686617932
0.464000000000000301,-5.150092636585408279
0.465000000000000302,-5.097749566081128059
0.466000000000000303,-5.046081247029399641
0.467000000000000304,-4.995082926640450616
0.468000000000000305,-4.944749729287907236
0.469000000000000306,-4.895076662217012320
0.470000000000000306,-4.846058621151526857
0.471000000000000307,-4.797690395798358765
0.472000000000000308,-4.749966675249530645
0.473000000000000309,-4.702882053280742269
0.474000000000000310,-4.656431033546290621
0.475000000000000311,-4.610608034669902544
0.476000000000000312,-4.565407395231485310
0.477000000000000313,-4.520823378649444280
0.478000000000000314,-4.476850177958764831
0.479000000000000314,-4.433481920484894978
0.480000000000000315,-4.390712672413537021
0.481000000000000316,-4.348536443256742601
0.482000000000000317,-4.306947190215487886
0.483000000000000318,-4.265938822439315103
0.484000000000000319,-4.225505205183361923
0.485000000000000320,-4.185640163863525665
0.486000000000000321,-4.146337488010190420
0.487000000000000322,-4.107590935121348430
0.488000000000000322,-4.069394234415765865
0.489000000000000323,-4.031741090487089174
0.490000000000000324,-3.994625186859638966
0.491000000000000325,-3.958040189446884405
0.492000000000000326,-3.921979749913462765
0.493000000000000327,-3.886437508941819718
0.494000000000000328,-3.851407099404447365
0.495000000000000329,-3.816882149442796024
0.496000000000000330,-3.782856285453998879
0.497000000000000330,-3.749323134986516148
0.498000000000000331,-3.716276329545851631
0.499000000000000332,-3.683709507311616616
0.500000000000000333,-3.651616315767073129
0.501000000000000334,-3.619990414242452825
0.502000000000000335,-3.588825476373300738
0.503000000000000336,-3.558115192475161503
0.504000000000000337,-3.527853271835856397
0.505000000000000338,-3.498033444926717639
0.506000000000000338,-3.468649465534110909
0.507000000000000339,-3.439695112812532152
0.508000000000000340,-3.411164193260708632
0.509000000000000341,-3.383050542622029866
0.510000000000000342,-3.355348027710670866
0.511000000000000343,-3.328050548164782185
0.512000000000000344,-3.301152038128137178
0.513000000000000345,-3.274646467861599852
0.514000000000000346,-3.248527845285827276
0.515000000000000346,-3.222790217456521056
0.516000000000000347,-3.197427671973653851
0.517000000000000348,-3.172434338326087122
0.518000000000000349,-3.147804389172805806
0.519000000000000350,-3.123532041562312234
0.520000000000000351,-3.099611558091416530
0.521000000000000352,-3.076037248004834801
0.522000000000000353,-3.052803468236917173
0.523000000000000353,-3.029904624396828616
0.524000000000000354,-3.007335171698585885
0.525000000000000355,-2.985089615837150490
0.526000000000000356,-2.963162513811977039
0.527000000000000357,-2.941548474699300364
0.528000000000000358,-2.920242160374370677
0.529000000000000359,-2.899238286185031210
0.530000000000000360,-2.878531621577763655
0.531000000000000361,-2.858116990677558089
0.532000000000000361,-2.837989272822745601
0.533000000000000362,-2.818143403056082796
0.534000000000000363,-2.798574372573237490
0.535000000000000364,-2.779277229129873739
0.536000000000000365,-2.760247077408514826
0.537000000000000366,-2.741479079346338388
0.538000000000000367,-2.722968454424994800
0.539000000000000368,-2.704710479923667421
0.540000000000000369,-2.686700491136336133
0.541000000000000369,-2.668933881554488963
0.542000000000000370,-2.651406103016213489
0.543000000000000371,-2.634112665822792465
0.544000000000000372,-2.617049138823843712
0.545000000000000373,-2.600211149471973293
0.546000000000000374,-2.583594383847974463
0.547000000000000375,-2.567194586657546740
0.548000000000000376,-2.551007561200516527
0.549000000000000377,-2.535029169313471442
0.550000000000000377,-2.519255331286744060
0.551000000000000378,-2.503682025756694074
0.552000000000000379,-2.488305289574127777
0.553000000000000380,-2.473121217649777215
0.554000000000000381,-2.458125962777652163
0.555000000000000382,-2.443315735437161962
0.556000000000000383,-2.428686803574760411
0.557000000000000384,-2.414235492365984559
0.558000000000000385,-2.399958183958632585
0.559000000000000385,-2.385851317197884569
0.560000000000000386,-2.371911387334074028
0.561000000000000387,-2.358134945713906028
0.562000000000000388,-2.344518599455798213
0.563000000000000389,-2.331059011110069079
0.564000000000000390,-2.317752898304648479
0.565000000000000391,-2.304597033377002280
0.566000000000000392,-2.291588242992900426
0.567000000000000393,-2.278723407752694108
0.568000000000000393,-2.265999461785698887
0.569000000000000394,-2.253413392333313059
0.570000000000000395,-2.240962239321460991
0.571000000000000396,-2.228643094922916568
0.572000000000000397,-2.216453103110115563
0.573000000000000398,-2.204389459198944134
0.574000000000000399,-2.192449409384100711
0.575000000000000400,-2.180630250266491821
0.576000000000000401,-2.168929328373197407
0.577000000000000401,-2.157344039670518576
0.578000000000000402,-2.145871829070523429
0.579000000000000403,-2.134510189931602575
0.580000000000000404,-2.123256663553481971
0.581000000000000405,-2.112108838667104749
0.582000000000000406,-2.101064350919834123
0.583000000000000407,-2.090120882356361509
0.584000000000000408,-2.079276160895753733
0.585000000000000409,-2.068527959804987937
0.586000000000000409,-2.057874097169378302
0.587000000000000410,-2.047312435360254312
0.588000000000000411,-2.036840880500217388
0.589000000000000412,-2.026457381926364043
0.590000000000000413,-2.016159931651746451
0.591000000000000414,-2.005946563825437678
0.592000000000000415,-1.995815354191495361
0.593000000000000416,-1.985764419547100701
0.594000000000000417,-1.975791917200182990
0.595000000000000417,-1.965896044426829192
0.596000000000000418,-1.956075037928657778
0.597000000000000419,-1.946327173290547607
0.598000000000000420,-1.936650764438839989
0.599000000000000421,-1.927044163100341434
0.600000000000000422,-1.917505758262327387
0.601000000000000423,-1.908033975633757207
0.602000000000000424,-1.898627277107935329
0.603000000000000425,-1.889284160226816001
0.604000000000000425,-1.880003157647136103
0.605000000000000426,-1.870782836608582134
0.606000000000000427,-1.861621798404187178
0.607000000000000428,-1.852518677853041584
0.608000000000000429,-1.843472142775657741
0.609000000000000430,-1.834480893471922780
0.610000000000000431,-1.825543662202013806
