# C-amorph-1_CS-12814-AC
# h[nm],U(h)[kJ/mol]
0.200000000000000011,99.040547828292389454
0.201000000000000012,98.115499861231981527
0.202000000000000013,96.374117421043393961
0.203000000000000014,94.296683770831663196
0.204000000000000015,92.147080959718977056
0.205000000000000016,90.053997253540913448
0.206000000000000016,88.065649003247216342
0.207000000000000017,86.185765163695705837
0.208000000000000018,84.396499727764378918
0.209000000000000019,82.672378760870287806
0.210000000000000020,80.988229040760899125
0.211000000000000021,79.323177931774537797
0.212000000000000022,77.662184879186980879
0.213000000000000023,75.996107006886774116
0.214000000000000024,74.320971396782681495
0.215000000000000024,72.636891757965472038
0.216000000000000025,70.946902388671759354
0.217000000000000026,69.255868765210180982
0.218000000000000027,67.569557631462046743
0.219000000000000028,65.893899571114133096
0.220000000000000029,64.234445911983257815
0.221000000000000030,62.596003693752336972
0.222000000000000031,60.982423140944391093
0.223000000000000032,59.396508603706138274
0.224000000000000032,57.840024111981847454
0.225000000000000033,56.313767029977881862
0.226000000000000034,54.817686766116196395
0.227000000000000035,53.351029401094066884
0.228000000000000036,51.912493001978226914
0.229000000000000037,50.500382026808075864
0.230000000000000038,49.112752446553770369
0.231000000000000039,47.747541956271810193
0.232000000000000040,46.402681905622998215
0.233000000000000040,45.076189374885380801
0.234000000000000041,43.766239199887223776
0.235000000000000042,42.471216761081265645
0.236000000000000043,41.189753054356920359
0.237000000000000044,39.920744008853603191
0.238000000000000045,38.663356260747214321
0.239000000000000046,37.417021677133810442
0.240000000000000047,36.181422890143949189
0.241000000000000048,34.956471981692445183
0.242000000000000048,33.742284281422953995
0.243000000000000049,32.539149026797204556
0.244000000000000050,31.347498402558528596
0.245000000000000051,30.167876240520161701
0.246000000000000052,29.000907429899541512
0.247000000000000053,27.847268870428536047
0.248000000000000054,26.707662600058633018
0.249000000000000055,25.582791549186261193
0.250000000000000056,24.473338215396928774
0.251000000000000056,23.379946417079729315
0.252000000000000057,22.303206170360784455
0.253000000000000058,21.243641640508769797
0.254000000000000059,20.201702044729067609
0.255000000000000060,19.177755326294278149
0.256000000000000061,18.172084378332872490
0.257000000000000062,17.184885567363714642
0.258000000000000063,16.216269289905696382
0.259000000000000064,15.266262288383122936
0.260000000000000064,14.334811453386503644
0.261000000000000065,13.421788846578753152
0.262000000000000066,12.526997690755157677
0.263000000000000067,11.650179089537314070
0.264000000000000068,10.791019257822261679
0.265000000000000069,9.949157064491670255
0.266000000000000070,9.124191710231048802
0.267000000000000071,8.315690384960223724
0.268000000000000071,7.523195770808587035
0.269000000000000072,6.746233277356314950
0.270000000000000073,5.984317915682185962
0.271000000000000074,5.236960736366929048
0.272000000000000075,4.503674773826664257
0.273000000000000076,3.783980455087116557
0.274000000000000077,3.077410445295663433
0.275000000000000078,2.383513914890853957
0.276000000000000079,1.701860224427014900
0.277000000000000079,1.032042032627961348
0.278000000000000080,0.373677841390815335
0.279000000000000081,-0.273586001745773022
0.280000000000000082,-0.910073817615633218
0.281000000000000083,-1.536079595487935157
0.282000000000000084,-2.151866445416501072
0.283000000000000085,-2.757666466732858090
0.284000000000000086,-3.353680995004935994
0.285000000000000087,-3.940081188988135530
0.286000000000000087,-4.517008918949192875
0.287000000000000088,-5.084577918149276954
0.288000000000000089,-5.642875160147346136
0.289000000000000090,-6.191962425848851481
0.290000000000000091,-6.731878025802350507
0.291000000000000092,-7.262638645075758959
0.292000000000000093,-7.784241280059850610
0.293000000000000094,-8.296665238699400646
0.294000000000000095,-8.799874177892810678
0.295000000000000095,-9.293818154089695582
0.296000000000000096,-9.778435665413949707
0.297000000000000097,-10.253655665920263118
0.298000000000000098,-10.719399534825925002
0.299000000000000099,-11.175582985728079066
0.300000000000000100,-11.622117902899573139
0.301000000000000101,-12.058914093743592133
0.302000000000000102,-12.485880948363019982
0.303000000000000103,-12.902928998963639984
0.304000000000000103,-13.309971373448572507
0.305000000000000104,-13.706925139077801745
0.306000000000000105,-14.093712533456749014
0.307000000000000106,-14.470262081382951891
0.308000000000000107,-14.836509597222732992
0.309000000000000108,-15.192399073512030228
0.310000000000000109,-15.537883457383225405
0.311000000000000110,-15.872925317214299668
0.312000000000000111,-16.197497402588560078
0.313000000000000111,-16.511583101242162996
0.314000000000000112,-16.815176797173570833
0.315000000000000113,-17.108284134498312312
0.316000000000000114,-17.390922191959880649
0.317000000000000115,-17.663119573260608774
0.318000000000000116,-17.924916418560968623
0.319000000000000117,-18.176364342617794989
0.320000000000000118,-18.417526305097609907
0.321000000000000119,-18.648476418616958483
0.322000000000000119,-18.869299700031511691
0.323000000000000120,-19.080091770426331976
0.324000000000000121,-19.280958509156072012
0.325000000000000122,-19.472015667149122464
0.326000000000000123,-19.653388444530463630
0.327000000000000124,-19.825211037436300643
0.328000000000000125,-19.987626158694972389
0.329000000000000126,-20.140784536834949847
0.330000000000000127,-20.284844397656435433
0.331000000000000127,-20.419970932370699046
0.332000000000000128,-20.546335756072807044
0.333000000000000129,-20.664116360072437573
0.334000000000000130,-20.773495561364676121
0.335000000000000131,-20.874660952281622883
0.336000000000000132,-20.967804353125742978
0.337000000000000133,-21.053121270351180527
0.338000000000000134,-21.130810362629205201
0.339000000000000135,-21.201072916909208033
0.340000000000000135,-21.264112336371034928
0.341000000000000136,-21.320133641954413406
0.342000000000000137,-21.369342988951430584
0.343000000000000138,-21.411947199955793764
0.344000000000000139,-21.448153315281068387
0.345000000000000140,-21.478168161786570067
0.346000000000000141,-21.502197940886915717
0.347000000000000142,-21.520447836367750938
0.348000000000000143,-21.533121642486783287
0.349000000000000143,-21.540421412705093474
0.350000000000000144,-21.542547129269774331
0.351000000000000145,-21.539696393753509085
0.352000000000000146,-21.532064138551522348
0.353000000000000147,-21.519842359239014229
0.354000000000000148,-21.503219867604300930
0.355000000000000149,-21.482382065092711088
0.356000000000000150,-21.457510736324593381
0.357000000000000151,-21.428783862286422846
0.358000000000000151,-21.396375452736887013
0.359000000000000152,-21.360455397319789483
0.360000000000000153,-21.321189334832375550
0.361000000000000154,-21.278738540059702444
0.362000000000000155,-21.233259827554668675
0.363000000000000156,-21.184905471716966474
0.364000000000000157,-21.133823142503160852
0.365000000000000158,-21.080155856083951704
0.366000000000000159,-21.024041939752539321
0.367000000000000159,-20.965615010380439287
0.368000000000000160,-20.905003965712669611
0.369000000000000161,-20.842332987793735555
0.370000000000000162,-20.777721557818090048
0.371000000000000163,-20.711284481704208105
0.372000000000000164,-20.643131925698813944
0.373000000000000165,-20.573369461328379515
0.374000000000000166,-20.502098119026747725
0.375000000000000167,-20.429414449781891250
0.376000000000000167,-20.355410594160286308
0.377000000000000168,-20.280174358084455122
0.378000000000000169,-20.203789294756980155
0.379000000000000170,-20.126334792144056962
0.380000000000000171,-20.047886165450865548
0.381000000000000172,-19.968514754042395509
0.382000000000000173,-19.888288022283894918
0.383000000000000174,-19.807269663797359982
0.384000000000000175,-19.725519708651763295
0.385000000000000175,-19.643094633026954909
0.386000000000000176,-19.560047470913445977
0.387000000000000177,-19.476427927431775089
0.388000000000000178,-19.392282493377816621
0.389000000000000179,-19.307654560621234197
0.390000000000000180,-19.222584538006394439
0.391000000000000181,-19.137109967425786294
0.392000000000000182,-19.051265639756753245
0.393000000000000183,-18.965083710372638848
0.394000000000000183,-18.878593813959096082
0.395000000000000184,-18.791823178385818949
0.396000000000000185,-18.704796737402269002
0.397000000000000186,-18.617537241944411619
0.398000000000000187,-18.530065369856902890
0.399000000000000188,-18.442399833852036295
0.400000000000000189,-18.354557487542997762
0.401000000000000190,-18.266553429404829956
0.402000000000000191,-18.178401104531271670
0.403000000000000191,-18.090112404070168850
0.404000000000000192,-18.001697762233749955
0.405000000000000193,-17.913166250793249645
0.406000000000000194,-17.824525670979625147
0.407000000000000195,-17.735782642724224445
0.408000000000000196,-17.646942691184015928
0.409000000000000197,-17.558010330506910179
0.410000000000000198,-17.468989144802698377
0.411000000000000199,-17.379881866294045523
0.412000000000000199,-17.290690450631426955
0.413000000000000200,-17.201416149363694785
0.414000000000000201,-17.112059579563904776
0.415000000000000202,-17.022620790616983300
0.416000000000000203,-16.933099328182841248
0.417000000000000204,-16.843494295354382473
0.418000000000000205,-16.753804411035762456
0.419000000000000206,-16.664028065571454107
0.420000000000000207,-16.574163373661445320
0.421000000000000207,-16.484208224602447501
0.422000000000000208,-16.394160329898671336
0.423000000000000209,-16.304017268289719311
0.424000000000000210,-16.213776528246185649
0.425000000000000211,-16.123435547986201044
0.426000000000000212,-16.032991753069413932
0.427000000000000213,-15.942442591626200254
0.428000000000000214,-15.851785567282774991
0.429000000000000214,-15.761018269843756201
0.430000000000000215,-15.670138403795647264
0.431000000000000216,-15.579143814695678216
0.432000000000000217,-15.488032513511154065
0.433000000000000218,-15.396802698975502466
0.434000000000000219,-15.305452778027373029
0.435000000000000220,-15.213981384399691166
0.436000000000000221,-15.122387395425331391
0.437000000000000222,-15.030669947126318320
0.438000000000000222,-14.938828447653131448
0.439000000000000223,-14.846862589140197741
0.440000000000000224,-14.754772358043364733
0.441000000000000225,-14.662558044024246229
0.442000000000000226,-14.570220247445973882
0.443000000000000227,-14.477759885543585838
0.444000000000000228,-14.385178197331720540
0.445000000000000229,-14.292476747311159357
0.446000000000000230,-14.199657428034385021
0.447000000000000230,-14.106722461589731310
0.448000000000000231,-14.013674400061939096
0.449000000000000232,-13.920516125025780951
0.450000000000000233,-13.827250846128483985
0.451000000000000234,-13.733882098814628847
0.452000000000000235,-13.640413741246485202
0.453000000000000236,-13.546849950470752688
0.454000000000000237,-13.453195217881784629
0.455000000000000238,-13.359454344029270345
0.456000000000000238,-13.265632432817522357
0.457000000000000239,-13.171734885141489713
0.458000000000000240,-13.077767392003531555
0.459000000000000241,-12.983735927153128742
0.460000000000000242,-12.889646739290640198
0.461000000000000243,-12.795506343874247790
0.462000000000000244,-12.701321514568343574
0.463000000000000245,-12.607099274369314656
0.464000000000000246,-12.512846886444355832
0.465000000000000246,-12.418571844716375097
0.466000000000000247,-12.324281864227467409
0.467000000000000248,-12.229984871311554429
0.468000000000000249,-12.135688993605807440
0.469000000000000250,-12.041402549928685417
0.470000000000000251,-11.947134040051547998
0.471000000000000252,-11.852892134389060530
0.472000000000000253,-11.758685663632938656
0.473000000000000254,-11.664523608351577977
0.474000000000000254,-11.570415088577640006
0.475000000000000255,-11.476369353403962137
0.476000000000000256,-11.382395770607322660
0.477000000000000257,-11.288503816318396389
0.478000000000000258,-11.194703064754936150
0.479000000000000259,-11.101003178034611452
0.480000000000000260,-11.007413896082496763
0.481000000000000261,-10.913945026647331460
0.482000000000000262,-10.820606435439888315
0.483000000000000262,-10.727408036405702063
0.484000000000000263,-10.634359782143359752
0.485000000000000264,-10.541471654479178000
0.486000000000000265,-10.448753655207685398
0.487000000000000266,-10.356215797006923296
0.488000000000000267,-10.263868094536642062
0.489000000000000268,-10.171720555726819768
0.490000000000000269,-10.079783173263049179
0.491000000000000270,-9.988065916274951661
0.492000000000000270,-9.896578722232646896
0.493000000000000271,-9.805331489056374750
0.494000000000000272,-9.714334067443038734
0.495000000000000273,-9.623596253413248647
0.496000000000000274,-9.533127781082081142
0.497000000000000275,-9.442938315655670323
0.498000000000000276,-9.353037446655884324
0.499000000000000277,-9.263434681374445034
0.500000000000000222,-9.174139438557507020
0.501000000000000334,-9.085161042321454161
0.502000000000000224,-8.996508716300073871
0.503000000000000336,-8.908191578022842450
0.504000000000000226,-8.820218633524120833
0.505000000000000338,-8.732598772181937363
0.506000000000000227,-8.645340761785806905
0.507000000000000339,-8.558453243831472435
0.508000000000000229,-8.471944729041409161
0.509000000000000341,-8.385823593108590046
0.510000000000000231,-8.300098072661807436
0.511000000000000343,-8.214776261449461714
0.512000000000000233,-8.129866106739772391
0.513000000000000345,-8.045375405933910429
0.514000000000000234,-7.961311803389709674
0.515000000000000346,-7.877682787451895763
0.516000000000000236,-7.794495687686335827
0.517000000000000348,-7.711757672314048406
0.518000000000000238,-7.629475745841942214
0.519000000000000350,-7.547656746886032053
0.520000000000000240,-7.466307346183699067
0.521000000000000352,-7.385434044790779140
0.522000000000000242,-7.305043172459669165
0.523000000000000353,-7.225140886194120426
0.524000000000000243,-7.145733168976858174
0.525000000000000355,-7.066825828665566966
0.526000000000000245,-6.988424497053306261
0.527000000000000357,-6.910534629088656899
0.528000000000000247,-6.833161502251840602
0.529000000000000359,-6.756310216081979902
0.530000000000000249,-6.679985691851593188
0.531000000000000361,-6.604192672383662810
0.532000000000000250,-6.528935722007294551
0.533000000000000362,-6.454219226647256669
0.534000000000000252,-6.380047394043515396
0.535000000000000364,-6.306424254096083537
0.536000000000000254,-6.233353659331356766
0.537000000000000366,-6.160839285485162797
0.538000000000000256,-6.088884632199003555
0.539000000000000368,-6.017493023824602716
0.540000000000000258,-5.946667610333380871
0.541000000000000369,-5.876411368326038165
0.542000000000000259,-5.806727102138975027
0.543000000000000371,-5.737617445042893394
0.544000000000000261,-5.669084860530195336
0.545000000000000373,-5.601131643686938055
0.546000000000000263,-5.533759922645901774
0.547000000000000375,-5.466971660116507259
0.548000000000000265,-5.400768654988658213
0.549000000000000377,-5.335152544006028563
0.550000000000000266,-5.270124803506026190
0.551000000000000378,-5.205686751222382114
0.552000000000000268,-5.141839548147305372
0.553000000000000380,-5.078584200449647312
0.554000000000000270,-5.015921561446001320
0.555000000000000382,-4.953852333621233228
0.556000000000000272,-4.892377070695784980
0.557000000000000384,-4.831496179736067376
0.558000000000000274,-4.771209923305660183
0.559000000000000385,-4.711518421653718924
0.560000000000000275,-4.652421654938354578
0.561000000000000387,-4.593919465481748787
0.562000000000000277,-4.536011560054619807
0.563000000000000389,-4.478697512187232554
0.564000000000000279,-4.421976764504554680
0.565000000000000391,-4.365848631082911879
0.566000000000000281,-4.310312299825922899
0.567000000000000393,-4.255366834857175817
0.568000000000000282,-4.201011178927650747
0.569000000000000394,-4.147244155835332791
0.570000000000000284,-4.094064472855310832
0.571000000000000396,-4.041470723177893909
0.572000000000000286,-3.989461388353151783
0.573000000000000398,-3.938034840739562448
0.574000000000000288,-3.887189345955265996
0.575000000000000400,-3.836923065329898463
0.576000000000000290,-3.787234058355418487
0.577000000000000401,-3.738120285134125087
0.578000000000000291,-3.689579608822465051
0.579000000000000403,-3.641609798068848214
0.580000000000000293,-3.594208529444264943
0.581000000000000405,-3.547373389863971660
0.582000000000000295,-3.501101878999245631
0.583000000000000407,-3.455391411677530833
0.584000000000000297,-3.410239320270056940
0.585000000000000409,-3.365642857065464622
0.586000000000000298,-3.321599196628562289
0.587000000000000410,-3.278105438142831396
0.588000000000000300,-3.235158607735962644
0.589000000000000412,-3.192755660787113037
0.590000000000000302,-3.150893484215242069
0.591000000000000414,-3.109568898747435028
0.592000000000000304,-3.068778661166485566
0.593000000000000416,-3.028519466536814697
0.594000000000000306,-2.988787950408195115
0.595000000000000417,-2.949580690996289611
0.596000000000000307,-2.910894211339587923
0.597000000000000419,-2.872724981431943547
0.598000000000000309,-2.835069420330261547
0.599000000000000421,-2.797923898236627682
0.600000000000000311,-2.761284738554587559
0.601000000000000423,-2.725148219918838599
0.602000000000000313,-2.689510578198220259
0.603000000000000425,-2.654368008471197804
0.604000000000000314,-2.619716666973964436
0.605000000000000426,-2.585552673020288239
0.606000000000000316,-2.551872110893314449
0.607000000000000428,-2.518671031708602293
0.608000000000000318,-2.485945455248534053
0.609000000000000430,-2.453691371767556362
0.610000000000000320,-2.421904743768343860
0.611000000000000432,-2.390581507748482437
0.612000000000000322,-2.359717575917748889
0.613000000000000433,-2.329308837885702310
0.614000000000000323,-2.299351162319634767
0.615000000000000435,-2.269840398572720908
0.616000000000000325,-2.240772378282404720
0.617000000000000437,-2.212142916938920845
0.618000000000000327,-2.183947815424059247
0.619000000000000439,-2.156182861520048899
0.620000000000000329,-2.128843831388769647
0.621000000000000441,-2.101926491021205656
0.622000000000000330,-2.075426597657314076
0.623000000000000442,-2.049339901176322254
0.624000000000000332,-2.023662145457646666
0.625000000000000444,-1.998389069712480648
0.626000000000000334,-1.973516409786247650
0.627000000000000446,-1.949039899432021272
0.628000000000000336,-1.924955271555128800
0.629000000000000448,-1.901258259429060349
0.630000000000000338,-1.877944597882964528
0.631000000000000449,-1.855010024460789664
0.632000000000000339,-1.832450280552448074
0.633000000000000451,-1.810261112497081326
0.634000000000000341,-1.788438272658781525
0.635000000000000453,-1.766977520474901642
0.636000000000000343,-1.745874623477286391
0.637000000000000455,-1.725125358286638377
0.638000000000000345,-1.704725511580337693
0.639000000000000457,-1.684670881033864420
0.640000000000000346,-1.664957276236314954
0.641000000000000458,-1.645580519580049028
0.642000000000000348,-1.626536447124998119
0.643000000000000460,-1.607820909437717827
0.644000000000000350,-1.589429772405693164
0.645000000000000462,-1.571358918027006224
0.646000000000000352,-1.553604245175860710
0.647000000000000464,-1.536161670344091457
0.648000000000000353,-1.519027128359208278
0.649000000000000465,-1.502196573079014552
0.650000000000000355,-1.485665978063424930
0.651000000000000467,-1.469431337223535028
0.652000000000000357,-1.453488665448499972
0.653000000000000469,-1.437833999210368363
0.654000000000000359,-1.422463397147371911
0.655000000000000471,-1.407372940625828850
0.656000000000000361,-1.392558734281188704
0.657000000000000473,-1.378016906538356734
0.658000000000000362,-1.363743610111822768
