# C-amorph-1_CS-16629-AC
# h[nm],U(h)[kJ/mol]
0.200000000000000011,75.353231347840164744
0.201000000000000012,74.797983261113841991
0.202000000000000013,73.288383048230954842
0.203000000000000014,71.371255302904344830
0.204000000000000015,69.350548570714224184
0.205000000000000016,67.377540342612221025
0.206000000000000016,65.511862669563001305
0.207000000000000017,63.761825782315668221
0.208000000000000018,62.110251834673491089
0.209000000000000019,60.530332843055454362
0.210000000000000020,58.994760998421654108
0.211000000000000021,57.480441655984940041
0.212000000000000022,55.970409402131259924
0.213000000000000023,54.454064269115086461
0.214000000000000024,52.926481493659366606
0.215000000000000024,51.387288453339564853
0.216000000000000025,49.839419443964970924
0.217000000000000026,48.287932292674035750
0.218000000000000027,46.738985031252624935
0.219000000000000028,45.199014466150686076
0.220000000000000029,43.674122921105031025
0.221000000000000030,42.169658387259644883
0.222000000000000031,40.689962183195532930
0.223000000000000032,39.238253667337872344
0.224000000000000032,37.816621174207838862
0.225000000000000033,36.426090486934405988
0.226000000000000034,35.066745654423151279
0.227000000000000035,33.737881034922835966
0.228000000000000036,32.438167594147884643
0.229000000000000037,31.165820395741018700
0.230000000000000038,29.918757720642492615
0.231000000000000039,28.694745258602427640
0.232000000000000040,27.491521309794524797
0.233000000000000040,26.306900936335136265
0.234000000000000041,25.138858554501418041
0.235000000000000042,23.985589612465794573
0.236000000000000043,22.845552813666596847
0.237000000000000044,21.717494880230226784
0.238000000000000045,20.600460158277144274
0.239000000000000046,19.493787496335201581
0.240000000000000047,18.397096822194328070
0.241000000000000048,17.310267738849468344
0.242000000000000048,16.233412287084590275
0.243000000000000049,15.166843805525422439
0.244000000000000050,14.111043578360542128
0.245000000000000051,13.066626711697860941
0.246000000000000052,12.034308433229144342
0.247000000000000053,11.014871774865737208
0.248000000000000054,10.009137380040069587
0.249000000000000055,9.017935980076746461
0.250000000000000056,8.042083909397021557
0.251000000000000056,7.082361878012305212
0.252000000000000057,6.139497091498972381
0.253000000000000058,5.214148702437843674
0.254000000000000059,4.306896491665769489
0.255000000000000060,3.418232610839726959
0.256000000000000061,2.548556167789629789
0.257000000000000062,1.698170400910888445
0.258000000000000063,0.867282166407196131
0.259000000000000064,0.056003450601447999
0.260000000000000064,-0.735645383035091194
0.261000000000000065,-1.507730897706259121
0.262000000000000066,-2.260400712938078094
0.263000000000000067,-2.993876719950556708
0.264000000000000068,-3.708447624311118851
0.265000000000000069,-4.404461036837355792
0.266000000000000070,-5.082315311758053511
0.267000000000000071,-5.742451308553290446
0.268000000000000071,-6.385344231278105909
0.269000000000000072,-7.011495677021484241
0.270000000000000073,-7.621426003845051866
0.271000000000000074,-8.215667108376120353
0.272000000000000075,-8.794755684410917596
0.273000000000000076,-9.359227016557815304
0.274000000000000077,-9.909609347205165619
0.275000000000000078,-10.446418840971423592
0.276000000000000079,-10.970155158284448760
0.277000000000000079,-11.481297638811920336
0.278000000000000080,-11.980302086064238409
0.279000000000000081,-12.467598136543356802
0.280000000000000082,-12.943587190221212069
0.281000000000000083,-13.408640873804227311
0.282000000000000084,-13.863100004067254289
0.283000000000000085,-14.307274015416373558
0.284000000000000086,-14.741440813657018083
0.285000000000000087,-15.165847016593236418
0.286000000000000087,-15.580708541468363038
0.287000000000000088,-15.986211499274158854
0.288000000000000089,-16.382513356515410408
0.289000000000000090,-16.769744326034022208
0.290000000000000091,-17.148008949888605912
0.291000000000000092,-17.517387838984355142
0.292000000000000093,-17.877939536082955385
0.293000000000000094,-18.229702470936956615
0.294000000000000095,-18.572696978533937084
0.295000000000000095,-18.906927353756454835
0.296000000000000096,-19.232383918122316402
0.297000000000000097,-19.549045076633543516
0.298000000000000098,-19.856879345098473522
0.299000000000000099,-20.155847330577426391
0.300000000000000100,-20.445903649814944458
0.301000000000000101,-20.726998772646201274
0.302000000000000102,-20.999080779385856488
0.303000000000000103,-21.262097023117583205
0.304000000000000103,-21.515995689590432960
0.305000000000000104,-21.760727249093186231
0.306000000000000105,-21.996245796214598300
0.307000000000000106,-22.222510274806065667
0.308000000000000107,-22.439485586744972068
0.309000000000000108,-22.647143584253157655
0.310000000000000109,-22.845463946559920743
0.311000000000000110,-23.034434942615000352
0.312000000000000111,-23.214054082362494569
0.313000000000000111,-23.384328659782568138
0.314000000000000112,-23.545276191504310503
0.315000000000000113,-23.696924755293473197
0.316000000000000114,-23.839313233131161240
0.317000000000000115,-23.972491463929085143
0.318000000000000116,-24.096520311181212293
0.319000000000000117,-24.211471651036251984
0.320000000000000118,-24.317428286397017700
0.321000000000000119,-24.414483792717227573
0.322000000000000119,-24.502742301179587514
0.323000000000000120,-24.582318224906636317
0.324000000000000121,-24.653335933783527167
0.325000000000000122,-24.715929383364176886
0.326000000000000123,-24.770241703193764948
0.327000000000000124,-24.816424749716794906
0.328000000000000125,-24.854638628753676244
0.329000000000000126,-24.885051192324663560
0.330000000000000127,-24.907837514381615307
0.331000000000000127,-24.923179349777694114
0.332000000000000128,-24.931264580567450651
0.333000000000000129,-24.932286653485231653
0.334000000000000130,-24.926444012202811251
0.335000000000000131,-24.913939527719119127
0.336000000000000132,-24.894979929986490674
0.337000000000000133,-24.869775243633469586
0.338000000000000134,-24.838538230402605222
0.339000000000000135,-24.801483840685328630
0.340000000000000135,-24.758828676306819716
0.341000000000000136,-24.710790466490550443
0.342000000000000137,-24.657587558718006449
0.343000000000000138,-24.599438425992637747
0.344000000000000139,-24.536561191820528194
0.345000000000000140,-24.469173174032455620
0.346000000000000141,-24.397490448394332674
0.347000000000000142,-24.321727432784939538
0.348000000000000143,-24.242096492562193788
0.349000000000000143,-24.158807567590862675
0.350000000000000144,-24.072067821266809773
0.351000000000000145,-23.982081311744327223
0.352000000000000146,-23.889048685454682186
0.353000000000000147,-23.793166892894472397
0.354000000000000148,-23.694628926562394611
0.355000000000000149,-23.593623580831643238
0.356000000000000150,-23.490335233462445785
0.357000000000000151,-23.384943648384769688
0.358000000000000151,-23.277623799314461905
0.359000000000000152,-23.168545713706883760
0.360000000000000153,-23.057874336500237433
0.361000000000000154,-22.945769413055483454
0.362000000000000155,-22.832385390660572710
0.363000000000000156,-22.717871337934319342
0.364000000000000157,-22.602370881437586547
0.365000000000000158,-22.486022158777814184
0.366000000000000159,-22.368957787475672205
0.367000000000000159,-22.251304848850232077
0.368000000000000160,-22.133184886170820249
0.369000000000000161,-22.014713916319369247
0.370000000000000162,-21.896002454205962806
0.371000000000000163,-21.777155549183568439
0.372000000000000164,-21.658272832712192724
0.373000000000000165,-21.539448576532038260
0.374000000000000166,-21.420771760614826462
0.375000000000000167,-21.302326150175744601
0.376000000000000167,-21.184190381042871110
0.377000000000000168,-21.066438052697201044
0.378000000000000169,-20.949137828314285059
0.379000000000000170,-20.832353541157562660
0.380000000000000171,-20.716144306693475841
0.381000000000000172,-20.600564639819769042
0.382000000000000173,-20.485664576619594612
0.383000000000000174,-20.371489800077373644
0.384000000000000175,-20.258081769214040690
0.385000000000000175,-20.145477851123409607
0.386000000000000176,-20.033711455414135116
0.387000000000000177,-19.922812170585210367
0.388000000000000178,-19.812805901886811455
0.389000000000000179,-19.703715010240831162
0.390000000000000180,-19.595558451819076851
0.391000000000000181,-19.488351917899787935
0.392000000000000182,-19.382107974645659709
0.393000000000000183,-19.276836202468292214
0.394000000000000183,-19.172543334666311665
0.395000000000000184,-19.069233395045021240
0.396000000000000185,-18.966907834246121922
0.397000000000000186,-18.865565664536497081
0.398000000000000187,-18.765203592824036605
0.399000000000000188,-18.665816151687764091
0.400000000000000189,-18.567395828227226673
0.401000000000000190,-18.469933190554414182
0.402000000000000191,-18.373417011767664064
0.403000000000000191,-18.277834391263567682
0.404000000000000192,-18.183170873258653444
0.405000000000000193,-18.089410562406971650
0.406000000000000194,-17.996536236414449661
0.407000000000000195,-17.904529455564244245
0.408000000000000196,-17.813370669079919395
0.409000000000000197,-17.723039318265961128
0.410000000000000198,-17.633513936376495224
0.411000000000000199,-17.544772245173788860
0.412000000000000199,-17.456791248148867624
0.413000000000000200,-17.369547320385947842
0.414000000000000201,-17.283016295061681689
0.415000000000000202,-17.197173546578529368
0.416000000000000203,-17.111994070339825669
0.417000000000000204,-17.027452559181266878
0.418000000000000205,-16.943523476480581991
0.419000000000000206,-16.860181125973582539
0.420000000000000207,-16.777399718310345378
0.421000000000000207,-16.695153434391308167
0.422000000000000208,-16.613416485527277899
0.423000000000000209,-16.532163170472589542
0.424000000000000210,-16.451367929384197453
0.425000000000000211,-16.371005394763493257
0.426000000000000212,-16.291050439441015385
0.427000000000000213,-16.211478221666801858
0.428000000000000214,-16.132264227372338894
0.429000000000000214,-16.053384309671702823
0.430000000000000215,-15.974814725672022320
0.431000000000000216,-15.896532170664794847
0.432000000000000217,-15.818513809770937684
0.433000000000000218,-15.740737307113741750
0.434000000000000219,-15.663180852594848602
0.435000000000000220,-15.585823186348815028
0.436000000000000221,-15.508643620952403452
0.437000000000000222,-15.431622061465001039
0.438000000000000222,-15.354739023376557938
0.439000000000000223,-15.277975648539378284
0.440000000000000224,-15.201313719159699644
0.441000000000000225,-15.124735669924593395
0.442000000000000226,-15.048224598339354330
0.443000000000000227,-14.971764273349331020
0.444000000000000228,-14.895339142319921066
0.445000000000000229,-14.818934336447023625
0.446000000000000230,-14.742535674669436929
0.447000000000000230,-14.666129666153613798
0.448000000000000231,-14.589703511419770621
0.449000000000000232,-14.513245102177180001
0.450000000000000233,-14.436743019935226684
0.451000000000000234,-14.360186533455177482
0.452000000000000235,-14.283565595106399115
0.453000000000000236,-14.206870836188979723
0.454000000000000237,-14.130093561283606718
0.455000000000000238,-14.053225741687407790
0.456000000000000238,-13.976260007993468903
0.457000000000000239,-13.899189641869643452
0.458000000000000240,-13.822008567091064180
0.459000000000000241,-13.744711339878630696
0.460000000000000242,-13.667293138594752477
0.461000000000000243,-13.589749752845278863
0.462000000000000244,-13.512077572035630979
0.463000000000000245,-13.434273573426668946
0.464000000000000246,-13.356335309735220207
0.465000000000000246,-13.278260896321560480
0.466000000000000247,-13.200048998005309286
0.467000000000000248,-13.121698815549143191
0.468000000000000249,-13.043210071848514886
0.469000000000000250,-12.964582997863621117
0.470000000000000251,-12.885818318328839283
0.471000000000000252,-12.806917237272731569
0.472000000000000253,-12.727881423381033343
0.473000000000000254,-12.648712995232736844
0.474000000000000254,-12.569414506438699064
0.475000000000000255,-12.489988930710303805
0.476000000000000256,-12.410439646884706022
0.477000000000000257,-12.330770423931637580
0.478000000000000258,-12.250985405965529651
0.479000000000000259,-12.171089097285513247
0.480000000000000260,-12.091086347464576889
0.481000000000000261,-12.010982336507833423
0.482000000000000262,-11.930782560099062906
0.483000000000000262,-11.850492814953149434
0.484000000000000263,-11.770119184291141679
0.485000000000000264,-11.689668023453689827
0.486000000000000265,-11.609145945667412647
0.487000000000000266,-11.528559807977803331
0.488000000000000267,-11.447916697361423033
0.489000000000000268,-11.367223917029118496
0.490000000000000269,-11.286488972931067565
0.491000000000000270,-11.205719560473786700
0.492000000000000270,-11.124923551458053339
0.493000000000000271,-11.044108981246363754
0.494000000000000272,-10.963284036167415536
0.495000000000000273,-10.882457041164380840
0.496000000000000274,-10.801636447693429233
0.497000000000000275,-10.720830821877679995
0.498000000000000276,-10.640048832921612743
0.499000000000000277,-10.559299241790153445
0.500000000000000222,-10.478590890155954796
0.501000000000000334,-10.397932689618059499
0.502000000000000224,-10.317333611194474230
0.503000000000000336,-10.236802675090491022
0.504000000000000226,-10.156348940744598153
0.505000000000000338,-10.075981497152676880
0.506000000000000227,-9.995709453471501860
0.507000000000000339,-9.915541929901333873
0.508000000000000229,-9.835488048847834008
0.509000000000000341,-9.755556926362292103
0.510000000000000231,-9.675757663859815949
0.511000000000000343,-9.596099340113555698
0.512000000000000233,-9.516591003524091263
0.513000000000000345,-9.437241664661485174
0.514000000000000234,-9.358060289078567351
0.515000000000000346,-9.279055790392257919
0.516000000000000236,-9.200237023631158806
0.517000000000000348,-9.121612778845793912
0.518000000000000238,-9.043191774979097985
0.519000000000000350,-8.964982653993322614
0.520000000000000240,-8.886993975250453204
0.521000000000000352,-8.809234210142141919
0.522000000000000242,-8.731711736965738879
0.523000000000000353,-8.654434836042229406
0.524000000000000243,-8.577411685072403813
0.525000000000000355,-8.500650354726868585
0.526000000000000245,-8.424158804465943007
0.527000000000000357,-8.347944878584833361
0.528000000000000247,-8.272016302480064809
0.529000000000000359,-8.196380679132399649
0.530000000000000249,-8.121045485801957398
0.531000000000000361,-8.046018070930783139
0.532000000000000250,-7.971305651248544955
0.533000000000000362,-7.896915309076336875
0.534000000000000252,-7.822853989824319676
0.535000000000000364,-7.749128499678187509
0.536000000000000254,-7.675745503470116304
0.537000000000000366,-7.602711522729016735
0.538000000000000256,-7.530032933906023906
0.539000000000000368,-7.457715966769865368
0.540000000000000258,-7.385766702968082242
0.541000000000000369,-7.314191074748815247
0.542000000000000259,-7.242994863839153474
0.543000000000000371,-7.172183700474865198
0.544000000000000261,-7.101763062577383323
0.545000000000000373,-7.031738275073216471
0.546000000000000263,-6.962114509351560621
0.547000000000000375,-6.892896782855217452
0.548000000000000265,-6.824089958801115685
0.549000000000000377,-6.755698746025238677
0.550000000000000266,-6.687727698948459754
0.551000000000000378,-6.620181217658386075
0.552000000000000268,-6.553063548103510882
0.553000000000000380,-6.486378782395189724
0.554000000000000270,-6.420130859213688090
0.555000000000000382,-6.354323564313931527
0.556000000000000272,-6.288960531127488096
0.557000000000000384,-6.224045241456371613
0.558000000000000274,-6.159581026255446012
0.559000000000000385,-6.095571066499107182
0.560000000000000275,-6.032018394129141647
0.561000000000000387,-5.968925893079708445
0.562000000000000277,-5.906296300376235209
0.563000000000000389,-5.844132207304607363
0.564000000000000279,-5.782436060647400566
0.565000000000000391,-5.721210163983720065
0.566000000000000281,-5.660456679049569395
0.567000000000000393,-5.600177627155421334
0.568000000000000282,-5.540374890658165796
0.569000000000000394,-5.481050214484045391
0.570000000000000284,-5.422205207700121932
0.571000000000000396,-5.363841345130914817
0.572000000000000286,-5.305959969017914446
0.573000000000000398,-5.248562290718765233
0.574000000000000288,-5.191649392443915545
0.575000000000000400,-5.135222229027839091
0.576000000000000290,-5.079281629732546932
0.577000000000000401,-5.023828300080756648
0.578000000000000291,-4.968862823716590604
0.579000000000000403,-4.914385664291243572
0.580000000000000293,-4.860397167371691474
0.581000000000000405,-4.806897562369937482
0.582000000000000295,-4.753886964491110589
0.583000000000000407,-4.701365376697959952
0.584000000000000297,-4.649332691690159614
0.585000000000000409,-4.597788693896233347
0.586000000000000298,-4.546733061476539106
0.587000000000000410,-4.496165368335208079
0.588000000000000300,-4.446085086139720310
0.589000000000000412,-4.396491586346039426
0.590000000000000302,-4.347384142228107429
0.591000000000000414,-4.298761930909867246
0.592000000000000304,-4.250624035398525180
0.593000000000000416,-4.202969446617454530
0.594000000000000306,-4.155797065437595528
0.595000000000000417,-4.109105704705778628
0.596000000000000307,-4.062894091268921315
0.597000000000000419,-4.017160867992735973
0.598000000000000309,-3.971904595773920299
0.599000000000000421,-3.927123755544535300
0.600000000000000311,-3.882816750267733319
0.601000000000000423,-3.838981906923548681
0.602000000000000313,-3.795617478484115903
0.603000000000000425,-3.752721645876927248
0.604000000000000314,-3.710292519935818767
0.605000000000000426,-3.668328143338206893
0.606000000000000316,-3.626826492528402390
0.607000000000000428,-3.585785479625652528
0.608000000000000318,-3.545202954316728494
0.609000000000000430,-3.505076705731875908
0.610000000000000320,-3.465404464303946774
0.611000000000000432,-3.426183903609665293
0.612000000000000322,-3.387412642192855206
0.613000000000000433,-3.349088245368739170
0.614000000000000323,-3.311208227009076577
0.615000000000000435,-3.273770051307464790
0.616000000000000325,-3.236771134524509819
0.617000000000000437,-3.200208846712323751
0.618000000000000327,-3.164080513418102480
0.619000000000000439,-3.128383417366259245
0.620000000000000329,-3.093114800118978547
0.621000000000000441,-3.058271863714720151
0.622000000000000330,-3.023851772284534611
0.623000000000000442,-2.989851653645794194
0.624000000000000332,-2.956268600873301899
0.625000000000000444,-2.923099673847382896
0.626000000000000334,-2.890341900778941486
0.627000000000000446,-2.857992279711196737
0.628000000000000336,-2.826047779998073661
0.629000000000000448,-2.794505343759026594
0.630000000000000338,-2.763361887310348930
0.631000000000000449,-2.732614302572666354
0.632000000000000339,-2.702259458454828955
0.633000000000000451,-2.672294202213904235
0.634000000000000341,-2.642715360791463297
0.635000000000000453,-2.613519742125979484
0.636000000000000343,-2.584704136441471789
0.637000000000000455,-2.556265317512339319
0.638000000000000345,-2.528200043904508032
0.639000000000000457,-2.500505060192779183
0.640000000000000346,-2.473177098154699660
0.641000000000000458,-2.446212877940744157
0.642000000000000348,-2.419609109221159571
0.643000000000000460,-2.393362492309334399
0.644000000000000350,-2.367469719262056849
0.645000000000000462,-2.341927474956513322
0.646000000000000352,-2.316732438144431860
0.647000000000000464,-2.291881282483233750
0.648000000000000353,-2.267370677544654267
0.649000000000000465,-2.243197289800650918
0.650000000000000355,-2.219357783587115662
0.651000000000000467,-2.195848822045235238
0.652000000000000357,-2.172667068040975202
0.653000000000000469,-2.149809185062633077
0.654000000000000359,-2.127271838096866041
0.655000000000000471,-2.105051694483193181
0.656000000000000361,-2.083145424747393282
0.657000000000000473,-2.061549703413784851
