# C-amorph-1_CS-66579-AC
# h[nm],U(h)[kJ/mol]
0.149999999999999994,102.584653119415335709
0.150999999999999995,99.302427073628138032
0.151999999999999996,97.047083288667678858
0.152999999999999997,95.075361666755455303
0.153999999999999998,93.092107176945731339
0.154999999999999999,91.023459574821103502
0.156000000000000000,88.890009982094483121
0.157000000000000001,86.740400169576190592
0.158000000000000002,84.620191324045734405
0.159000000000000002,82.560305123934341509
0.160000000000000003,80.575513215179810800
0.161000000000000004,78.667406836542781434
0.162000000000000005,76.828760821775091472
0.163000000000000006,75.047722529418862791
0.164000000000000007,73.311148857469163431
0.165000000000000008,71.606912372388364929
0.166000000000000009,69.925252011455114598
0.167000000000000010,68.259353305538482459
0.168000000000000010,66.605370575117973431
0.169000000000000011,64.962088366822982266
0.170000000000000012,63.330385261714958745
0.171000000000000013,61.712623793689203922
0.172000000000000014,60.112052907296458670
0.173000000000000015,58.532277596063373437
0.174000000000000016,56.976825229028783326
0.175000000000000017,55.448819451520058976
0.176000000000000018,53.950759657105798794
0.177000000000000018,52.484395843652031033
0.178000000000000019,51.050684133854588254
0.179000000000000020,49.649806397240624278
0.180000000000000021,48.281237438153524977
0.181000000000000022,46.943844452540140821
0.182000000000000023,45.636005396315432847
0.183000000000000024,44.355735173678297656
0.184000000000000025,43.100810880212556242
0.185000000000000026,41.868889547211054492
0.186000000000000026,40.657613823399223918
0.187000000000000027,39.464702742201197339
0.188000000000000028,38.288026137503621271
0.189000000000000029,37.125662394025972901
0.190000000000000030,35.975940071253056374
0.191000000000000031,34.837464552873761647
0.192000000000000032,33.709131281427055171
0.193000000000000033,32.590127375763806583
0.194000000000000034,31.479923530860524750
0.195000000000000034,30.378258096417006584
0.196000000000000035,29.285115149822456004
0.197000000000000036,28.200698243805994991
0.198000000000000037,27.125401338780193328
0.199000000000000038,26.059778240207741362
0.200000000000000039,25.004511664567825591
0.201000000000000040,23.960382863000582176
0.202000000000000041,22.928242546264730350
0.203000000000000042,21.908983682929665804
0.204000000000000042,20.903516587688365291
0.205000000000000043,19.912746579894392340
0.206000000000000044,18.937554374399574897
0.207000000000000045,17.978779267205066361
0.208000000000000046,17.037205096465022791
0.209000000000000047,16.113548893734002121
0.210000000000000048,15.208452089514315375
0.211000000000000049,14.322474099501345535
0.212000000000000050,13.456088091759681902
0.213000000000000050,12.609678718747719728
0.214000000000000051,11.783541590060504944
0.215000000000000052,10.977884260520831106
0.216000000000000053,10.192828512476362235
0.217000000000000054,9.428413719659484826
0.218000000000000055,8.684601091681972918
0.219000000000000056,7.961278612256148968
0.220000000000000057,7.258266499773436742
0.221000000000000058,6.575323035285761009
0.222000000000000058,5.912150619673957053
0.223000000000000059,5.268401938428545428
0.224000000000000060,4.643686128659330947
0.225000000000000061,4.037574858434503255
0.226000000000000062,3.449608243134074659
0.227000000000000063,2.879300537052035036
0.228000000000000064,2.326145550915707183
0.229000000000000065,1.789621757263181845
0.230000000000000066,1.269197055726178691
0.231000000000000066,0.764333179218058434
0.232000000000000067,0.274489729867592847
0.233000000000000068,-0.200872159682340623
0.234000000000000069,-0.662286538208951114
0.235000000000000070,-1.110279714817268282
0.236000000000000071,-1.545367694553339888
0.237000000000000072,-1.968053957219363825
0.238000000000000073,-2.378827563344840801
0.239000000000000073,-2.778161569343509996
0.240000000000000074,-3.166511732508838328
0.241000000000000075,-3.544315485597540949
0.242000000000000076,-3.911991160259515432
0.243000000000000077,-4.269937438432307886
0.244000000000000078,-4.618533010972497799
0.245000000000000079,-4.958136423196267017
0.246000000000000080,-5.289086087599664587
0.247000000000000081,-5.611700444787540043
0.248000000000000081,-5.926278254519734112
0.249000000000000082,-6.233098999754445479
0.250000000000000111,-6.532423387603583542
0.251000000000000112,-6.824493932188575585
0.252000000000000113,-7.109535605479675446
0.253000000000000114,-7.387756543295917133
0.254000000000000115,-7.659348794727870668
0.255000000000000115,-7.924489104304039522
0.256000000000000116,-8.183339717248708567
0.257000000000000117,-8.436049199165061907
0.258000000000000118,-8.682753262416619933
0.259000000000000119,-8.923575592369733300
0.260000000000000120,-9.158628667496666154
0.261000000000000121,-9.388014568119878334
0.262000000000000122,-9.611825769305546885
0.263000000000000123,-9.830145914085109737
0.264000000000000123,-10.043050563801582342
0.265000000000000124,-10.250607922941203043
0.266000000000000125,-10.452879536324527265
0.267000000000000126,-10.649920956995011068
0.268000000000000127,-10.841782383561076486
0.269000000000000128,-11.028509266120531507
0.270000000000000129,-11.210142880228300299
0.271000000000000130,-11.386720868661646122
0.272000000000000131,-11.558277750993699584
0.273000000000000131,-11.724845401209691431
0.274000000000000132,-11.886453493793052161
0.275000000000000133,-12.043129918872905293
0.276000000000000134,-12.194901167163427758
0.277000000000000135,-12.341792685540319496
0.278000000000000136,-12.483829204194403673
0.279000000000000137,-12.621035036377149297
0.280000000000000138,-12.753434351810815528
0.281000000000000139,-12.881051424879274236
0.282000000000000139,-13.003910858744555767
0.283000000000000140,-13.122037786552038341
0.284000000000000141,-13.235458050894322923
0.285000000000000142,-13.344198362702181626
0.286000000000000143,-13.448286440721386015
0.287000000000000144,-13.547751132717976930
0.288000000000000145,-13.642622519533265546
0.289000000000000146,-13.732932003082714445
0.290000000000000147,-13.818712379363399023
0.291000000000000147,-13.899997897500645294
0.292000000000000148,-13.976824305829467221
0.293000000000000149,-14.049228885968059188
0.294000000000000150,-14.117250475802203269
0.295000000000000151,-14.180929482259395868
0.296000000000000152,-14.240307884711317143
0.297000000000000153,-14.295429229802868676
0.298000000000000154,-14.346338618465797055
0.299000000000000155,-14.393082685835043577
0.300000000000000155,-14.435709574747054518
0.301000000000000156,-14.474268903460494329
0.302000000000000157,-14.508811728203051317
0.303000000000000158,-14.539390501111080667
0.304000000000000159,-14.566059024094300867
0.305000000000000160,-14.588872399123385293
0.306000000000000161,-14.607886975406035646
0.307000000000000162,-14.623160293885840488
0.308000000000000163,-14.634751029468167971
0.309000000000000163,-14.642718931348900568
0.310000000000000164,-14.647124761794774628
0.311000000000000165,-14.648030233697948432
0.312000000000000166,-14.645497947203304889
0.313000000000000167,-14.639591325683344536
0.314000000000000168,-14.630374551313980902
0.315000000000000169,-14.617912500483521754
0.316000000000000170,-14.602270679247846275
0.317000000000000171,-14.583515159026182673
0.318000000000000171,-14.561712512714725776
0.319000000000000172,-14.536929751379179976
0.320000000000000173,-14.509234261671988264
0.321000000000000174,-14.478693744105777697
0.322000000000000175,-14.445376152301378170
0.323000000000000176,-14.409349633316178796
0.324000000000000177,-14.370682469147080695
0.325000000000000178,-14.329443019491383993
0.326000000000000179,-14.285699665839084460
0.327000000000000179,-14.239520756960464709
0.328000000000000180,-14.190974555844192651
0.329000000000000181,-14.140129188133414573
0.330000000000000182,-14.087052592099208681
0.331000000000000183,-14.031812470184570785
0.332000000000000184,-13.974476242145048133
0.333000000000000185,-13.915110999806762138
0.334000000000000186,-13.853783463456711189
0.335000000000000187,-13.790559939875411288
0.336000000000000187,-13.725506282017420290
0.337000000000000188,-13.658687850340646364
0.338000000000000189,-13.590169475781996411
0.339000000000000190,-13.520015424372934021
0.340000000000000191,-13.448289363485395498
0.341000000000000192,-13.375054329695691635
0.342000000000000193,-13.300372698251043957
0.343000000000000194,-13.224306154121318713
0.344000000000000195,-13.146915664615828945
0.345000000000000195,-13.068261453543666306
0.346000000000000196,-12.988402976893690166
0.347000000000000197,-12.907398900009022569
0.348000000000000198,-12.825307076229398362
0.349000000000000199,-12.742184526973343139
0.350000000000000200,-12.658087423231222601
0.351000000000000201,-12.573071068439077180
0.352000000000000202,-12.487189882702363519
0.353000000000000203,-12.400497388338060034
0.354000000000000203,-12.313046196702957857
0.355000000000000204,-12.224887996275297652
0.356000000000000205,-12.136073541956866606
0.357000000000000206,-12.046652645562000217
0.358000000000000207,-11.956674167459842906
0.359000000000000208,-11.866186009336185947
0.360000000000000209,-11.775235108040893905
0.361000000000000210,-11.683867430487138606
0.362000000000000210,-11.592127969568498003
0.363000000000000211,-11.500060741060281089
0.364000000000000212,-11.407708781471516346
0.365000000000000213,-11.315114146814142515
0.366000000000000214,-11.222317912256418282
0.367000000000000215,-11.129360172627617231
0.368000000000000216,-11.036280043741648171
0.369000000000000217,-10.943115664507331530
0.370000000000000218,-10.849904199793764192
0.371000000000000218,-10.756681844019318817
0.372000000000000219,-10.663483825433527130
0.373000000000000220,-10.570344411061419976
0.374000000000000221,-10.477296912280515073
0.375000000000000222,-10.384373691000906348
0.376000000000000223,-10.291606166419850155
0.377000000000000224,-10.199024822322368067
0.378000000000000225,-10.106659214900222565
0.379000000000000226,-10.014537981062042959
0.380000000000000226,-9.922688847208112506
0.381000000000000227,-9.831138638443695399
0.382000000000000228,-9.739913288205560349
0.383000000000000229,-9.649037848277005835
0.384000000000000230,-9.558536499166921274
0.385000000000000231,-9.468432560829629807
0.386000000000000232,-9.378748503702277972
0.387000000000000233,-9.289505960037566012
0.388000000000000234,-9.200725735509939440
0.389000000000000234,-9.112427821074287948
0.390000000000000235,-9.024631405056366518
0.391000000000000236,-8.937354885455309983
0.392000000000000237,-8.850615882438642501
0.393000000000000238,-8.764431251011297164
0.394000000000000239,-8.678817093840359931
0.395000000000000240,-8.593788774218083404
0.396000000000000241,-8.509360929146263075
0.397000000000000242,-8.425547482525441723
0.398000000000000242,-8.342361658433411264
0.399000000000000243,-8.259815994477524015
0.400000000000000244,-8.177922355206252547
0.401000000000000245,-8.096691945565954285
0.402000000000000246,-8.016135324389113137
0.403000000000000247,-7.936262417901046362
0.404000000000000248,-7.857082533232642163
0.405000000000000249,-7.778604371927004379
0.406000000000000250,-7.700836043428557431
0.407000000000000250,-7.623785078543600768
0.408000000000000251,-7.547458442861706196
0.409000000000000252,-7.471862550128082425
0.410000000000000253,-7.397003275557122670
0.411000000000000254,-7.322885969078145152
0.412000000000000255,-7.249515468504595717
0.413000000000000256,-7.176896112618490697
0.414000000000000257,-7.105031754162213886
0.415000000000000258,-7.033925772730363235
0.416000000000000258,-6.963581087554553406
0.417000000000000259,-6.894000170174614084
0.418000000000000260,-6.825185056989958809
0.419000000000000261,-6.757137361685233046
0.420000000000000262,-6.689858287524794278
0.421000000000000263,-6.623348639510906466
0.422000000000000264,-6.557608836400765639
0.423000000000000265,-6.492638922577945948
0.424000000000000266,-6.428438579774213402
0.425000000000000266,-6.365007138637690964
0.426000000000000267,-6.302343590144008800
0.427000000000000268,-6.240446596847149863
0.428000000000000269,-6.179314503966985228
0.429000000000000270,-6.118945350310960762
0.430000000000000271,-6.059336879027341638
0.431000000000000272,-6.000486548188011859
0.432000000000000273,-5.942391541198812632
0.433000000000000274,-5.885048777035815526
0.434000000000000274,-5.828454920305985887
0.435000000000000275,-5.772606391131112957
0.436000000000000276,-5.717499374853927563
0.437000000000000277,-5.663129831565566263
0.438000000000000278,-5.609493505453800211
0.439000000000000279,-5.556585933971611269
0.440000000000000280,-5.504402456825762791
0.441000000000000281,-5.452938224785348176
0.442000000000000282,-5.402188208310423789
0.443000000000000282,-5.352147206000801738
0.444000000000000283,-5.302809852865580709
0.445000000000000284,-5.254170628413790567
0.446000000000000285,-5.206223864566783099
0.447000000000000286,-5.158963753393345897
0.448000000000000287,-5.112384354668146003
0.449000000000000288,-5.066479603254821384
0.450000000000000289,-5.021243316314597749
0.451000000000000290,-4.976669200341817145
0.452000000000000290,-4.932750858027640462
0.453000000000000291,-4.889481794953344895
0.454000000000000292,-4.846855426114748511
0.455000000000000293,-4.804865082279290434
0.456000000000000294,-4.763504016177508404
0.457000000000000295,-4.722765408530564812
0.458000000000000296,-4.682642373915674838
0.459000000000000297,-4.643127966471261914
0.460000000000000298,-4.604215185443782055
0.461000000000000298,-4.565896980578171060
0.462000000000000299,-4.528166257353932522
0.463000000000000300,-4.491015882068919218
0.464000000000000301,-4.454438686772939526
0.465000000000000302,-4.418427474053300053
0.466000000000000303,-4.382975021674475613
0.467000000000000304,-4.348074087074050631
0.468000000000000305,-4.313717411717281180
0.469000000000000306,-4.279897725312372003
0.470000000000000306,-4.246607749888902106
0.471000000000000307,-4.213840203741511914
0.472000000000000308,-4.181587805241342437
0.473000000000000309,-4.149843276517366064
0.474000000000000310,-4.118599347010041711
0.475000000000000311,-4.087848756899576941
0.476000000000000312,-4.057584260411186250
0.477000000000000313,-4.027798628999556207
0.478000000000000314,-3.998484654414982575
0.479000000000000314,-3.969635151653471805
0.480000000000000315,-3.941242961793058441
0.481000000000000316,-3.913300954718794689
0.482000000000000317,-3.885802031738590845
0.483000000000000318,-3.858739128092305570
0.484000000000000319,-3.832105215356308214
0.485000000000000320,-3.805893303745863765
0.486000000000000321,-3.780096444317535109
0.487000000000000322,-3.754707731073899879
0.488000000000000322,-3.729720302972755697
0.489000000000000323,-3.705127345843124864
0.490000000000000324,-3.680922094210143936
0.491000000000000325,-3.657097833031110579
0.492000000000000326,-3.633647899344728760
0.493000000000000327,-3.610565683835807782
0.494000000000000328,-3.587844632317434446
0.495000000000000329,-3.565478247132735312
0.496000000000000330,-3.543460088478281644
0.497000000000000330,-3.521783775651193160
0.498000000000000331,-3.500442988221894147
0.499000000000000332,-3.479431467134582512
0.500000000000000333,-3.458743015737311133
0.501000000000000334,-3.438371500743618636
0.502000000000000335,-3.418310853127620508
0.503000000000000336,-3.398555068954453251
0.504000000000000337,-3.379098210147869707
0.505000000000000338,-3.359934405196835172
0.506000000000000338,-3.341057849802917978
0.507000000000000339,-3.322462807470195401
0.508000000000000340,-3.304143610039433465
0.509000000000000341,-3.286094658168261073
0.510000000000000342,-3.268310421758942930
0.511000000000000343,-3.250785440335455689
0.512000000000000344,-3.233514323371446064
0.513000000000000345,-3.216491750570651842
0.514000000000000346,-3.199712472101376548
0.515000000000000346,-3.183171308786473030
0.516000000000000347,-3.166863152250375180
0.517000000000000348,-3.150782965024668592
0.518000000000000349,-3.134925780613540880
0.519000000000000350,-3.119286703520610438
0.520000000000000351,-3.103860909238469468
0.521000000000000352,-3.088643644202297089
0.522000000000000353,-3.073630225708837482
0.523000000000000353,-3.058816041802066454
0.524000000000000354,-3.044196551126813866
0.525000000000000355,-3.029767282751524071
0.526000000000000356,-3.015523835961412047
0.527000000000000357,-3.001461880023199136
0.528000000000000358,-2.987577153922508888
0.529000000000000359,-2.973865466075151343
0.530000000000000360,-2.960322694013304279
0.531000000000000361,-2.946944784047719867
0.532000000000000361,-2.933727750906971021
0.533000000000000362,-2.920667677354784164
0.534000000000000363,-2.907760713786430529
0.535000000000000364,-2.895003077805157421
0.536000000000000365,-2.882391053779598700
0.537000000000000366,-2.869920992383113489
0.538000000000000367,-2.857589310115874692
0.539000000000000368,-2.845392488810707832
0.540000000000000369,-2.833327075123378780
0.541000000000000369,-2.821389680008294043
0.542000000000000370,-2.809576978180325924
0.543000000000000371,-2.797885707563583235
0.544000000000000372,-2.786312668727894959
0.545000000000000373,-2.774854724313726706
0.546000000000000374,-2.763508798446247638
0.547000000000000375,-2.752271876139256168
0.548000000000000376,-2.741141002689657657
0.549000000000000377,-2.730113283063110963
0.550000000000000377,-2.719185881271498850
0.551000000000000378,-2.708356019742865328
0.552000000000000379,-2.697620978684373672
0.553000000000000380,-2.686978095438909531
0.554000000000000381,-2.676424763835852261
0.555000000000000382,-2.665958433536605110
0.556000000000000383,-2.655576609375349229
0.557000000000000384,-2.645276850695597481
0.558000000000000385,-2.635056770682997929
0.559000000000000385,-2.624914035694882575
0.560000000000000386,-2.614846364587005922
0.561000000000000387,-2.604851528037944508
0.562000000000000388,-2.594927347871558432
0.563000000000000389,-2.585071696377957640
0.564000000000000390,-2.575282495633342883
0.565000000000000391,-2.565557716819139689
0.566000000000000392,-2.555895379540763290
0.567000000000000393,-2.546293551146409317
0.568000000000000393,-2.536750346046176663
0.569000000000000394,-2.527263925031881797
0.570000000000000395,-2.517832494597885162
0.571000000000000396,-2.508454306263188549
0.572000000000000397,-2.499127655895189370
0.573000000000000398,-2.489850883035265472
0.574000000000000399,-2.480622370226555073
0.575000000000000400,-2.471440542344125468
0.576000000000000401,-2.462303865927809809
0.577000000000000401,-2.453210848517961118
0.578000000000000402,-2.444160037994318024
0.579000000000000403,-2.435150021918209173
0.580000000000000404,-2.426179426878340539
0.581000000000000405,-2.417246917840300213
0.582000000000000406,-2.408351197500027130
0.583000000000000407,-2.399491005641379182
0.584000000000000408,-2.390665118498010777
0.585000000000000409,-2.381872348119679295
0.586000000000000409,-2.373111541743172292
0.587000000000000410,-2.364381581167982471
0.588000000000000411,-2.355681382136858737
0.589000000000000412,-2.347009893721393681
0.590000000000000413,-2.338366097712730074
0.591000000000000414,-2.329749008017534706
0.592000000000000415,-2.321157670059338596
0.593000000000000416,-2.312591160185327954
0.594000000000000417,-2.304048585078696032
0.595000000000000417,-2.295529081176671760
0.596000000000000418,-2.287031814094224291
0.597000000000000419,-2.278555978053629083
0.598000000000000420,-2.270100795319870635
0.599000000000000421,-2.261665515642004909
0.600000000000000422,-2.253249415700517844
0.601000000000000423,-2.244851798560740797
0.602000000000000424,-2.236471993132360669
0.603000000000000425,-2.228109353635094880
0.604000000000000425,-2.219763259070535621
0.605000000000000426,-2.211433112700217141
0.606000000000000427,-2.203118341529965551
0.607000000000000428,-2.194818395800457012
0.608000000000000429,-2.186532748484176114
0.609000000000000430,-2.178260894788580426
0.610000000000000431,-2.170002351665697216
