# C-amorph-1_BENZENE-AC
# h[nm],U(h)[kJ/mol]
0.149999999999999994,99.444845903839407697
0.150999999999999995,96.391942287187845295
0.151999999999999996,93.994919157911837715
0.152999999999999997,91.790221660830681571
0.153999999999999998,89.591416228472951389
0.154999999999999999,87.350906665997484879
0.156000000000000000,85.081423388270167152
0.157000000000000001,82.814194607021562433
0.158000000000000002,80.578882939823046172
0.159000000000000002,78.395840508652668177
0.160000000000000003,76.274849954824134102
0.161000000000000004,74.216871161293724413
0.162000000000000005,72.216815667388488009
0.163000000000000006,70.266306834933899950
0.164000000000000007,68.355948229394556392
0.165000000000000008,66.476947352077189635
0.166000000000000009,64.622115374757669315
0.167000000000000010,62.786344587772212833
0.168000000000000010,60.966692161570016140
0.169000000000000011,59.162196004099243396
0.170000000000000012,57.373531187919255103
0.171000000000000013,55.602592735995173712
0.172000000000000014,53.852067654608887892
0.173000000000000015,52.125038644037104518
0.174000000000000016,50.424645026511718982
0.175000000000000017,48.753813331993960389
0.176000000000000018,47.115060412143691337
0.177000000000000018,45.510365416325491594
0.178000000000000019,43.941102888695532158
0.179000000000000020,42.408027072571748306
0.180000000000000021,40.911296735883745157
0.181000000000000022,39.450530035872922952
0.182000000000000023,38.024879780481498415
0.183000000000000024,36.633120652936504769
0.184000000000000025,35.273741347304891747
0.185000000000000026,33.945035975253588845
0.186000000000000026,32.645190452550295390
0.187000000000000027,31.372360798296199391
0.188000000000000028,30.124741347730559227
0.189000000000000029,28.900621777573622495
0.190000000000000030,27.698432571895011733
0.191000000000000031,26.516779126124667698
0.192000000000000032,25.354465112310542452
0.193000000000000033,24.210506028216467911
0.194000000000000034,23.084134045489427933
0.195000000000000034,21.974795376725289486
0.196000000000000035,20.882141415480194979
0.197000000000000036,19.806014883068861820
0.198000000000000037,18.746432155378414564
0.199000000000000038,17.703562853895334683
0.200000000000000039,16.677707677706848699
0.201000000000000040,15.669275335549937012
0.202000000000000041,14.678759315519068096
0.203000000000000042,13.706715109800066799
0.204000000000000042,12.753738396482194872
0.205000000000000043,11.820444572748465717
0.206000000000000044,10.907449935287688803
0.207000000000000045,10.015354715626880733
0.208000000000000046,9.144728100684341499
0.209000000000000047,8.296095302187350029
0.210000000000000048,7.469926682347022506
0.211000000000000049,6.666628896762381018
0.212000000000000050,5.886537978197518228
0.213000000000000050,5.129914255811442558
0.214000000000000051,4.396938982730096868
0.215000000000000052,3.687712529645823079
0.216000000000000053,3.002253992532658344
0.217000000000000054,2.340502057740519337
0.218000000000000055,1.702316966894264372
0.219000000000000056,1.087483426456690605
0.220000000000000057,0.495714311860920465
0.221000000000000058,-0.073344976796184541
0.222000000000000058,-0.620111641904763311
0.223000000000000059,-1.145060223056445947
0.224000000000000060,-1.648717053663559584
0.225000000000000061,-2.131654543070238272
0.226000000000000062,-2.594485376883077343
0.227000000000000063,-3.037856717502759540
0.228000000000000064,-3.462444476379503921
0.229000000000000065,-3.868947719482848324
0.230000000000000066,-4.258083257970005420
0.231000000000000066,-4.630580467134646661
0.232000000000000067,-4.987176368464773191
0.233000000000000068,-5.328611002066190316
0.234000000000000069,-5.655623109825368644
0.235000000000000070,-5.968946143491295153
0.236000000000000071,-6.269304606333834684
0.237000000000000072,-6.557410732165965150
0.238000000000000073,-6.833961501265832794
0.239000000000000073,-7.099635989068898922
0.240000000000000074,-7.355093040383333225
0.241000000000000075,-7.600969259270085487
0.242000000000000076,-7.837877302584066008
0.243000000000000077,-8.066404463452393259
0.244000000000000078,-8.287111529628582218
0.245000000000000079,-8.500531900668621077
0.246000000000000080,-8.707170947187824694
0.247000000000000081,-8.907505595040856150
0.248000000000000081,-9.101984117085697434
0.249000000000000082,-9.291026115215357706
0.250000000000000111,-9.475022675538999906
0.251000000000000112,-9.654336679938563037
0.252000000000000113,-9.829303257696281548
0.253000000000000114,-10.000230361455253458
0.254000000000000115,-10.167399452425577522
0.255000000000000115,-10.331066280458344409
0.256000000000000116,-10.491461745367407943
0.257000000000000117,-10.648792826668019629
0.258000000000000118,-10.803243569709547245
0.259000000000000119,-10.954976116997338309
0.260000000000000120,-11.104131774315991521
0.261000000000000121,-11.250832102074401320
0.262000000000000122,-11.395180023087466026
0.263000000000000123,-11.537260938781793485
0.264000000000000123,-11.677143846561813589
0.265000000000000124,-11.814882451791863360
0.266000000000000125,-11.950516268538757814
0.267000000000000126,-12.084071703873835446
0.268000000000000127,-12.215563121154426440
0.269000000000000128,-12.344993878288480715
0.270000000000000129,-12.472357337534793587
0.271000000000000130,-12.597637843903497057
0.272000000000000131,-12.720811669697518198
0.273000000000000131,-12.841847923177017066
0.274000000000000132,-12.960709419735119141
0.275000000000000133,-13.077353514346862440
0.276000000000000134,-13.191732894394140985
0.277000000000000135,-13.303796332279372194
0.278000000000000136,-13.413489397521775714
0.279000000000000137,-13.520755128282450741
0.280000000000000138,-13.625534662490597526
0.281000000000000139,-13.727767828944553941
0.282000000000000139,-13.827393698938823974
0.283000000000000140,-13.924351099124098852
0.284000000000000141,-14.018579086442395365
0.285000000000000142,-14.110017386095886849
0.286000000000000143,-14.198606793606538545
0.287000000000000144,-14.284289542105948811
0.288000000000000145,-14.367009636063007960
0.289000000000000146,-14.446713152709850903
0.290000000000000147,-14.523348512469272720
0.291000000000000147,-14.596866719715896110
0.292000000000000148,-14.667221575224308694
0.293000000000000149,-14.734369861667497403
0.294000000000000150,-14.798271503531832849
0.295000000000000151,-14.858889702810092359
0.296000000000000152,-14.916191051822618618
0.297000000000000153,-14.970145624499787473
0.298000000000000154,-15.020727047437024027
0.299000000000000155,-15.067912552007200588
0.300000000000000155,-15.111683008785252724
0.301000000000000156,-15.152022945506626428
0.302000000000000157,-15.188920549745461130
0.303000000000000158,-15.222367657460186052
0.304000000000000159,-15.252359728514903736
0.305000000000000160,-15.278895810243350084
0.306000000000000161,-15.301978490080676565
0.307000000000000162,-15.321613838245463413
0.308000000000000163,-15.337811341411121902
0.309000000000000163,-15.350583828262935882
0.310000000000000164,-15.359947387793804197
0.311000000000000165,-15.365921281148946065
0.312000000000000166,-15.368527847787632368
0.313000000000000167,-15.367792406688403517
0.314000000000000168,-15.363743153283172305
0.315000000000000169,-15.356411052765864156
0.316000000000000170,-15.345829730382257949
0.317000000000000171,-15.332035359269507779
0.318000000000000171,-15.315066546377272161
0.319000000000000172,-15.294964216966828729
0.320000000000000173,-15.271771498149863788
0.321000000000000174,-15.245533601895839837
0.322000000000000175,-15.216297707904780978
0.323000000000000176,-15.184112846711888878
0.324000000000000177,-15.149029783361125823
0.325000000000000178,-15.111100901956811882
0.326000000000000179,-15.070380091375952247
0.327000000000000179,-15.026922632398186153
0.328000000000000180,-14.980785086486378077
0.329000000000000181,-14.932025186428111496
0.330000000000000182,-14.880701729026082347
0.331000000000000183,-14.826874470005691364
0.332000000000000184,-14.770604021288017194
0.333000000000000185,-14.711951750758624158
0.334000000000000186,-14.650979684645301759
0.335000000000000187,-14.587750412601735661
0.336000000000000187,-14.522326995579124542
0.337000000000000188,-14.454772876553523275
0.338000000000000189,-14.385151794163586914
0.339000000000000190,-14.313527699301300089
0.340000000000000191,-14.239964674686373058
0.341000000000000192,-14.164526857445185470
0.342000000000000193,-14.087278364704541644
0.343000000000000194,-14.008283222202328133
0.344000000000000195,-13.927605295907900640
0.345000000000000195,-13.845308226638522342
0.346000000000000196,-13.761455367650157200
0.347000000000000197,-13.676109725175283671
0.348000000000000198,-13.589333901874306676
0.349000000000000199,-13.501190043161980014
0.350000000000000200,-13.411739786365668436
0.351000000000000201,-13.321044212667834117
0.352000000000000202,-13.229163801781609777
0.353000000000000203,-13.136158389305006011
0.354000000000000203,-13.042087126696184640
0.355000000000000204,-12.947008443809886913
0.356000000000000205,-12.850980013932954193
0.357000000000000206,-12.754058721255031372
0.358000000000000207,-12.656300630708761545
0.359000000000000208,-12.557760960113107274
0.360000000000000209,-12.458494054551852770
0.361000000000000210,-12.358553362919128205
0.362000000000000210,-12.257991416562980191
0.363000000000000211,-12.156859809957891727
0.364000000000000212,-12.055209183337201040
0.365000000000000213,-11.953089207216095247
0.366000000000000214,-11.850548568736657629
0.367000000000000215,-11.747634959766330098
0.368000000000000216,-11.644395066682188045
0.369000000000000217,-11.540874561773774687
0.370000000000000218,-11.437118096198254591
0.371000000000000218,-11.333169294422356543
0.372000000000000219,-11.229070750086799890
0.373000000000000220,-11.124864023229765309
0.374000000000000221,-11.020589638807281929
0.375000000000000222,-10.916287086449395716
0.376000000000000223,-10.811994821392554300
0.377000000000000224,-10.707750266529700411
0.378000000000000225,-10.603589815520960471
0.379000000000000226,-10.499548836909346150
0.380000000000000226,-10.395661679187162107
0.381000000000000227,-10.291961676760205791
0.382000000000000228,-10.188481156758511403
0.383000000000000229,-10.085251446643660245
0.384000000000000230,-9.982302882564093593
0.385000000000000231,-9.879664818411704630
0.386000000000000232,-9.777365635533957544
0.387000000000000233,-9.675432753057656043
0.388000000000000234,-9.573892638781675402
0.389000000000000234,-9.472770820597697039
0.390000000000000235,-9.372091898399030896
0.391000000000000236,-9.271879556439547088
0.392000000000000237,-9.172156576105548353
0.393000000000000238,-9.072944849065432749
0.394000000000000239,-8.974265390762756311
0.395000000000000240,-8.876138354220142190
0.396000000000000241,-8.778583044122482804
0.397000000000000242,-8.681617931149313350
0.398000000000000242,-8.585260666527473106
0.399000000000000243,-8.489528096776473021
0.400000000000000244,-8.394436278619943792
0.401000000000000245,-8.300000494038187071
0.402000000000000246,-8.206235265437573645
0.403000000000000247,-8.113154370913790103
0.404000000000000248,-8.020770859587191381
0.405000000000000249,-7.929097066989394982
0.406000000000000250,-7.838144630481312269
0.407000000000000250,-7.747924504683957991
0.408000000000000251,-7.658446976904128789
0.409000000000000252,-7.569721682538267160
0.410000000000000253,-7.481757620438446388
0.411000000000000254,-7.394563168225575467
0.412000000000000255,-7.308146097535574981
0.413000000000000256,-7.222513589185266092
0.414000000000000257,-7.137672248245324980
0.415000000000000258,-7.053628119008701347
0.416000000000000258,-6.970386699843354350
0.417000000000000259,-6.887952957919080355
0.418000000000000260,-6.806331343798888156
0.419000000000000261,-6.725525805885844477
0.420000000000000262,-6.645539804717271792
0.421000000000000263,-6.566376327098564225
0.422000000000000264,-6.488037900069491215
0.423000000000000265,-6.410526604696542563
0.424000000000000266,-6.333844089685406686
0.425000000000000266,-6.257991584808015872
0.426000000000000267,-6.182969914139301970
0.427000000000000268,-6.108779509099209193
0.428000000000000269,-6.035420421295910387
0.429000000000000270,-5.962892335166726454
0.430000000000000271,-5.891194580413530169
0.431000000000000272,-5.820326144229936105
0.432000000000000273,-5.750285683317893692
0.433000000000000274,-5.681071535691667229
0.434000000000000274,-5.612681732267512658
0.435000000000000275,-5.545114008237751690
0.436000000000000276,-5.478365814228234321
0.437000000000000277,-5.412434327238307752
0.438000000000000278,-5.347316461363016415
0.439000000000000279,-5.283008878297259514
0.440000000000000280,-5.219507997621882112
0.441000000000000281,-5.156810006872106555
0.442000000000000282,-5.094910871388784734
0.443000000000000282,-5.033806343953094675
0.444000000000000283,-4.973491974205735744
0.445000000000000284,-4.913963117851642082
0.446000000000000285,-4.855214945651408875
0.447000000000000286,-4.797242452201105678
0.448000000000000287,-4.740040464501731776
0.449000000000000288,-4.683603650320355527
0.450000000000000289,-4.627926526344547042
0.451000000000000290,-4.573003466132218975
0.452000000000000290,-4.518828707858949301
0.453000000000000291,-4.465396361864899077
0.454000000000000292,-4.412700418003741909
0.455000000000000293,-4.360734752795851321
0.456000000000000294,-4.309493136388320877
0.457000000000000295,-4.258969239324254197
0.458000000000000296,-4.209156639123994736
0.459000000000000297,-4.160048826680901257
0.460000000000000298,-4.111639212474405447
0.461000000000000298,-4.063921132603109498
0.462000000000000299,-4.016887854640728506
0.463000000000000300,-3.970532583317679443
0.464000000000000301,-3.924848466031231276
0.465000000000000302,-3.879828598187115229
0.466000000000000303,-3.835466028375440040
0.467000000000000304,-3.791753763383915121
0.468000000000000305,-3.748684773051342400
0.469000000000000306,-3.706251994964234964
0.470000000000000306,-3.664448338999674259
0.471000000000000307,-3.623266691717191179
0.472000000000000308,-3.582699920602838262
0.473000000000000309,-3.542740878168206820
0.474000000000000310,-3.503382405907515817
0.475000000000000311,-3.464617338115562717
0.476000000000000312,-3.426438505569656456
0.477000000000000313,-3.388838739078204210
0.478000000000000314,-3.351810872899060545
0.479000000000000314,-3.315347748030424757
0.480000000000000315,-3.279442215377117442
0.481000000000000316,-3.244087138795162417
0.482000000000000317,-3.209275398017374048
0.483000000000000318,-3.174999891462822355
0.484000000000000319,-3.141253538932851974
0.485000000000000320,-3.108029284196478947
0.486000000000000321,-3.075320097467743707
0.487000000000000322,-3.043118977777784284
0.488000000000000322,-3.011418955244170359
0.489000000000000323,-2.980213093240190680
0.490000000000000324,-2.949494490466556762
0.491000000000000325,-2.919256282928155422
0.492000000000000326,-2.889491645818203835
0.493000000000000327,-2.860193795312409915
0.494000000000000328,-2.831355990275450374
0.495000000000000329,-2.802971533882185895
0.496000000000000330,-2.775033775155942628
0.497000000000000330,-2.747536110426187506
0.498000000000000331,-2.720471984707803603
0.499000000000000332,-2.693834893004276587
0.500000000000000333,-2.667618381536899452
0.501000000000000334,-2.641816048902184910
0.502000000000000335,-2.616421547159575312
0.503000000000000336,-2.591428582851553308
0.504000000000000337,-2.566830917958117020
0.505000000000000338,-2.542622370787690933
0.506000000000000338,-2.518796816806358141
0.507000000000000339,-2.495348189407364803
0.508000000000000340,-2.472270480622746458
0.509000000000000341,-2.449557741778952469
0.510000000000000342,-2.427204084098209869
0.511000000000000343,-2.405203679247433168
0.512000000000000344,-2.383550759836379207
0.513000000000000345,-2.362239619866728368
0.514000000000000346,-2.341264615133777927
0.515000000000000346,-2.320620163582292506
0.516000000000000347,-2.300300745618136133
0.517000000000000348,-2.280300904377245530
0.518000000000000349,-2.260615245953349284
0.519000000000000350,-2.241238439586017872
0.520000000000000351,-2.222165217810404769
0.521000000000000352,-2.203390376570107723
0.522000000000000353,-2.184908775294495342
0.523000000000000353,-2.166715336941839709
0.524000000000000354,-2.148805048009578833
0.525000000000000355,-2.131172958512927984
0.526000000000000356,-2.113814181933101999
0.527000000000000357,-2.096723895136379578
0.528000000000000358,-2.079897338265097151
0.529000000000000359,-2.063329814601824186
0.530000000000000360,-2.047016690407736483
0.531000000000000361,-2.030953394736333628
0.532000000000000361,-2.015135419223507363
0.533000000000000362,-1.999558317855034018
0.534000000000000363,-1.984217706712447127
0.535000000000000364,-1.969109263698265000
0.536000000000000365,-1.954228728241556468
0.537000000000000366,-1.939571900984702335
0.538000000000000367,-1.925134643452274918
0.539000000000000368,-1.910912877702925616
0.540000000000000369,-1.896902585965038579
0.541000000000000369,-1.883099810257076401
0.542000000000000370,-1.869500651993313056
0.543000000000000371,-1.856101271575772316
0.544000000000000372,-1.842897887973112603
0.545000000000000373,-1.829886778287172389
0.546000000000000374,-1.817064277307868236
0.547000000000000375,-1.804426777057136944
0.548000000000000376,-1.791970726322600127
0.549000000000000377,-1.779692630181544333
0.550000000000000377,-1.767589049515851496
0.551000000000000378,-1.755656600518511468
0.552000000000000379,-1.743891954192231752
0.553000000000000380,-1.732291835840768623
0.554000000000000381,-1.720853024553462562
0.555000000000000382,-1.709572352683565111
0.556000000000000383,-1.698446705320779015
0.557000000000000384,-1.687473019758600756
0.558000000000000385,-1.676648284956841595
0.559000000000000385,-1.665969540999865384
0.560000000000000386,-1.655433878550904847
0.561000000000000387,-1.645038438302954376
0.562000000000000388,-1.634780410426598607
0.563000000000000389,-1.624657034015188461
0.564000000000000390,-1.614665596527745661
0.565000000000000391,-1.604803433229964327
0.566000000000000392,-1.595067926633646049
0.567000000000000393,-1.585456505934942584
0.568000000000000393,-1.575966646451683273
0.569000000000000394,-1.566595869060151136
0.570000000000000395,-1.557341739631572297
0.571000000000000396,-1.548201868468622733
0.572000000000000397,-1.539173909742251656
0.573000000000000398,-1.530255560929028036
0.574000000000000399,-1.521444562249351762
0.575000000000000400,-1.512738696106690872
0.576000000000000401,-1.504135786528131291
0.577000000000000401,-1.495633698606463335
0.578000000000000402,-1.487230337943991287
0.579000000000000403,-1.478923650098281417
0.580000000000000404,-1.470711620030076050
0.581000000000000405,-1.462592271553518675
0.582000000000000406,-1.454563666788884380
0.583000000000000407,-1.446623905618003691
0.584000000000000408,-1.438771125142513263
0.585000000000000409,-1.431003499145099944
0.586000000000000409,-1.423319237553900773
0.587000000000000410,-1.415716585910166359
0.588000000000000411,-1.408193824839348629
0.589000000000000412,-1.400749269525722429
0.590000000000000413,-1.393381269190654859
0.591000000000000414,-1.386088206574651149
0.592000000000000415,-1.378868497423270334
0.593000000000000416,-1.371720589977006632
0.594000000000000417,-1.364642964465237807
0.595000000000000417,-1.357634132604332411
0.596000000000000418,-1.350692637099970783
0.597000000000000419,-1.343817051153800790
0.598000000000000420,-1.337005977974447424
0.599000000000000421,-1.330258050292989713
0.600000000000000422,-1.323571929882931375
0.601000000000000423,-1.316946307084745360
0.602000000000000424,-1.310379900335018055
0.603000000000000425,-1.303871455700285953
0.604000000000000425,-1.297419746415541919
0.605000000000000426,-1.291023572427510535
0.606000000000000427,-1.284681759942716273
0.607000000000000428,-1.278393160980310528
0.608000000000000429,-1.272156652929822274
0.609000000000000430,-1.265971138113676231
0.610000000000000431,-1.259835543354686616
