# C-amorph-1_THYMINE
# h[nm],U(h)[kJ/mol]
0.149999999999999994,113.274610503323657440
0.150999999999999995,109.730169454581840682
0.151999999999999996,106.863494021794437572
0.152999999999999997,104.190980028194800866
0.153999999999999998,101.527848599131544916
0.154999999999999999,98.833194406399087484
0.156000000000000000,96.124675258982350101
0.157000000000000001,93.434910715701917638
0.158000000000000002,90.791900816641174288
0.159000000000000002,88.212517100555501770
0.160000000000000003,85.702490721232862825
0.161000000000000004,83.259108698963785855
0.162000000000000005,80.874564946487467409
0.163000000000000006,78.538962036522917742
0.164000000000000007,76.242568286924296217
0.165000000000000008,73.977266381186865374
0.166000000000000009,71.737292223638732480
0.167000000000000010,69.519425910694621962
0.168000000000000010,67.322804953124361305
0.169000000000000011,65.148510658741727752
0.170000000000000012,62.999048256660259426
0.171000000000000013,60.877809174427589767
0.172000000000000014,58.788574663654856067
0.173000000000000015,56.735095789800524813
0.174000000000000016,54.720766164042856872
0.175000000000000017,52.748390356646538635
0.176000000000000018,50.820041948889198125
0.177000000000000018,48.936999779526949794
0.178000000000000019,47.099748265650625001
0.179000000000000020,45.308026965428616961
0.180000000000000021,43.560915166725564518
0.181000000000000022,41.856938726911728565
0.182000000000000023,40.194188272603284418
0.183000000000000024,38.570439915739697767
0.184000000000000025,36.983271662803176127
0.185000000000000026,35.430170563880743373
0.186000000000000026,33.908627296450895017
0.187000000000000027,32.416216272212885485
0.188000000000000028,30.950660487776577412
0.189000000000000029,29.509881223289603724
0.190000000000000030,28.092033349789026886
0.191000000000000031,26.695527464830881570
0.192000000000000032,25.319040367613620646
0.193000000000000033,23.961515539944635123
0.194000000000000034,22.622155346686888322
0.195000000000000034,21.300406634582888188
0.196000000000000035,19.995941314077963824
0.197000000000000036,18.708633373976557124
0.198000000000000037,17.438533619108937955
0.199000000000000038,16.185843249183996306
0.200000000000000039,14.950887222368001161
0.201000000000000040,13.734088177129468278
0.202000000000000041,12.535941525723696799
0.203000000000000042,11.356992185837983200
0.204000000000000042,10.197813285463924515
0.205000000000000043,9.058987061003097807
0.206000000000000044,7.941088070088381023
0.207000000000000045,6.844668758146495335
0.208000000000000046,5.770247350415111498
0.209000000000000047,4.718297987750902145
0.210000000000000048,3.689242983735630865
0.211000000000000049,2.683447050840472414
0.212000000000000050,1.701213323261047794
0.213000000000000050,0.742780992058669320
0.214000000000000051,-0.191675636928789028
0.215000000000000052,-1.102046851557407114
0.216000000000000053,-1.988286192576229849
0.217000000000000054,-2.850408239689549372
0.218000000000000055,-3.688485689882060825
0.219000000000000056,-4.502645880908286991
0.220000000000000057,-5.293066899238957568
0.221000000000000058,-6.059973397564808906
0.222000000000000058,-6.803632232636505073
0.223000000000000059,-7.524348020105470880
0.224000000000000060,-8.222458689408792765
0.225000000000000061,-8.898331108812161716
0.226000000000000062,-9.552356838637621195
0.227000000000000063,-10.184948059556560906
0.228000000000000064,-10.796533712678499484
0.229000000000000065,-11.387555879040240470
0.230000000000000066,-11.958466417989470187
0.231000000000000066,-12.509723876843057866
0.232000000000000067,-13.041790678037472162
0.233000000000000068,-13.555130584727759668
0.234000000000000069,-14.050206441369379462
0.235000000000000070,-14.527478182168746201
0.236000000000000071,-14.987401097342788248
0.237000000000000072,-15.430424344819133609
0.238000000000000073,-15.856989693262983465
0.239000000000000073,-16.267530481070512138
0.240000000000000074,-16.662470775158727321
0.241000000000000075,-17.042224712944701537
0.242000000000000076,-17.407196010789924401
0.243000000000000077,-17.757777622336092804
0.244000000000000078,-18.094351530529372951
0.245000000000000079,-18.417288657679041108
0.246000000000000080,-18.726948878585581326
0.247000000000000081,-19.023681122569911395
0.248000000000000081,-19.307823551108427296
0.249000000000000082,-19.579703798703594231
0.250000000000000111,-19.839639265575254257
0.251000000000000112,-20.087937451722776672
0.252000000000000113,-20.324896322871257581
0.253000000000000114,-20.550804699756604066
0.254000000000000115,-20.765942663122284984
0.255000000000000115,-20.970581967678548097
0.256000000000000116,-21.164986459112622441
0.257000000000000117,-21.349412489027834283
0.258000000000000118,-21.524109323427925489
0.259000000000000119,-21.689319541049663087
0.260000000000000120,-21.845279418479595535
0.261000000000000121,-21.992219299569519819
0.262000000000000122,-22.130363947192492446
0.263000000000000123,-22.259932875854950396
0.264000000000000123,-22.381140664106855098
0.265000000000000124,-22.494197246068278417
0.266000000000000125,-22.599308181724250488
0.267000000000000126,-22.696674905928773569
0.268000000000000127,-22.786494956310072268
0.269000000000000128,-22.868962180481936741
0.270000000000000129,-22.944266923145598014
0.271000000000000130,-23.012596193815159751
0.272000000000000131,-23.074133816019084975
0.273000000000000131,-23.129060558924901869
0.274000000000000132,-23.177554252404888757
0.275000000000000133,-23.219789886611806651
0.276000000000000134,-23.255939697165629809
0.277000000000000135,-23.286173237068467756
0.278000000000000136,-23.310657436467732140
0.279000000000000137,-23.329556651377295395
0.280000000000000138,-23.343032702446901538
0.281000000000000139,-23.351244904841234273
0.282000000000000139,-23.354350090254065719
0.283000000000000140,-23.352502622041832581
0.284000000000000141,-23.345854404414012606
0.285000000000000142,-23.334554886568458443
0.286000000000000143,-23.318751062607383062
0.287000000000000144,-23.298587468015313107
0.288000000000000145,-23.274206173426030375
0.289000000000000146,-23.245746776349598406
0.290000000000000147,-23.213346391476154196
0.291000000000000147,-23.177139640118564756
0.292000000000000148,-23.137258639303489360
0.293000000000000149,-23.093832990968461871
0.294000000000000150,-23.046989771673487724
0.295000000000000151,-22.996853523187720469
0.296000000000000152,-22.943546244266478595
0.297000000000000153,-22.887187383891127723
0.298000000000000154,-22.827893836203365652
0.299000000000000155,-22.765779937327881299
0.300000000000000155,-22.700957464241298567
0.301000000000000156,-22.633535635812918940
0.302000000000000157,-22.563621116111676201
0.303000000000000158,-22.491318020046254134
0.304000000000000159,-22.416727921379319355
0.305000000000000160,-22.339949863133682584
0.306000000000000161,-22.261080370387162475
0.307000000000000162,-22.180213465434249542
0.308000000000000163,-22.097440685275358874
0.309000000000000163,-22.012851101380260133
0.310000000000000164,-21.926531341658893837
0.311000000000000165,-21.838565614561563422
0.312000000000000166,-21.749035735221088572
0.313000000000000167,-21.658021153541348269
0.314000000000000168,-21.565598984129785265
0.315000000000000169,-21.471844037966555163
0.316000000000000170,-21.376828855698459364
0.317000000000000171,-21.280623742443054880
0.318000000000000171,-21.183296803986110035
0.319000000000000172,-21.084913984254917807
0.320000000000000173,-20.985539103949196971
0.321000000000000174,-20.885233900212259783
0.322000000000000175,-20.784058067226077071
0.323000000000000176,-20.682069297615736758
0.324000000000000177,-20.579323324551165086
0.325000000000000178,-20.475873964436271280
0.326000000000000179,-20.371773160079705178
0.327000000000000179,-20.267071024243904276
0.328000000000000180,-20.161815883473416022
0.329000000000000181,-20.056054322107591759
0.330000000000000182,-19.949831226386294247
0.331000000000000183,-19.843189828562238120
0.332000000000000184,-19.736171750937579361
0.333000000000000185,-19.628817049746992041
0.334000000000000186,-19.521164258813907821
0.335000000000000187,-19.413250432911244303
0.336000000000000187,-19.305111190762367812
0.337000000000000188,-19.196780757622363467
0.338000000000000189,-19.088292007384396243
0.339000000000000190,-18.979676504160050143
0.340000000000000191,-18.870964543286664394
0.341000000000000192,-18.762185191719229493
0.342000000000000193,-18.653366327767791688
0.343000000000000194,-18.544534680145932981
0.344000000000000195,-18.435715866298760801
0.345000000000000195,-18.326934429983385400
0.346000000000000196,-18.218213878077467172
0.347000000000000197,-18.109576716595309875
0.348000000000000198,-18.001044485893871183
0.349000000000000199,-17.892637795053936145
0.350000000000000200,-17.784376355424992511
0.351000000000000201,-17.676279013324446510
0.352000000000000202,-17.568363781884787755
0.353000000000000203,-17.460647872044525286
0.354000000000000203,-17.353147722681057985
0.355000000000000204,-17.245879029885330169
0.356000000000000205,-17.138856775380837405
0.357000000000000206,-17.032095254090577896
0.358000000000000207,-16.925608100857523652
0.359000000000000208,-16.819408316325947794
0.360000000000000209,-16.713508291992013710
0.361000000000000210,-16.607919834433381823
0.362000000000000210,-16.502654188729003693
0.363000000000000211,-16.397722061081033473
0.364000000000000212,-16.293133640651962679
0.365000000000000213,-16.188898620630784109
0.366000000000000214,-16.085026218542914478
0.367000000000000215,-15.981525195819006768
0.368000000000000216,-15.878403876638762071
0.369000000000000217,-15.775670166065840050
0.370000000000000218,-15.673331567490890848
0.371000000000000218,-15.571395199399683307
0.372000000000000219,-15.469867811483728914
0.373000000000000220,-15.368755800111141951
0.374000000000000221,-15.268065223175351974
0.375000000000000222,-15.167801814339577859
0.376000000000000223,-15.067970996694981523
0.377000000000000224,-14.968577895850298631
0.378000000000000225,-14.869627352470947912
0.379000000000000226,-14.771123934285110835
0.380000000000000226,-14.673071947574701568
0.381000000000000227,-14.575475448168322856
0.382000000000000228,-14.478338251953829285
0.383000000000000229,-14.381663944927254306
0.384000000000000230,-14.285455892794900024
0.385000000000000231,-14.189717250145326588
0.386000000000000232,-14.094450969207162672
0.387000000000000233,-13.999659808208846812
0.388000000000000234,-13.905346339355698859
0.389000000000000234,-13.811512956439836231
0.390000000000000235,-13.718161882097433590
0.391000000000000236,-13.625295174728254466
0.392000000000000237,-13.532914735091249980
0.393000000000000238,-13.441022312590353849
0.394000000000000239,-13.349619511263515648
0.395000000000000240,-13.258707795488263059
0.396000000000000241,-13.168288495416362593
0.397000000000000242,-13.078362812149626038
0.398000000000000242,-12.988931822669083971
0.399000000000000243,-12.899996484528628571
0.400000000000000244,-12.811557640324386043
0.401000000000000245,-12.723616021950604704
0.402000000000000246,-12.636172254652219493
0.403000000000000247,-12.549226860884072465
0.404000000000000248,-12.462780263986484641
0.405000000000000249,-12.376832791686329216
0.406000000000000250,-12.291384679432431071
0.407000000000000250,-12.206436073573923906
0.408000000000000251,-12.121987034389594129
0.409000000000000252,-12.038037538976201546
0.410000000000000253,-11.954587484003155851
0.411000000000000254,-11.871636688340824861
0.412000000000000255,-11.789184895569297495
0.413000000000000256,-11.707231776374255716
0.414000000000000257,-11.625776930836059009
0.415000000000000258,-11.544819890618263969
0.416000000000000258,-11.464360121061085707
0.417000000000000259,-11.384397023185353959
0.418000000000000260,-11.304929935612104686
0.419000000000000261,-11.225958136402709897
0.420000000000000262,-11.147480844824254831
0.421000000000000263,-11.069497223044605150
0.422000000000000264,-10.992006377761335045
0.423000000000000265,-10.915007361768507721
0.424000000000000266,-10.838499175465170055
0.425000000000000266,-10.762480768309021784
0.426000000000000267,-10.686951040218687581
0.427000000000000268,-10.611908842927821439
0.428000000000000269,-10.537352981293953036
0.429000000000000270,-10.463282214564992856
0.430000000000000271,-10.389695257606048173
0.431000000000000272,-10.316590782088999489
0.432000000000000273,-10.243967417647297680
0.433000000000000274,-10.171823752998076174
0.434000000000000274,-10.100158337033739997
0.435000000000000275,-10.028969679884919941
0.436000000000000276,-9.958256253956655257
0.437000000000000277,-9.888016494939396495
0.438000000000000278,-9.818248802796523123
0.439000000000000279,-9.748951542729816566
0.440000000000000280,-9.680123046124162300
0.441000000000000281,-9.611761611472863009
0.442000000000000282,-9.543865505284726325
0.443000000000000282,-9.476432962973918350
0.444000000000000283,-9.409462189733693194
0.445000000000000284,-9.342951361394932874
0.446000000000000285,-9.276898625270147747
0.447000000000000286,-9.211302100984102736
0.448000000000000287,-9.146159881291330507
0.449000000000000288,-9.081470032881593824
0.450000000000000289,-9.017230597173611528
0.451000000000000290,-8.953439591097719585
0.452000000000000290,-8.890095007867959254
0.453000000000000291,-8.827194817743968969
0.454000000000000292,-8.764736968783164883
0.455000000000000293,-8.702719387583471189
0.456000000000000294,-8.641139980017007005
0.457000000000000295,-8.579996631954964315
0.458000000000000296,-8.519287209983932740
0.459000000000000297,-8.459009562113909197
0.460000000000000298,-8.399161518478127419
0.461000000000000298,-8.339740892024938290
0.462000000000000299,-8.280745479201879533
0.463000000000000300,-8.222173060631929431
0.464000000000000301,-8.164021401782214582
0.465000000000000302,-8.106288253625155704
0.466000000000000303,-8.048971353292078135
0.467000000000000304,-7.992068424719410480
0.468000000000000305,-7.935577179287468752
0.469000000000000306,-7.879495316451816223
0.470000000000000306,-7.823820524367292251
0.471000000000000307,-7.768550480504555544
0.472000000000000308,-7.713682852259333700
0.473000000000000309,-7.659215297554178292
0.474000000000000310,-7.605145465432793905
0.475000000000000311,-7.551470996646872713
0.476000000000000312,-7.498189524235503889
0.477000000000000313,-7.445298674096915370
0.478000000000000314,-7.392796065552674989
0.479000000000000314,-7.340679311904301230
0.480000000000000315,-7.288946020982107754
0.481000000000000316,-7.237593795686398046
0.482000000000000317,-7.186620234520825434
0.483000000000000318,-7.136022932117971784
0.484000000000000319,-7.085799479757016961
0.485000000000000320,-7.035947465873538142
0.486000000000000321,-6.986464476561327963
0.487000000000000322,-6.937348096066211056
0.488000000000000322,-6.888595907271794161
0.489000000000000323,-6.840205492177195978
0.490000000000000324,-6.792174432366602232
0.491000000000000325,-6.744500309470732091
0.492000000000000326,-6.697180705620044527
0.493000000000000327,-6.650213203889829394
0.494000000000000328,-6.603595388737015348
0.495000000000000329,-6.557324846428761234
0.496000000000000330,-6.511399165462750105
0.497000000000000330,-6.465815936979278256
0.498000000000000331,-6.420572755164970502
0.499000000000000332,-6.375667217648294027
0.500000000000000333,-6.331096925886749105
0.501000000000000334,-6.286859485545770454
0.502000000000000335,-6.242952506869361429
0.503000000000000336,-6.199373605042486801
0.504000000000000337,-6.156120400545194826
0.505000000000000338,-6.113190519498502340
0.506000000000000338,-6.070581594002113057
0.507000000000000339,-6.028291262463918443
0.508000000000000340,-5.986317169921352210
0.509000000000000341,-5.944656968354687265
0.510000000000000342,-5.903308316992182725
0.511000000000000343,-5.862268882607244436
0.512000000000000344,-5.821536339807576788
0.513000000000000345,-5.781108371316392436
0.514000000000000346,-5.740982668245764309
0.515000000000000346,-5.701156930362102138
0.516000000000000347,-5.661628866343852096
0.517000000000000348,-5.622396194031551886
0.518000000000000349,-5.583456640670116045
0.519000000000000350,-5.544807943143638340
0.520000000000000351,-5.506447848202620676
0.521000000000000352,-5.468374112683785704
0.522000000000000353,-5.430584503722508671
0.523000000000000353,-5.393076798957912033
0.524000000000000354,-5.355848786730847522
0.525000000000000355,-5.318898266274621811
0.526000000000000356,-5.282223047898748192
0.527000000000000357,-5.245820953165710065
0.528000000000000358,-5.209689815060828622
0.529000000000000359,-5.173827478155345716
0.530000000000000360,-5.138231798762803670
0.531000000000000361,-5.102900645088810805
0.532000000000000361,-5.067831897374272643
0.533000000000000362,-5.033023448032208691
0.534000000000000363,-4.998473201778245389
0.535000000000000364,-4.964179075754833192
0.536000000000000365,-4.930138999649352982
0.537000000000000366,-4.896350915806186421
0.538000000000000367,-4.862812779332794655
0.539000000000000368,-4.829522558200020299
0.540000000000000369,-4.796478233336554986
0.541000000000000369,-4.763677798717841583
0.542000000000000370,-4.731119261449384439
0.543000000000000371,-4.698800641844604442
0.544000000000000372,-4.666719973497392537
0.545000000000000373,-4.634875303349375031
0.546000000000000374,-4.603264691752057658
0.547000000000000375,-4.571886212523895487
0.548000000000000376,-4.540737953002484062
0.549000000000000377,-4.509818014091854010
0.550000000000000377,-4.479124510305036111
0.551000000000000378,-4.448655569801995391
0.552000000000000379,-4.418409334423033741
0.553000000000000380,-4.388383959717732097
0.554000000000000381,-4.358577614969549430
0.555000000000000382,-4.328988483216234862
0.556000000000000383,-4.299614761265994289
0.557000000000000384,-4.270454659709717049
0.558000000000000385,-4.241506402929180908
0.559000000000000385,-4.212768229101435224
0.560000000000000386,-4.184238390199425339
0.561000000000000387,-4.155915151988937239
0.562000000000000388,-4.127796794022005500
0.563000000000000389,-4.099881609626810253
0.564000000000000390,-4.072167905894207962
0.565000000000000391,-4.044654003660980379
0.566000000000000392,-4.017338237489864738
0.567000000000000393,-3.990218955646481103
0.568000000000000393,-3.963294520073233684
0.569000000000000394,-3.936563306360267411
0.570000000000000395,-3.910023703713611631
0.571000000000000396,-3.883674114920490972
0.572000000000000397,-3.857512956312035612
0.573000000000000398,-3.831538657723327468
0.574000000000000399,-3.805749662450986559
0.575000000000000400,-3.780144427208271818
0.576000000000000401,-3.754721422077859305
0.577000000000000401,-3.729479130462348024
0.578000000000000402,-3.704416049032549729
0.579000000000000403,-3.679530687673645328
0.580000000000000404,-3.654821569429341110
0.581000000000000405,-3.630287230444005697
0.582000000000000406,-3.605926219902922725
0.583000000000000407,-3.581737099970705884
0.584000000000000408,-3.557718445727977130
0.585000000000000409,-3.533868845106325374
0.586000000000000409,-3.510186898821652246
0.587000000000000410,-3.486671220305975538
0.588000000000000411,-3.463320435637714301
0.589000000000000412,-3.440133183470583056
0.590000000000000413,-3.417108114961072030
0.591000000000000414,-3.394243893694670167
0.592000000000000415,-3.371539195610827822
0.593000000000000416,-3.348992708926731066
0.594000000000000417,-3.326603134059940459
0.595000000000000417,-3.304369183550017741
0.596000000000000418,-3.282289581979038751
0.597000000000000419,-3.260363065891264789
0.598000000000000420,-3.238588383711803687
0.599000000000000421,-3.216964295664492823
0.600000000000000422,-3.195489573688937046
0.601000000000000423,-3.174163001356807623
0.602000000000000424,-3.152983373787439980
0.603000000000000425,-3.131949497562771079
0.604000000000000425,-3.111060190641664835
0.605000000000000426,-3.090314282273663782
0.606000000000000427,-3.069710612912264214
0.607000000000000428,-3.049248034127624241
0.608000000000000429,-3.028925408518951645
