# C-amorph-1_HIE-AC
# h[nm],U(h)[kJ/mol]
0.149999999999999994,143.730108539293610193
0.150999999999999995,139.652639047320036525
0.151999999999999996,136.700903173792937650
0.152999999999999997,134.044466419011627067
0.153999999999999998,131.356797477059984658
0.154999999999999999,128.558912181737269975
0.156000000000000000,125.676566182195983856
0.157000000000000001,122.765907210067581445
0.158000000000000002,119.878923641580470871
0.159000000000000002,117.050860604671441934
0.160000000000000003,114.298822715167375463
0.161000000000000004,111.625289506443920118
0.162000000000000005,109.023090389626304386
0.163000000000000006,106.480102491637083517
0.164000000000000007,103.982939792541671409
0.165000000000000008,101.519458065515934209
0.166000000000000009,99.080180381812851920
0.167000000000000010,96.658864910419239891
0.168000000000000010,94.252462150874151803
0.169000000000000011,91.860687184094345525
0.170000000000000012,89.485390806305545652
0.171000000000000013,87.129866848930845435
0.172000000000000014,84.798189676819333727
0.173000000000000015,82.494639473624715720
0.174000000000000016,80.223244554618219126
0.175000000000000017,77.987449265912616170
0.176000000000000018,75.789902019989625614
0.177000000000000018,73.632349415709029472
0.178000000000000019,71.515617930258201795
0.179000000000000020,69.439663211421162714
0.180000000000000021,67.403667583846001321
0.181000000000000022,65.406168249173134654
0.182000000000000023,63.445201225313461180
0.183000000000000024,61.518448911566636639
0.184000000000000025,59.623381991351308784
0.185000000000000026,57.757389004599168914
0.186000000000000026,55.917889228069689977
0.187000000000000027,54.102426442850102717
0.188000000000000028,52.308742733835813965
0.189000000000000029,50.534832672946677690
0.190000000000000030,48.778979119774156459
0.191000000000000031,47.039772472717139351
0.192000000000000032,45.316115566188962305
0.193000000000000033,43.607216580388772798
0.194000000000000034,41.912572351695111195
0.195000000000000034,40.231944381805682553
0.196000000000000035,38.565329675074629279
0.197000000000000036,36.912928313563163840
0.198000000000000037,35.275109430495390939
0.199000000000000038,33.652376982764621971
0.200000000000000039,32.045336465337165066
0.201000000000000040,30.454663464691424934
0.202000000000000041,28.881074721599524935
0.203000000000000042,27.325302169893397775
0.204000000000000042,25.788070239630734193
0.205000000000000043,24.270076561018523620
0.206000000000000044,22.771976079105449742
0.207000000000000045,21.294368487332477002
0.208000000000000046,19.837788808662772055
0.209000000000000047,18.402700893974117236
0.210000000000000048,16.989493566284970427
0.211000000000000049,15.598479113745659319
0.212000000000000050,14.229893821748650140
0.213000000000000050,12.883900232721732237
0.214000000000000051,11.560590829040229721
0.215000000000000052,10.259992848120880637
0.216000000000000053,8.982073957433872380
0.217000000000000054,7.726748539406808725
0.218000000000000055,6.493884360721901672
0.219000000000000056,5.283309426259875430
0.220000000000000057,4.094818844030601923
0.221000000000000058,2.928181553158027750
0.222000000000000058,1.783146791779972817
0.223000000000000059,0.659450205181986271
0.224000000000000060,-0.443180483708732198
0.225000000000000061,-1.525020299383260891
0.226000000000000062,-2.586342374284671397
0.227000000000000063,-3.627413868758543547
0.228000000000000064,-4.648492460391944192
0.229000000000000065,-5.649823400701743381
0.230000000000000066,-6.631637126988566777
0.231000000000000066,-7.594147408793577192
0.232000000000000067,-8.537550001644863329
0.233000000000000068,-9.462021775526450185
0.234000000000000069,-10.367720281596959353
0.235000000000000070,-11.254783717983107394
0.236000000000000071,-12.123331253829165988
0.237000000000000072,-12.973463670062457709
0.238000000000000073,-13.805264275398783980
0.239000000000000073,-14.618800056838551882
0.240000000000000074,-15.414123025182675519
0.241000000000000075,-16.191271717813005893
0.242000000000000076,-16.950272823047537685
0.243000000000000077,-17.691142892706231748
0.244000000000000078,-18.413890112033264757
0.245000000000000079,-19.118516098750696131
0.246000000000000080,-19.805017705706635667
0.247000000000000081,-20.473388804283381148
0.248000000000000081,-21.123622028400166784
0.249000000000000082,-21.755710461550972212
0.250000000000000111,-22.369649251831418724
0.251000000000000112,-22.965437142306026175
0.252000000000000113,-23.543077906334985983
0.253000000000000114,-24.102581679598980458
0.254000000000000115,-24.643966182532466291
0.255000000000000115,-25.167257828685158927
0.256000000000000116,-25.672492716184297734
0.257000000000000117,-26.159717500963171943
0.258000000000000118,-26.628990151756095628
0.259000000000000119,-27.080380588044693724
0.260000000000000120,-27.513971203177806757
0.261000000000000121,-27.929857275783586346
0.262000000000000122,-28.328147273358780467
0.263000000000000123,-28.708963052559937523
0.264000000000000123,-29.072439961248164764
0.265000000000000124,-29.418726847756488496
0.266000000000000125,-29.747985983170405433
0.267000000000000126,-30.060392902642838919
0.268000000000000127,-30.356136171915846234
0.269000000000000128,-30.635417085299007312
0.270000000000000129,-30.898449301367737263
0.271000000000000130,-31.145458422602267490
0.272000000000000131,-31.376681525093896852
0.273000000000000131,-31.592366644309954893
0.274000000000000132,-31.792772222735841581
0.275000000000000133,-31.978166525009772414
0.276000000000000134,-32.148827025937123381
0.277000000000000135,-32.305039776522363582
0.278000000000000136,-32.447098752892529205
0.279000000000000137,-32.575305192709791413
0.280000000000000138,-32.689966923386506892
0.281000000000000139,-32.791397686127723432
0.282000000000000139,-32.879916459535408535
0.283000000000000140,-32.955846786219439082
0.284000000000000141,-33.019516105573487152
0.285000000000000142,-33.071255095593038220
0.286000000000000143,-33.111397026338075023
0.287000000000000144,-33.140277127375490807
0.288000000000000145,-33.158231971280940797
0.289000000000000146,-33.165598875030340764
0.290000000000000147,-33.162715320877360625
0.291000000000000147,-33.149918398086789750
0.292000000000000148,-33.127544266682278362
0.293000000000000149,-33.095927644165819004
0.294000000000000150,-33.055401315977640309
0.295000000000000151,-33.006295670290562327
0.296000000000000152,-32.948938257567412791
0.297000000000000153,-32.883653375160193377
0.298000000000000154,-32.810761677088471799
0.299000000000000155,-32.730579809007124936
0.300000000000000155,-32.643420068256290278
0.301000000000000156,-32.549590088779694952
0.302000000000000157,-32.449392550602482288
0.303000000000000158,-32.343124913472941273
0.304000000000000159,-32.231079174196835879
0.305000000000000160,-32.113541647124840495
0.306000000000000161,-31.990792767195337376
0.307000000000000162,-31.863106914883672971
0.308000000000000163,-31.730752262365335525
0.309000000000000163,-31.593990640164577144
0.310000000000000164,-31.453077423530192647
0.311000000000000165,-31.308261437756094381
0.312000000000000166,-31.159784881646935162
0.313000000000000167,-31.007883268315708847
0.314000000000000168,-30.852785382492537991
0.315000000000000169,-30.694713253519715579
0.316000000000000170,-30.533882143209286397
0.317000000000000171,-30.370500547742189212
0.318000000000000171,-30.204770212795938988
0.319000000000000172,-30.036886161097690717
0.320000000000000173,-29.867036731611825928
0.321000000000000174,-29.695403629586525796
0.322000000000000175,-29.522161986700421465
0.323000000000000176,-29.347480430569039100
0.324000000000000177,-29.171521162891195900
0.325000000000000178,-28.994440045536105544
0.326000000000000179,-28.816386693895548632
0.327000000000000179,-28.637504576847540250
0.328000000000000180,-28.457931122702298410
0.329000000000000181,-28.277797830526388623
0.330000000000000182,-28.097230386264147484
0.331000000000000183,-27.916348783102257869
0.332000000000000184,-27.735267445546828213
0.333000000000000185,-27.554095356708359077
0.334000000000000186,-27.372936188314344719
0.335000000000000187,-27.191888432993994940
0.336000000000000187,-27.011045538404033550
0.337000000000000188,-26.830496042788105626
0.338000000000000189,-26.650323711586253239
0.339000000000000190,-26.470607674733560799
0.340000000000000191,-26.291422564309492316
0.341000000000000192,-26.112838652221626035
0.342000000000000193,-25.934921987628104745
0.343000000000000194,-25.757734533824407919
0.344000000000000195,-25.581334304339030439
0.345000000000000195,-25.405775498002743262
0.346000000000000196,-25.231108632773768363
0.347000000000000197,-25.057380678119578477
0.348000000000000198,-24.884635185772545185
0.349000000000000199,-24.712912418693377958
0.350000000000000200,-24.542249478091598291
0.351000000000000201,-24.372680428367317518
0.352000000000000202,-24.204236419852563245
0.353000000000000203,-24.036945809244137706
0.354000000000000203,-23.870834277632557274
0.355000000000000204,-23.705924946043619883
0.356000000000000205,-23.542238488420956344
0.357000000000000206,-23.379793241988451769
0.358000000000000207,-23.218605314941438422
0.359000000000000208,-23.058688691425572870
0.360000000000000209,-22.900055333770925614
0.361000000000000210,-22.742715281957270435
0.362000000000000210,-22.586676750294550686
0.363000000000000211,-22.431946221309576828
0.364000000000000212,-22.278528536837161056
0.365000000000000213,-22.126426986319728485
0.366000000000000214,-21.975643392325821424
0.367000000000000215,-21.826178193302794739
0.368000000000000216,-21.678030523584368439
0.369000000000000217,-21.531198290677977525
0.370000000000000218,-21.385678249861133082
0.371000000000000218,-21.241466076119742468
0.372000000000000219,-21.098556433464693782
0.373000000000000220,-20.956943041666320937
0.374000000000000221,-20.816618740448870284
0.375000000000000222,-20.677575551189580239
0.376000000000000223,-20.539804736169365640
0.377000000000000224,-20.403296855423810996
0.378000000000000225,-20.268041821244832335
0.379000000000000226,-20.134028950384873724
0.380000000000000226,-20.001247014016776404
0.381000000000000227,-19.869684285502948740
0.382000000000000228,-19.739328586029095902
0.383000000000000229,-19.610167328157533717
0.384000000000000230,-19.482187557355967300
0.385000000000000231,-19.355375991557973947
0.386000000000000232,-19.229719058811234333
0.387000000000000233,-19.105202933069730165
0.388000000000000234,-18.981813568186023389
0.389000000000000234,-18.859536730159526030
0.390000000000000235,-18.738358027695927177
0.391000000000000236,-18.618262941133156829
0.392000000000000237,-18.499236849788047721
0.393000000000000238,-18.381265057777742555
0.394000000000000239,-18.264332818368892219
0.395000000000000240,-18.148425356907086581
0.396000000000000241,-18.033527892378106827
0.397000000000000242,-17.919625657651614858
0.398000000000000242,-17.806703918457266411
0.399000000000000243,-17.694747991141888122
0.400000000000000244,-17.583743259255612656
0.401000000000000245,-17.473675189013981424
0.402000000000000246,-17.364529343681507356
0.403000000000000247,-17.256291396921650261
0.404000000000000248,-17.148947145156668626
0.405000000000000249,-17.042482518980094142
0.406000000000000250,-16.936883593662972913
0.407000000000000250,-16.832136598794484428
0.408000000000000251,-16.728227927095886685
0.409000000000000252,-16.625144142446103501
0.410000000000000253,-16.522871987155717477
0.411000000000000254,-16.421398388525368262
0.412000000000000255,-16.320710464723230615
0.413000000000000256,-16.220795530015383434
0.414000000000000257,-16.121641099381342599
0.415000000000000258,-16.023234892546632580
0.416000000000000258,-15.925564837462582446
0.417000000000000259,-15.828619073262851558
0.418000000000000260,-15.732385952725024936
0.419000000000000261,-15.636854044264618224
0.420000000000000262,-15.542012133487929759
0.421000000000000263,-15.447849224329146978
0.422000000000000264,-15.354354539795929568
0.423000000000000265,-15.261517522347176623
0.424000000000000266,-15.169327833925617455
0.425000000000000266,-15.077775355666622303
0.426000000000000267,-14.986850187304337823
0.427000000000000268,-14.896542646294946621
0.428000000000000269,-14.806843266676215976
0.429000000000000270,-14.717742797681713895
0.430000000000000271,-14.629232202127147033
0.431000000000000272,-14.541302654585617660
0.432000000000000273,-14.453945539367856199
0.433000000000000274,-14.367152448322737968
0.434000000000000274,-14.280915178472582738
0.435000000000000275,-14.195225729497341405
0.436000000000000276,-14.110076301080805905
0.437000000000000277,-14.025459290131498946
0.438000000000000278,-13.941367287890319204
0.439000000000000279,-13.857793076936335552
0.440000000000000280,-13.774729628101530565
0.441000000000000281,-13.692170097304863674
0.442000000000000282,-13.610107822315447024
0.443000000000000282,-13.528536319453868586
0.444000000000000283,-13.447449280240752145
0.445000000000000284,-13.366840568000503353
0.446000000000000285,-13.286704214428178616
0.447000000000000286,-13.207034416126948173
0.448000000000000287,-13.127825531122860880
0.449000000000000288,-13.049072075363707057
0.450000000000000289,-12.970768719207834252
0.451000000000000290,-12.892910283908928903
0.452000000000000290,-12.815491738102045005
0.453000000000000291,-12.738508194295858900
0.454000000000000292,-12.661954905376083147
0.455000000000000293,-12.585827261124199694
0.456000000000000294,-12.510120784755812906
0.457000000000000295,-12.434831129482313727
0.458000000000000296,-12.359954075099391702
0.459000000000000297,-12.285485524605771701
0.460000000000000298,-12.211421500855006883
0.461000000000000298,-12.137758143243322806
0.462000000000000299,-12.064491704435846842
0.463000000000000300,-11.991618547133679584
0.464000000000000301,-11.919135140883895474
0.465000000000000302,-11.847038058934396432
0.466000000000000303,-11.775323975135346899
0.467000000000000304,-11.703989660888694857
0.468000000000000305,-11.633031982147310046
0.469000000000000306,-11.562447896464757235
0.470000000000000306,-11.492234450097068787
0.471000000000000307,-11.422388775157021001
0.472000000000000308,-11.352908086822257161
0.473000000000000309,-11.283789680597408278
0.474000000000000310,-11.215030929631101486
0.475000000000000311,-11.146629282088113655
0.476000000000000312,-11.078582258577167607
0.477000000000000313,-11.010887449634367385
0.478000000000000314,-10.943542513262583427
0.479000000000000314,-10.876545172526828509
0.480000000000000315,-10.809893213205429063
0.481000000000000316,-10.743584481497133964
0.482000000000000317,-10.677616881783672298
0.483000000000000318,-10.611988374447784977
0.484000000000000319,-10.546696973746154669
0.485000000000000320,-10.481740745737161191
0.486000000000000321,-10.417117806262716329
0.487000000000000322,-10.352826318983918696
0.488000000000000322,-10.288864493469862538
0.489000000000000323,-10.225230583339200763
0.490000000000000324,-10.161922884453677085
0.491000000000000325,-10.098939733163110333
0.492000000000000326,-10.036279504601051116
0.493000000000000327,-9.973940611030558401
0.494000000000000328,-9.911921500239197158
0.495000000000000329,-9.850220653982653118
0.496000000000000330,-9.788836586476062251
0.497000000000000330,-9.727767842932410147
0.498000000000000331,-9.667012998146990554
0.499000000000000332,-9.606570655127361746
0.500000000000000333,-9.546439443767727795
0.501000000000000334,-9.486618019567035986
0.502000000000000335,-9.427105062389879109
0.503000000000000336,-9.367899275269405024
0.504000000000000337,-9.308999383251343573
0.505000000000000338,-9.250404132278184477
0.506000000000000338,-9.192112288112857854
0.507000000000000339,-9.134122635300814252
0.508000000000000340,-9.076433976169759887
0.509000000000000341,-9.019045129866251287
0.510000000000000342,-8.961954931428063986
0.511000000000000343,-8.905162230891702890
0.512000000000000344,-8.848665892434055991
0.513000000000000345,-8.792464793547406288
0.514000000000000346,-8.736557824246975912
0.515000000000000346,-8.680943886310085844
0.516000000000000347,-8.625621892546165626
0.517000000000000348,-8.570590766096845670
0.518000000000000349,-8.515849439765155182
0.519000000000000350,-8.461396855373235937
0.520000000000000351,-8.407231963147614451
0.521000000000000352,-8.353353721131352216
0.522000000000000353,-8.299761094622285285
0.523000000000000353,-8.246453055636489893
0.524000000000000354,-8.193428582396514059
0.525000000000000355,-8.140686658843259593
0.526000000000000356,-8.088226274171100627
0.527000000000000357,-8.036046422385425103
0.528000000000000358,-7.984146101881823832
0.529000000000000359,-7.932524315046409313
0.530000000000000360,-7.881180067876444539
0.531000000000000361,-7.830112369620738200
0.532000000000000361,-7.779320232439056682
0.533000000000000362,-7.728802671080032383
0.534000000000000363,-7.678558702576887995
0.535000000000000364,-7.628587345960355037
0.536000000000000365,-7.578887621988248391
0.537000000000000366,-7.529458552891128420
0.538000000000000367,-7.480299162133350777
0.539000000000000368,-7.431408474189214353
0.540000000000000369,-7.382785514333346732
0.541000000000000369,-7.334429308445082896
0.542000000000000370,-7.286338882826174590
0.543000000000000371,-7.238513264031325889
0.544000000000000372,-7.190951478711156142
0.545000000000000373,-7.143652553467068067
0.546000000000000374,-7.096615514717484530
0.547000000000000375,-7.049839388575142252
0.548000000000000376,-7.003323200734925535
0.549000000000000377,-6.957065976371810123
0.550000000000000377,-6.911066740048494417
0.551000000000000378,-6.865324515632382329
0.552000000000000379,-6.819838326221431046
0.553000000000000380,-6.774607194078572370
0.554000000000000381,-6.729630140574244024
0.555000000000000382,-6.684906186136795547
0.556000000000000383,-6.640434350210247416
0.557000000000000384,-6.596213651219263951
0.558000000000000385,-6.552243106540839968
0.559000000000000385,-6.508521732482494215
0.560000000000000386,-6.465048544266598363
0.561000000000000387,-6.421822556020595485
0.562000000000000388,-6.378842780772741250
0.563000000000000389,-6.336108230453199930
0.564000000000000390,-6.293617915900098225
0.565000000000000391,-6.251370846870380582
0.566000000000000392,-6.209366032055140039
0.567000000000000393,-6.167602479099242530
0.568000000000000393,-6.126079194624936441
0.569000000000000394,-6.084795184259258249
0.570000000000000395,-6.043749452665065469
0.571000000000000396,-6.002941003575333667
0.572000000000000397,-5.962368839830718414
0.573000000000000398,-5.922031963419966516
0.574000000000000399,-5.881929375523196057
0.575000000000000400,-5.842060076557654469
0.576000000000000401,-5.802423066225939507
0.577000000000000401,-5.763017343566486872
0.578000000000000402,-5.723841907006018914
0.579000000000000403,-5.684895754413999747
0.580000000000000404,-5.646177883158816080
0.581000000000000405,-5.607687290165566552
0.582000000000000406,-5.569422971975330761
0.583000000000000407,-5.531383924805749253
0.584000000000000408,-5.493569144612870936
0.585000000000000409,-5.455977627154021015
0.586000000000000409,-5.418608368051665458
0.587000000000000410,-5.381460362858142332
0.588000000000000411,-5.344532607121093015
0.589000000000000412,-5.307824096449587081
0.590000000000000413,-5.271333826580734794
0.591000000000000414,-5.235060793446757010
0.592000000000000415,-5.199003993242471644
0.593000000000000416,-5.163162422492936443
0.594000000000000417,-5.127535078121333356
0.595000000000000417,-5.092120957517026980
0.596000000000000418,-5.056919058603483563
0.597000000000000419,-5.021928379906333006
0.598000000000000420,-4.987147920621190167
0.599000000000000421,-4.952576680681370469
0.600000000000000422,-4.918213660825333733
0.601000000000000423,-4.884057862663873983
0.602000000000000424,-4.850108288746919349
0.603000000000000425,-4.816363942629962480
0.604000000000000425,-4.782823828940039768
0.605000000000000426,-4.749486953441176773
0.606000000000000427,-4.716352323099402000
