# C-amorph-1_ETHANE12DIOL-AC
# h[nm],U(h)[kJ/mol]
0.149999999999999994,97.489853982164021318
0.150999999999999995,94.552562703611798156
0.151999999999999996,92.601016003840427970
0.152999999999999997,90.872011549082159831
0.153999999999999998,89.091053875193466638
0.154999999999999999,87.210904606396923100
0.156000000000000000,85.271400847965907133
0.157000000000000001,83.330284175873487129
0.158000000000000002,81.433839651788758829
0.159000000000000002,79.608464953461222535
0.160000000000000003,77.862126902291038277
0.161000000000000004,76.189547974074145031
0.162000000000000005,74.577932262802150376
0.163000000000000006,73.011780114967024247
0.164000000000000007,71.476310903764940008
0.165000000000000008,69.959513395212482578
0.166000000000000009,68.453065569493190878
0.167000000000000010,66.952432355522688567
0.168000000000000010,65.456435572302126502
0.169000000000000011,63.966540202193073128
0.170000000000000012,62.486040387481388336
0.171000000000000013,61.019270647494650461
0.172000000000000014,59.570918895056436781
0.173000000000000015,58.145479821742256377
0.174000000000000016,56.746859785264028631
0.175000000000000017,55.378126048705837547
0.176000000000000018,54.041382283507516604
0.177000000000000018,52.737746851539235138
0.178000000000000019,51.467408919242394916
0.179000000000000020,50.229738597900578156
0.180000000000000021,49.023430006660440483
0.181000000000000022,47.846659642824860725
0.182000000000000023,46.697246168225845508
0.183000000000000024,45.572801316025561391
0.184000000000000025,44.470864866270765958
0.185000000000000026,43.389019413738694197
0.186000000000000026,42.324982915841225406
0.187000000000000027,41.276678769857859663
0.188000000000000028,40.242284467394945580
0.189000000000000029,39.220260767119214051
0.190000000000000030,38.209363879389435681
0.191000000000000031,37.208643433950619794
0.192000000000000032,36.217429066115144565
0.193000000000000033,35.235308363209000504
0.194000000000000034,34.262098709243034023
0.195000000000000034,33.297815291505159507
0.196000000000000035,32.342637220049184066
0.197000000000000036,31.396873384749522273
0.198000000000000037,30.460929353287717447
0.199000000000000038,29.535276310356380236
0.200000000000000039,28.620422762279293494
0.201000000000000040,27.716889487331634712
0.202000000000000041,26.825188002676249255
0.203000000000000042,25.945802644263057601
0.204000000000000042,25.079176214977469073
0.205000000000000043,24.225699046425535954
0.206000000000000044,23.385701237989945156
0.207000000000000045,22.559447779807154433
0.208000000000000046,21.747136230599846130
0.209000000000000047,20.948896603396331528
0.210000000000000048,20.164793108799575094
0.211000000000000049,19.394827413607270472
0.212000000000000050,18.638943089505648487
0.213000000000000050,17.897030949874366712
0.214000000000000051,17.168935000379903499
0.215000000000000052,16.454458759268952406
0.216000000000000053,15.753371734665410742
0.217000000000000054,15.065415877575173198
0.218000000000000055,14.390311859811040662
0.219000000000000056,13.727765054990550553
0.220000000000000057,13.077471127640757587
0.221000000000000058,12.439121159952019724
0.222000000000000058,11.812406267657831194
0.223000000000000059,11.197021675814443853
0.224000000000000060,10.592670241913788587
0.225000000000000061,9.999065427870112543
0.226000000000000062,9.415933734103010266
0.227000000000000063,8.843016618363099823
0.228000000000000064,8.280071929303288059
0.229000000000000065,7.726874890289640696
0.230000000000000066,7.183218672784654757
0.231000000000000066,6.648914601026599591
0.232000000000000067,6.123792030877866388
0.233000000000000068,5.607697945812529561
0.234000000000000069,5.100496312240615282
0.235000000000000070,4.602067234888595593
0.236000000000000071,4.112305950923958342
0.237000000000000072,3.631121699059046470
0.238000000000000073,3.158436497116911212
0.239000000000000073,2.694183858593039549
0.240000000000000074,2.238307475687585590
0.241000000000000075,1.790759893193742514
0.242000000000000076,1.351501194567346742
0.243000000000000077,0.920497718523538233
0.244000000000000078,0.497720821649660305
0.245000000000000079,0.083145699818971602
0.246000000000000080,-0.323249721337164453
0.247000000000000081,-0.721485818977722682
0.248000000000000081,-1.111582222833308098
0.249000000000000082,-1.493558678360008773
0.250000000000000111,-1.867435821126780748
0.251000000000000112,-2.233235861814464318
0.252000000000000113,-2.590983182526692019
0.253000000000000114,-2.940704846244181603
0.254000000000000115,-3.282431022210420046
0.255000000000000115,-3.616195330824319765
0.256000000000000116,-3.942035112250729334
0.257000000000000117,-4.259991623453404763
0.258000000000000118,-4.570110168720284527
0.259000000000000119,-4.872440169001821531
0.260000000000000120,-5.167035175531621505
0.261000000000000121,-5.453952833256293431
0.262000000000000122,-5.733254799581945171
0.263000000000000123,-6.005006623856880665
0.264000000000000123,-6.269277592866385973
0.265000000000000124,-6.526140547423746163
0.266000000000000125,-6.775671674912272735
0.267000000000000126,-7.017950282372824589
0.268000000000000127,-7.253058554449012263
0.269000000000000128,-7.481081300202402140
0.270000000000000129,-7.702105692500675893
0.271000000000000130,-7.916221003366513465
0.272000000000000131,-8.123518338358593383
0.273000000000000131,-8.324090372743160771
0.274000000000000132,-8.518031091907278807
0.275000000000000133,-8.705435538166984344
0.276000000000000134,-8.886399565836587300
0.277000000000000135,-9.061019606151026196
0.278000000000000136,-9.229392443374061727
0.279000000000000137,-9.391615003180676879
0.280000000000000138,-9.547784154173871940
0.281000000000000139,-9.697996523185011597
0.282000000000000139,-9.842348324811919014
0.283000000000000140,-9.980935205471379135
0.284000000000000141,-10.113852102081267503
0.285000000000000142,-10.241193115342776210
0.286000000000000143,-10.363051397463937775
0.287000000000000144,-10.479519054051483096
0.288000000000000145,-10.590687059799133607
0.289000000000000146,-10.696645187514022268
0.290000000000000147,-10.797481949950997304
0.291000000000000147,-10.893284553863608721
0.292000000000000148,-10.984138865631935644
0.293000000000000149,-11.070129387788524511
0.294000000000000150,-11.151339245735199412
0.295000000000000151,-11.227850183923415273
0.296000000000000152,-11.299742570759025995
0.297000000000000153,-11.367095411487717627
0.298000000000000154,-11.429986368319378087
0.299000000000000155,-11.488491787057370175
0.300000000000000155,-11.542686729511512311
0.301000000000000156,-11.592645010990896282
0.302000000000000157,-11.638439242193840073
0.303000000000000158,-11.680140874836576259
0.304000000000000159,-11.717820250389518577
0.305000000000000160,-11.751546651319006997
0.306000000000000161,-11.781388354263842899
0.307000000000000162,-11.807412684608124209
0.308000000000000163,-11.829686071945156201
0.309000000000000163,-11.848274105961447589
0.310000000000000164,-11.863241592303804595
0.311000000000000165,-11.874652608026746492
0.312000000000000166,-11.882570556251739191
0.313000000000000167,-11.887058219702865358
0.314000000000000168,-11.888177812816733692
0.315000000000000169,-11.885991032156145053
0.316000000000000170,-11.880559104888513744
0.317000000000000171,-11.871942835119451587
0.318000000000000171,-11.860202647901122219
0.319000000000000172,-11.845398630762328906
0.320000000000000173,-11.827590572633424060
0.321000000000000174,-11.806838000063821781
0.322000000000000175,-11.783200210653614448
0.323000000000000176,-11.756736303642281172
0.324000000000000177,-11.727505207618397876
0.325000000000000178,-11.695565705332878537
0.326000000000000179,-11.660976455616523850
0.327000000000000179,-11.623796012418317503
0.328000000000000180,-11.584082840996071440
0.329000000000000181,-11.541895331304761640
0.330000000000000182,-11.497291808639582555
0.331000000000000183,-11.450330541602426138
0.332000000000000184,-11.401069747469694704
0.333000000000000185,-11.349567595048320356
0.334000000000000186,-11.295882205114304853
0.335000000000000187,-11.240071648534470938
0.336000000000000187,-11.182193942177837798
0.337000000000000188,-11.122307042727104687
0.338000000000000189,-11.060468838504979416
0.339000000000000190,-10.996737139432386954
0.340000000000000191,-10.931169665237819189
0.341000000000000192,-10.863824032038596812
0.342000000000000193,-10.794757737415000776
0.343000000000000194,-10.724028144098848969
0.344000000000000195,-10.651692462396917804
0.345000000000000195,-10.577807731469224706
0.346000000000000196,-10.502430799580029230
0.347000000000000197,-10.425618303437925505
0.348000000000000198,-10.347426646738911771
0.349000000000000199,-10.267911978023477104
0.350000000000000200,-10.187130167956178539
0.351000000000000201,-10.105136786132490556
0.352000000000000202,-10.021987077514586062
0.353000000000000203,-9.937735938593913687
0.354000000000000203,-9.852437893374599298
0.355000000000000204,-9.766147069267784531
0.356000000000000205,-9.678917172982995254
0.357000000000000206,-9.590801466498426464
0.358000000000000207,-9.501852743187791717
0.359000000000000208,-9.412123304177361760
0.360000000000000209,-9.321664935002306862
0.361000000000000210,-9.230528882627423215
0.362000000000000210,-9.138765832892975283
0.363000000000000211,-9.046425888442289676
0.364000000000000212,-8.953558547183593674
0.365000000000000213,-8.860212681334447282
0.366000000000000214,-8.766436517093250558
0.367000000000000215,-8.672277614978275651
0.368000000000000216,-8.577782850871017217
0.369000000000000217,-8.482998397796714940
0.370000000000000218,-8.387969708471610275
0.371000000000000218,-8.292741498642671516
0.372000000000000219,-8.197357731242432166
0.373000000000000220,-8.101861601378164579
0.374000000000000221,-8.006295522171649637
0.375000000000000222,-7.910701111462538293
0.376000000000000223,-7.815119179385836112
0.377000000000000224,-7.719589716830933313
0.378000000000000225,-7.624151884787190525
0.379000000000000226,-7.528844004578628457
0.380000000000000226,-7.433703548987897314
0.381000000000000227,-7.338767134267378367
0.382000000000000228,-7.244070513033446623
0.383000000000000229,-7.149648568037751950
0.384000000000000230,-7.055535306807501961
0.385000000000000231,-6.961763857145368384
0.386000000000000232,-6.868366463477578066
0.387000000000000233,-6.775374484037657297
0.388000000000000234,-6.682818388871661242
0.389000000000000234,-6.590727758649741475
0.390000000000000235,-6.499131284267465780
0.391000000000000236,-6.408056767219545868
0.392000000000000237,-6.317531120727393201
0.393000000000000238,-6.227580371601439957
0.394000000000000239,-6.138229662817983545
0.395000000000000240,-6.049503256790037753
0.396000000000000241,-5.961424539310874238
0.397000000000000242,-5.874016024148409620
0.398000000000000242,-5.787299358268414906
0.399000000000000243,-5.701295327663894241
0.400000000000000244,-5.616023863767779289
0.401000000000000245,-5.531504050426124586
0.402000000000000246,-5.447754131408435896
0.403000000000000247,-5.364791518431923478
0.404000000000000248,-5.282632799676467705
0.405000000000000249,-5.201293748766969927
0.406000000000000250,-5.120789334199871590
0.407000000000000250,-5.041133729190841350
0.408000000000000251,-4.962340321920604147
0.409000000000000252,-4.884421726156311649
0.410000000000000253,-4.807389792225855274
0.411000000000000254,-4.731255618323011447
0.412000000000000255,-4.656029562121437593
0.413000000000000256,-4.581721252676011602
0.414000000000000257,-4.508339602590223372
0.415000000000000258,-4.435892820428880334
0.416000000000000258,-4.364388423355618052
0.417000000000000259,-4.293833249975278044
0.418000000000000260,-4.224233473361585389
0.419000000000000261,-4.155594614250988528
0.420000000000000262,-4.087921554384101874
0.421000000000000263,-4.021218549976599554
0.422000000000000264,-3.955489245301861523
0.423000000000000265,-3.890736686368263086
0.424000000000000266,-3.826963334674569950
0.425000000000000266,-3.764171081027122945
0.426000000000000267,-3.702361259403414095
0.427000000000000268,-3.641534660846860394
0.428000000000000269,-3.581691547378242912
0.429000000000000270,-3.522831665909856635
0.430000000000000271,-3.464954262148734809
0.431000000000000272,-3.408058094476081656
0.432000000000000273,-3.352141447790388362
0.433000000000000274,-3.297202147302296993
0.434000000000000274,-3.243237572269747737
0.435000000000000275,-3.190244669662510635
0.436000000000000276,-3.138219967745645711
0.437000000000000277,-3.087159589571918161
0.438000000000000278,-3.037059266373747235
0.439000000000000279,-2.987914350845711553
0.440000000000000280,-2.939719830309041271
0.441000000000000281,-2.892470339750091934
0.442000000000000282,-2.846160174725222980
0.443000000000000282,-2.800783304124821349
0.444000000000000283,-2.756333382789887487
0.445000000000000284,-2.712803763974779514
0.446000000000000285,-2.670187511650208734
0.447000000000000286,-2.628477412641159638
0.448000000000000287,-2.587665988594420430
0.449000000000000288,-2.547745507771225437
0.450000000000000289,-2.508707996660516137
0.451000000000000290,-2.470545251408926113
0.452000000000000290,-2.433248849063855523
0.453000000000000291,-2.396810158626299536
0.454000000000000292,-2.361220351910563675
0.455000000000000293,-2.326470414208108295
0.456000000000000294,-2.292551154753305731
0.457000000000000295,-2.259453216988991819
0.458000000000000296,-2.227167088630099379
0.459000000000000297,-2.195683111523892617
0.460000000000000298,-2.164991491305584770
0.461000000000000298,-2.135082306848401501
0.462000000000000299,-2.105945519507375518
0.463000000000000300,-2.077570982156367485
0.464000000000000301,-2.049948448018123592
0.465000000000000302,-2.023067579287299189
0.466000000000000303,-1.996917955546618106
0.467000000000000304,-1.971489081976531610
0.468000000000000305,-1.946770397358990268
0.469000000000000306,-1.922751281875981988
0.470000000000000306,-1.899421064703815221
0.471000000000000307,-1.876769031404153854
0.472000000000000308,-1.854784431113083887
0.473000000000000309,-1.833456483529518177
0.474000000000000310,-1.812774385704488678
0.475000000000000311,-1.792727318632915567
0.476000000000000312,-1.773304453649680479
0.477000000000000313,-1.754494958631751755
0.478000000000000314,-1.736288004008446295
0.479000000000000314,-1.718672768581866350
0.480000000000000315,-1.701638445159638691
0.481000000000000316,-1.685174246002297149
0.482000000000000317,-1.669269408087546980
0.483000000000000318,-1.653913198193911471
0.484000000000000319,-1.639094917806162899
0.485000000000000320,-1.624803907845161932
0.486000000000000321,-1.611029553224628375
0.487000000000000322,-1.597761287237556616
0.488000000000000322,-1.584988595774923681
0.489000000000000323,-1.572701021379493413
0.490000000000000324,-1.560888167137446825
0.491000000000000325,-1.549539700410683896
0.492000000000000326,-1.538645356412603471
0.493000000000000327,-1.528194941630282022
0.494000000000000328,-1.518178337095894559
0.495000000000000329,-1.508585501510292470
0.496000000000000330,-1.499406474221675500
0.497000000000000330,-1.490631378062262646
0.498000000000000331,-1.482250422045894522
0.499000000000000332,-1.474253903929527931
0.500000000000000333,-1.466632212641542754
0.501000000000000334,-1.459375830579779265
0.502000000000000335,-1.452475335782263954
0.503000000000000336,-1.445921403973529085
0.504000000000000337,-1.439704810489424558
0.505000000000000338,-1.433816432083334869
0.506000000000000338,-1.428247248616675735
0.507000000000000339,-1.422988344636518576
0.508000000000000340,-1.418030910843204540
0.509000000000000341,-1.413366245450771164
0.510000000000000342,-1.408985755442966115
0.511000000000000343,-1.404880957727647539
0.512000000000000344,-1.401043480192298851
0.513000000000000345,-1.397465062663388213
0.514000000000000346,-1.394137557772280323
0.515000000000000346,-1.391052931730309083
0.516000000000000347,-1.388203265015687027
0.517000000000000348,-1.385580752974852503
0.518000000000000349,-1.383177706340765756
0.519000000000000350,-1.380986551670723150
0.520000000000000351,-1.378999831706192003
0.521000000000000352,-1.377210205657081188
0.522000000000000353,-1.375610449412906444
0.523000000000000353,-1.374193455683201393
0.524000000000000354,-1.372952234069554356
0.525000000000000355,-1.371879911071556268
0.526000000000000356,-1.370969730028908540
0.527000000000000357,-1.370215051001985040
0.528000000000000358,-1.369609350592955188
0.529000000000000359,-1.369146221709690137
0.530000000000000360,-1.368819373274512419
0.531000000000000361,-1.368622629879893804
0.532000000000000361,-1.368549931393107766
0.533000000000000362,-1.368595332511852725
0.534000000000000363,-1.368753002272768082
0.535000000000000364,-1.369017223514774173
0.536000000000000365,-1.369382392299109741
0.537000000000000366,-1.369843017287875941
0.538000000000000367,-1.370393719082895645
0.539000000000000368,-1.371029229526653959
0.540000000000000369,-1.371744390966985305
0.541000000000000369,-1.372534155487240559
0.542000000000000370,-1.373393584103521636
0.543000000000000371,-1.374317845930594917
0.544000000000000372,-1.375302217318064679
0.545000000000000373,-1.376342080958285585
0.546000000000000374,-1.377432924967522787
0.547000000000000375,-1.378570341941798727
0.548000000000000376,-1.379750027988847716
0.549000000000000377,-1.380967781737526101
0.550000000000000377,-1.382219503326021393
0.551000000000000378,-1.383501193370189508
0.552000000000000379,-1.384808951913233610
0.553000000000000380,-1.386138977358009949
0.554000000000000381,-1.387487565383111354
0.555000000000000382,-1.388851107843931398
0.556000000000000383,-1.390226091659795271
0.557000000000000384,-1.391609097688302432
0.558000000000000385,-1.392996799587899792
0.559000000000000385,-1.394385962669764778
0.560000000000000386,-1.395773442739946857
0.561000000000000387,-1.397156184932790257
0.562000000000000388,-1.398531222536538277
0.563000000000000389,-1.399895675812069751
0.564000000000000390,-1.401246750805598351
0.565000000000000391,-1.402581738156242430
0.566000000000000392,-1.403898011899254339
0.567000000000000393,-1.405193028265721233
0.568000000000000393,-1.406464324479499428
0.569000000000000394,-1.407709517552143463
0.570000000000000395,-1.408926303076529329
0.571000000000000396,-1.410112454019865291
0.572000000000000397,-1.411265819516789310
0.573000000000000398,-1.412384323663144370
0.574000000000000399,-1.413465964311100276
0.575000000000000400,-1.414508811866185045
0.576000000000000401,-1.415511008086812517
0.577000000000000401,-1.416470764886866851
0.578000000000000402,-1.417386363141852623
0.579000000000000403,-1.418256151499121875
0.580000000000000404,-1.419078545192691498
0.581000000000000405,-1.419852024863076378
0.582000000000000406,-1.420575135382617260
0.583000000000000407,-1.421246484686717659
0.584000000000000408,-1.421864742611399723
0.585000000000000409,-1.422428639737557399
0.586000000000000409,-1.422936966242313028
0.587000000000000410,-1.423388570757789795
0.588000000000000411,-1.423782359237659723
0.589000000000000412,-1.424117293831800524
0.590000000000000413,-1.424392391769322863
0.591000000000000414,-1.424606724250305323
0.592000000000000415,-1.424759415346484870
0.593000000000000416,-1.424849640911154181
0.594000000000000417,-1.424876627498533832
0.595000000000000417,-1.424839651292833853
0.596000000000000418,-1.424738037047214245
0.597000000000000419,-1.424571157032866076
0.598000000000000420,-1.424338429998391664
0.599000000000000421,-1.424039320139654841
0.600000000000000422,-1.423673336080287344
0.601000000000000423,-1.423240029862977041
0.602000000000000424,-1.422738995951703833
0.603000000000000425,-1.422169870245050705
0.604000000000000425,-1.421532329100687608
0.605000000000000426,-1.420826088371163198
0.606000000000000427,-1.420050902451111430
0.607000000000000428,-1.419206563335900562
0.608000000000000429,-1.418292899691923514
0.609000000000000430,-1.417309775938443872
0.610000000000000431,-1.416257091341222241
0.611000000000000432,-1.415134779117854125
