# C-amorph-1_NITROUSACID-AC
# h[nm],U(h)[kJ/mol]
0.149999999999999994,78.483328328466114954
0.150999999999999995,76.648365161108671373
0.151999999999999996,75.182278600510116462
0.152999999999999997,73.778353487463746774
0.153999999999999998,72.342031417962104456
0.154999999999999999,70.869978895918649187
0.156000000000000000,69.388412124985478613
0.157000000000000001,67.924898337671351101
0.158000000000000002,66.498061373296181387
0.159000000000000002,65.116076671291835964
0.160000000000000003,63.778846155526331074
0.161000000000000004,62.481166250918889205
0.162000000000000005,61.215619790507318498
0.163000000000000006,59.974714042711205764
0.164000000000000007,58.752198456173019281
0.165000000000000008,57.543684040585731054
0.166000000000000009,56.346749947043875295
0.167000000000000010,55.160721871225391055
0.168000000000000010,53.986276866442288735
0.169000000000000011,52.824989991463418448
0.170000000000000012,51.678900342348825347
0.171000000000000013,50.550142141342305990
0.172000000000000014,49.440662147091053669
0.173000000000000015,48.352027458363394885
0.174000000000000016,47.285316759843695422
0.175000000000000017,46.241081890713324754
0.176000000000000018,45.219364015794930367
0.177000000000000018,44.219748519498594419
0.178000000000000019,43.241444113578836550
0.179000000000000020,42.283373856450211292
0.180000000000000021,41.344268324526169067
0.181000000000000022,40.422753716513526001
0.182000000000000023,39.517429998975771355
0.183000000000000024,38.626936200472655969
0.184000000000000025,37.750001585167481721
0.185000000000000026,36.885482684082020910
0.186000000000000026,36.032387061251384353
0.187000000000000027,35.189885287133208180
0.188000000000000028,34.357312934022715467
0.189000000000000029,33.534164549993313642
0.190000000000000030,32.720081557938286210
0.191000000000000031,31.914835908114714158
0.192000000000000032,31.118311123151460862
0.193000000000000033,30.330482143971870812
0.194000000000000034,29.551395137218143816
0.195000000000000034,28.781148177380789122
0.196000000000000035,28.019873482672586817
0.197000000000000036,27.267721671200046529
0.198000000000000037,26.524848318173621209
0.199000000000000038,25.791402938050065785
0.200000000000000039,25.067520387863300613
0.201000000000000040,24.353314588349501690
0.202000000000000041,23.648874385593675385
0.203000000000000042,22.954261324992746296
0.204000000000000042,22.269509078208358233
0.205000000000000043,21.594624249259329218
0.206000000000000044,20.929588284846211366
0.207000000000000045,20.274360223482538856
0.208000000000000046,19.628880035372159085
0.209000000000000047,18.993072327879197303
0.210000000000000048,18.366850217876471874
0.211000000000000049,17.750119200548432730
0.212000000000000050,17.142780872994148211
0.213000000000000050,16.544736399148341377
0.214000000000000051,15.955889629287810294
0.215000000000000052,15.376149812127957617
0.216000000000000053,14.805433859838776911
0.217000000000000054,14.243668145988674922
0.218000000000000055,13.690789833357587924
0.219000000000000056,13.146747742756492272
0.220000000000000057,12.611502785535771309
0.221000000000000058,12.085027991517280910
0.222000000000000058,11.567308170832335534
0.223000000000000059,11.058339252821003384
0.224000000000000060,10.558127347979523236
0.225000000000000061,10.066687580179143779
0.226000000000000062,9.584042736260876438
0.227000000000000063,9.110221778867018116
0.228000000000000064,8.645258266220892551
0.229000000000000065,8.189188719709317610
0.230000000000000066,7.742050976742660851
0.231000000000000066,7.303882562623309482
0.232000000000000067,6.874719111190573884
0.233000000000000068,6.454592859947005934
0.234000000000000069,6.043531241313756297
0.235000000000000070,5.641555587694453422
0.236000000000000071,5.248679964218244010
0.237000000000000072,4.864910139435322911
0.238000000000000073,4.490242700894554240
0.239000000000000073,4.124664319470536356
0.240000000000000074,3.768151163543008497
0.241000000000000075,3.420668461677332850
0.242000000000000076,3.082170210309616465
0.243000000000000077,2.752599021100430754
0.244000000000000078,2.431886101077819440
0.245000000000000079,2.119951357428679461
0.246000000000000080,1.816703617802509330
0.247000000000000081,1.522040956241883958
0.248000000000000081,1.235851114332114253
0.249000000000000082,0.958012006845332609
0.250000000000000111,0.688392301020633646
0.251000000000000112,0.426852058651388699
0.252000000000000113,0.173243430320627223
0.253000000000000114,-0.072588608581659123
0.254000000000000115,-0.310805490032457943
0.255000000000000115,-0.541574263235089060
0.256000000000000116,-0.765066791113056754
0.257000000000000117,-0.981458941789975059
0.258000000000000118,-1.190929782771501078
0.259000000000000119,-1.393660784884960036
0.260000000000000120,-1.589835042358049177
0.261000000000000121,-1.779636514739417308
0.262000000000000122,-1.963249295690911556
0.263000000000000123,-2.140856913019802299
0.264000000000000123,-2.312641663677220460
0.265000000000000124,-2.478783986830312536
0.266000000000000125,-2.639461877525563605
0.267000000000000126,-2.794850342902003071
0.268000000000000127,-2.945120902388869144
0.269000000000000128,-3.090441132833752214
0.270000000000000129,-3.230974259056252684
0.271000000000000130,-3.366878789909100167
0.272000000000000131,-3.498308199553217257
0.273000000000000131,-3.625410653315656706
0.274000000000000132,-3.748328777198508988
0.275000000000000133,-3.867199469842047765
0.276000000000000134,-3.982153755515103200
0.277000000000000135,-4.093316676508203855
0.278000000000000136,-4.200807223139634061
0.279000000000000137,-4.304738299448154670
0.280000000000000138,-4.405216722537877772
0.281000000000000139,-4.502343253458425565
0.282000000000000139,-4.596212657444839422
0.283000000000000140,-4.686913791305250321
0.284000000000000141,-4.774529715727622303
0.285000000000000142,-4.859137830278679182
0.286000000000000143,-4.940810028885803895
0.287000000000000144,-5.019612873625040272
0.288000000000000145,-5.095607784683774177
0.289000000000000146,-5.168851244422460134
0.290000000000000147,-5.239395013526125133
0.291000000000000147,-5.307286357310031732
0.292000000000000148,-5.372568280325036305
0.293000000000000149,-5.435279767494149539
0.294000000000000150,-5.495456030102721101
0.295000000000000151,-5.553128755058484245
0.296000000000000152,-5.608326355933795249
0.297000000000000153,-5.661074224400056032
0.298000000000000154,-5.711394980762250384
0.299000000000000155,-5.759308722399519631
0.300000000000000155,-5.804833269014638475
0.301000000000000156,-5.847984403690962729
0.302000000000000157,-5.888776108849087976
0.303000000000000158,-5.927220796286814419
0.304000000000000159,-5.963329530574693393
0.305000000000000160,-5.997112245164851529
0.306000000000000161,-6.028577950653231987
0.307000000000000162,-6.057734934714098074
0.308000000000000163,-6.084590953300557103
0.309000000000000163,-6.109153412776330505
0.310000000000000164,-6.131429542711255287
0.311000000000000165,-6.151426559136385031
0.312000000000000166,-6.169151818114148256
0.313000000000000167,-6.184612959534417698
0.314000000000000168,-6.197818041098994257
0.315000000000000169,-6.208775662504701032
0.316000000000000170,-6.217495079879348907
0.317000000000000171,-6.223986310564884050
0.318000000000000171,-6.228260228378823982
0.319000000000000172,-6.230328649518236617
0.320000000000000173,-6.230204409300337254
0.321000000000000174,-6.227901429960255086
0.322000000000000175,-6.223434779750289358
0.323000000000000176,-6.216820723605300358
0.324000000000000177,-6.208076765656872276
0.325000000000000178,-6.197221683893813449
0.326000000000000179,-6.184275557279539370
0.327000000000000179,-6.169259785646854510
0.328000000000000180,-6.152197102698929498
0.329000000000000181,-6.133111582451497235
0.330000000000000182,-6.112028639455031609
0.331000000000000183,-6.088975023138585740
0.332000000000000184,-6.063978806617297934
0.333000000000000185,-6.037069370305106375
0.334000000000000186,-6.008277380672030432
0.335000000000000187,-5.977634764481980945
0.336000000000000187,-5.945174678842748861
0.337000000000000188,-5.910931477394046674
0.338000000000000189,-5.874940672953430365
0.339000000000000190,-5.837238896932456456
0.340000000000000191,-5.797863855827542601
0.341000000000000192,-5.756854285081706379
0.342000000000000193,-5.714249900603880050
0.343000000000000194,-5.670091348223489369
0.344000000000000195,-5.624420151347536034
0.345000000000000195,-5.577278657077822999
0.346000000000000196,-5.528709981035012433
0.347000000000000197,-5.478757951125961867
0.348000000000000198,-5.427467050479902078
0.349000000000000199,-5.374882359768246687
0.350000000000000200,-5.321049499112111114
0.351000000000000201,-5.266014569770695708
0.352000000000000202,-5.209824095793075927
0.353000000000000203,-5.152524965805365120
0.354000000000000203,-5.094164375094611508
0.355000000000000204,-5.034789768140553790
0.356000000000000205,-4.974448781736274583
0.357000000000000206,-4.913189188828873455
0.358000000000000207,-4.851058843201430548
0.359000000000000208,-4.788105625108423524
0.360000000000000209,-4.724377387967335196
0.361000000000000210,-4.659921906200437114
0.362000000000000210,-4.594786824312088847
0.363000000000000211,-4.529019607278664594
0.364000000000000212,-4.462667492320179008
0.365000000000000213,-4.395777442115012867
0.366000000000000214,-4.328396099511806483
0.367000000000000215,-4.260569743785487695
0.368000000000000216,-4.192344248477748003
0.369000000000000217,-4.123765040855762010
0.370000000000000218,-4.054877063016949279
0.371000000000000218,-3.985724734661641122
0.372000000000000219,-3.916351917550199069
0.373000000000000220,-3.846801881655773858
0.374000000000000221,-3.777117273019180654
0.375000000000000222,-3.707340083307541168
0.376000000000000223,-3.637511621074273727
0.377000000000000224,-3.567672484713803271
0.378000000000000225,-3.497862537100646652
0.379000000000000226,-3.428120881899048733
0.380000000000000226,-3.358485841526090532
0.381000000000000227,-3.288994936748095732
0.382000000000000228,-3.219684867887580459
0.383000000000000229,-3.150591497615274239
0.384000000000000230,-3.081749835299484541
0.385000000000000231,-3.013194022883075807
0.386000000000000232,-2.944957322256255061
0.387000000000000233,-2.877072104091811688
0.388000000000000234,-2.809569838107815798
0.389000000000000234,-2.742481084721579698
0.390000000000000235,-2.675835488057336953
0.391000000000000236,-2.609661770269320336
0.392000000000000237,-2.543987727140762267
0.393000000000000238,-2.478840224918972268
0.394000000000000239,-2.414245198345752907
0.395000000000000240,-2.350227649842210109
0.396000000000000241,-2.286811649806574032
0.397000000000000242,-2.224020337983408702
0.398000000000000242,-2.161875925862636993
0.399000000000000243,-2.100399700066660102
0.400000000000000244,-2.039612026683919499
0.401000000000000245,-1.979532356507700097
0.402000000000000246,-1.920179231138847031
0.403000000000000247,-1.861570289911693932
0.404000000000000248,-1.803722277602818114
0.405000000000000249,-1.746651052882689514
0.406000000000000250,-1.690371597470806009
0.407000000000000250,-1.634898025955569212
0.408000000000000251,-1.580243596240646031
0.409000000000000252,-1.526420720580416779
0.410000000000000253,-1.473440977167635779
0.411000000000000254,-1.421315122237348127
0.412000000000000255,-1.370053102651769494
0.413000000000000256,-1.319664068931730716
0.414000000000000257,-1.270156388701023653
0.415000000000000258,-1.221537660510981116
0.416000000000000258,-1.173814728013331532
0.417000000000000259,-1.126993694450401318
0.418000000000000260,-1.081079937432542160
0.419000000000000261,-1.036078123973573017
0.420000000000000262,-0.991992225756020196
0.421000000000000263,-0.948825534598748632
0.422000000000000264,-0.906580678100567305
0.423000000000000265,-0.865259635434230345
0.424000000000000266,-0.824863753266353306
0.425000000000000266,-0.785393761779384136
0.426000000000000267,-0.746849790772958100
0.427000000000000268,-0.709231385822689075
0.428000000000000269,-0.672537524475386062
0.429000000000000270,-0.636766632460616711
0.430000000000000271,-0.601916599899282589
0.431000000000000272,-0.567984797490877158
0.432000000000000273,-0.534968092661814110
0.433000000000000274,-0.502862865658126212
0.434000000000000274,-0.471665025566583740
0.435000000000000275,-0.441370026249143899
0.436000000000000276,-0.411972882176373734
0.437000000000000277,-0.383468184146259161
0.438000000000000278,-0.355850114875600643
0.439000000000000279,-0.329112464451887077
0.440000000000000280,-0.303248645634249192
0.441000000000000281,-0.278251708992805713
0.442000000000000282,-0.254114357876426389
0.443000000000000282,-0.230828963199463250
0.444000000000000283,-0.208387578038839644
0.445000000000000284,-0.186781952033321708
0.446000000000000285,-0.166003545577444095
0.447000000000000286,-0.146043543803297343
0.448000000000000287,-0.126892870343657649
0.449000000000000288,-0.108542200870780509
0.450000000000000289,-0.090981976405487178
0.451000000000000290,-0.074202416391798171
0.452000000000000290,-0.058193531532825561
0.453000000000000291,-0.042945136384077390
0.454000000000000292,-0.028446861700845750
0.455000000000000293,-0.014688166536704845
0.456000000000000294,-0.001658350090640362
0.457000000000000295,0.010653436699326235
0.458000000000000296,0.022258179817726091
0.459000000000000297,0.033166991089830899
0.460000000000000298,0.043391097357416752
0.461000000000000298,0.052941829912806881
0.462000000000000299,0.061830614191512180
0.463000000000000300,0.070068959723558033
0.464000000000000301,0.077668450343208434
0.465000000000000302,0.084640734656589986
0.466000000000000303,0.090997516766434569
0.467000000000000304,0.096750547252912877
0.468000000000000305,0.101911614409255960
0.469000000000000306,0.106492535730730892
0.470000000000000306,0.110505149655221666
0.471000000000000307,0.113961307553554450
0.472000000000000308,0.116872865967458245
0.473000000000000309,0.119251679092926888
0.474000000000000310,0.121109591506552650
0.475000000000000311,0.122458431132251119
0.476000000000000312,0.123310002445673667
0.477000000000000313,0.123676079913470377
0.478000000000000314,0.123568401664424427
0.479000000000000314,0.122998663389362051
0.480000000000000315,0.121978512466702882
0.481000000000000316,0.120519542310304179
0.482000000000000317,0.118633286936302484
0.483000000000000318,0.116331215745449024
0.484000000000000319,0.113624728517475876
0.485000000000000320,0.110525150613858703
0.486000000000000321,0.107043728385397413
0.487000000000000322,0.103191624780885241
0.488000000000000322,0.098979915153173698
0.489000000000000323,0.094419583258838799
0.490000000000000324,0.089521517447677001
0.491000000000000325,0.084296507038194551
0.492000000000000326,0.078755238875268654
0.493000000000000327,0.072908294066110851
0.494000000000000328,0.066766144890667428
0.495000000000000329,0.060339151882612761
0.496000000000000330,0.053637561077034691
0.497000000000000330,0.046671501420969139
0.498000000000000331,0.039450982342921895
0.499000000000000332,0.031985891477539594
0.500000000000000333,0.024285992541571284
0.501000000000000334,0.016360923357356089
0.502000000000000335,0.008220194020002403
0.503000000000000336,-0.000126814795467106
0.504000000000000337,-0.008670853390774618
0.505000000000000338,-0.017402804468531940
0.506000000000000338,-0.026313684427557917
0.507000000000000339,-0.035394644533000653
0.508000000000000340,-0.044636971964868398
0.509000000000000341,-0.054032090748531367
0.510000000000000342,-0.063571562570714321
0.511000000000000343,-0.073247087484453285
0.512000000000000344,-0.083050504506464534
0.513000000000000345,-0.092973792110285530
0.514000000000000346,-0.103009068618577102
0.515000000000000346,-0.113148592497817391
0.516000000000000347,-0.123384762558675060
0.517000000000000348,-0.133710118065252515
0.518000000000000349,-0.144117338756316243
0.519000000000000350,-0.154599244781610246
0.520000000000000351,-0.165148796556321864
0.521000000000000352,-0.175759094536633187
0.522000000000000353,-0.186423378919323451
0.523000000000000353,-0.197135029268286827
0.524000000000000354,-0.207887564070778075
0.525000000000000355,-0.218674640226182410
0.526000000000000356,-0.229490052469967953
0.527000000000000357,-0.240327732735534427
0.528000000000000358,-0.251181749456529935
0.529000000000000359,-0.262046306812175112
0.530000000000000360,-0.272915743918104969
0.531000000000000361,-0.283784533965154018
0.532000000000000361,-0.294647283308472674
0.533000000000000362,-0.305498730509295380
0.534000000000000363,-0.316333745331634553
0.535000000000000364,-0.327147327696127976
0.536000000000000365,-0.337934606593193965
0.537000000000000366,-0.348690838957613658
0.538000000000000367,-0.359411408506593366
0.539000000000000368,-0.370091824543332615
0.540000000000000369,-0.380727720728025687
0.541000000000000369,-0.391314853818227726
0.542000000000000370,-0.401849102380422540
0.543000000000000371,-0.412326465474600556
0.544000000000000372,-0.422743061313611168
0.545000000000000373,-0.433095125898974920
0.546000000000000374,-0.443379011634833398
0.547000000000000375,-0.453591185921627560
0.548000000000000376,-0.463728229731093955
0.549000000000000377,-0.473786836164059977
0.550000000000000377,-0.483763808992539512
0.551000000000000378,-0.493656061187544126
0.552000000000000379,-0.503460613433978743
0.553000000000000380,-0.513174592633996007
0.554000000000000381,-0.522795230400056044
0.555000000000000382,-0.532319861538999128
0.556000000000000383,-0.541745922528293899
0.557000000000000384,-0.551070949985675518
0.558000000000000385,-0.560292579133276458
0.559000000000000385,-0.569408542257371142
0.560000000000000386,-0.578416667164752374
0.561000000000000387,-0.587314875636807066
0.562000000000000388,-0.596101181882222164
0.563000000000000389,-0.604773690989319546
0.564000000000000390,-0.613330597378873077
0.565000000000000391,-0.621770183258336773
0.566000000000000392,-0.630090817078291288
0.567000000000000393,-0.638290951991940192
0.568000000000000393,-0.646369124318411759
0.569000000000000394,-0.654323952010643972
0.570000000000000395,-0.662154133128531108
0.571000000000000396,-0.669858444318043422
0.572000000000000397,-0.677435739296978534
0.573000000000000398,-0.684884947347944362
0.574000000000000399,-0.692205071819204543
0.575000000000000400,-0.699395188633942233
0.576000000000000401,-0.706454444808484072
0.577000000000000401,-0.713382056980027102
0.578000000000000402,-0.720177309944341482
0.579000000000000403,-0.726839555203918408
0.580000000000000404,-0.733368209527035630
0.581000000000000405,-0.739762753518135474
0.582000000000000406,-0.746022730199929596
0.583000000000000407,-0.752147743607615049
0.584000000000000408,-0.758137457395544945
0.585000000000000409,-0.763991593456693985
0.586000000000000409,-0.769709930555256383
0.587000000000000410,-0.775292302972641956
0.588000000000000411,-0.780738599167164482
0.589000000000000412,-0.786048760447696337
0.590000000000000413,-0.791222779661495568
0.591000000000000414,-0.796260699896465418
0.592000000000000415,-0.801162613198038165
0.593000000000000416,-0.805928659300870542
0.594000000000000417,-0.810559024375539616
0.595000000000000417,-0.815053939790392201
0.596000000000000418,-0.819413680888690932
0.597000000000000419,-0.823638565781198428
0.598000000000000420,-0.827728954154307695
0.599000000000000421,-0.831685246093827546
0.600000000000000422,-0.835507880924522217
0.601000000000000423,-0.839197336065462984
0.602000000000000424,-0.842754125901284068
0.603000000000000425,-0.846178800669394549
0.604000000000000425,-0.849471945363166503
0.605000000000000426,-0.852634178651157981
0.606000000000000427,-0.855666151812410680
0.607000000000000428,-0.858568547687761141
0.608000000000000429,-0.861342079647292480
0.609000000000000430,-0.863987490573774553
0.610000000000000431,-0.866505551862224110
0.611000000000000432,-0.868897062435446843
0.612000000000000433,-0.871162847775589944
0.613000000000000433,-0.873303758971672672
0.614000000000000434,-0.875320671783006765
