# C-amorph-1_METHOXYMETHANE-AC
# h[nm],U(h)[kJ/mol]
0.149999999999999994,90.581291490811196354
0.150999999999999995,87.931627785942339415
0.151999999999999996,85.987887671463653305
0.152999999999999997,84.203781938140082275
0.153999999999999998,82.390721990145237896
0.154999999999999999,80.521832262246377354
0.156000000000000000,78.629007644496624607
0.157000000000000001,76.753604828994028253
0.158000000000000002,74.926602910017678028
0.159000000000000002,73.163826688712475743
0.160000000000000003,71.467961850310885552
0.161000000000000004,69.832864086014467375
0.162000000000000005,68.247917723892342678
0.163000000000000006,66.701492864708725961
0.164000000000000007,65.183250159106549404
0.165000000000000008,63.685386418104407369
0.166000000000000009,62.203053045780656305
0.167000000000000010,60.734206676912855016
0.168000000000000010,59.279124161717405173
0.169000000000000011,57.839765175996987523
0.170000000000000012,56.419113348588425083
0.171000000000000013,55.020579878943955521
0.172000000000000014,53.647515791224293480
0.173000000000000015,52.302850872014310823
0.174000000000000016,50.988858078498708437
0.175000000000000017,49.707030249201146432
0.176000000000000018,48.458049620946034963
0.177000000000000018,47.241828391241270424
0.178000000000000019,46.057599038274723569
0.179000000000000020,44.904035265428568380
0.180000000000000021,43.779387478105817877
0.181000000000000022,42.681620059618829544
0.182000000000000023,41.608541008477274659
0.183000000000000024,40.557917495951969045
0.184000000000000025,39.527573473408899929
0.185000000000000026,38.515467554289514851
0.186000000000000026,37.519751018806445586
0.187000000000000027,36.538806976357662393
0.188000000000000028,35.571272525624735295
0.189000000000000029,34.616046237585351264
0.190000000000000030,33.672283515397353426
0.191000000000000031,32.739382416810151710
0.192000000000000032,31.816962412633518653
0.193000000000000033,30.904838344454532262
0.194000000000000034,30.002991573933392999
0.195000000000000034,29.111540014659897935
0.196000000000000035,28.230708428772196328
0.197000000000000036,27.360800071245524379
0.198000000000000037,26.502170486680768136
0.199000000000000038,25.655204014023830439
0.200000000000000039,24.820293337994918659
0.201000000000000040,23.997822243554658428
0.202000000000000041,23.188151580995089773
0.203000000000000042,22.391608332364448586
0.204000000000000042,21.608477582154463903
0.205000000000000043,20.838997133214377300
0.206000000000000044,20.083354469173258394
0.207000000000000045,19.341685743701450662
0.208000000000000046,18.614076471298432125
0.209000000000000047,17.900563600772990469
0.210000000000000048,17.201138668301105383
0.211000000000000049,16.515751749367403534
0.212000000000000050,15.844315955822912301
0.213000000000000050,15.186712253887503010
0.214000000000000051,14.542794409667369138
0.215000000000000052,13.912393899438484368
0.216000000000000053,13.295324651623834811
0.217000000000000054,12.691387515364754179
0.218000000000000055,12.100374376362713846
0.219000000000000056,11.522071863929136626
0.220000000000000057,10.956264613750091641
0.221000000000000058,10.402738068701001595
0.222000000000000058,9.861280815159368274
0.223000000000000059,9.331686464778048418
0.224000000000000060,8.813755101747343446
0.225000000000000061,8.307294323390040702
0.226000000000000062,7.812119907713134026
0.227000000000000063,7.328056145511432362
0.228000000000000064,6.854935877011746115
0.229000000000000065,6.392600274086010614
0.230000000000000066,5.940898408966441835
0.231000000000000066,5.499686649365366442
0.232000000000000067,5.068827918127003507
0.233000000000000068,4.648190853185804272
0.234000000000000069,4.237648900829348975
0.235000000000000070,3.837079372196272598
0.236000000000000071,3.446362489697501807
0.237000000000000072,3.065380446730185948
0.238000000000000073,2.694016500741970077
0.239000000000000073,2.332154116466390814
0.240000000000000074,1.979676173040675335
0.241000000000000075,1.636464245780445692
0.242000000000000076,1.302397970650236214
0.243000000000000077,0.977354496957445584
0.244000000000000078,0.661208031524053275
0.245000000000000079,0.353829475561189433
0.246000000000000080,0.055086153688381233
0.247000000000000081,-0.235158367003854313
0.248000000000000081,-0.517044371257967428
0.249000000000000082,-0.790716007816272382
0.250000000000000111,-1.056321224824638083
0.251000000000000112,-1.314011634528797767
0.252000000000000113,-1.563942313823992070
0.253000000000000114,-1.806271547559145985
0.254000000000000115,-2.041160521694428631
0.255000000000000115,-2.268772973477640065
0.256000000000000116,-2.489274805760374409
0.257000000000000117,-2.702833672432747303
0.258000000000000118,-2.909618541730950803
0.259000000000000119,-3.109799243879548758
0.260000000000000120,-3.303546009182763754
0.261000000000000121,-3.491029002287299399
0.262000000000000122,-3.672417857915952766
0.263000000000000123,-3.847881222924285360
0.264000000000000123,-4.017586309072580519
0.265000000000000124,-4.181698460438092013
0.266000000000000125,-4.340380738926759463
0.267000000000000126,-4.493793530883261056
0.268000000000000127,-4.642094177350033490
0.269000000000000128,-4.785436630092344323
0.270000000000000129,-4.923971135092233276
0.271000000000000130,-5.057843944821412308
0.272000000000000131,-5.187197060233734724
0.273000000000000131,-5.312168003073875155
0.274000000000000132,-5.432889618780663454
0.275000000000000133,-5.549489909972510127
0.276000000000000134,-5.662091900237788522
0.277000000000000135,-5.770813527715304758
0.278000000000000136,-5.875767567739076824
0.279000000000000137,-5.977061583635650877
0.280000000000000138,-6.074797904601450860
0.281000000000000139,-6.169073629450591234
0.282000000000000139,-6.259980654908981812
0.283000000000000140,-6.347605727037382906
0.284000000000000141,-6.432030514292728540
0.285000000000000142,-6.513331700682593706
0.286000000000000143,-6.591581097430120550
0.287000000000000144,-6.666845771544951837
0.288000000000000145,-6.739188189688938735
0.289000000000000146,-6.808666375730494380
0.290000000000000147,-6.875334080399556846
0.291000000000000147,-6.939240961482371794
0.292000000000000148,-7.000432773032750688
0.293000000000000149,-7.058951562120888923
0.294000000000000150,-7.114835871692807068
0.295000000000000151,-7.168120948170766837
0.296000000000000152,-7.218838952487208971
0.297000000000000153,-7.267019173310774072
0.298000000000000154,-7.312688241291924740
0.299000000000000155,-7.355870343226756702
0.300000000000000155,-7.396587435110316910
0.301000000000000156,-7.434859453123875639
0.302000000000000157,-7.470704521674518261
0.303000000000000158,-7.504139157678250349
0.304000000000000159,-7.535178470350703428
0.305000000000000160,-7.563836355840277470
0.306000000000000161,-7.590125686108530445
0.307000000000000162,-7.614058491530189876
0.308000000000000163,-7.635646136750639634
0.309000000000000163,-7.654899489401989499
0.310000000000000164,-7.671829081339305745
0.311000000000000165,-7.686445262116332167
0.312000000000000166,-7.698758344475153947
0.313000000000000167,-7.708778741676036717
0.314000000000000168,-7.716517096542858667
0.315000000000000169,-7.721984402145449344
0.316000000000000170,-7.725192114083226258
0.317000000000000171,-7.726152254374309969
0.318000000000000171,-7.724877506991330911
0.319000000000000172,-7.721381305119249028
0.320000000000000173,-7.715677910241481641
0.321000000000000174,-7.707782483189056677
0.322000000000000175,-7.697711147313166968
0.323000000000000176,-7.685481043964396797
0.324000000000000177,-7.671110380482413227
0.325000000000000178,-7.654618470917844419
0.326000000000000179,-7.636025769723998380
0.327000000000000179,-7.615353898669286359
0.328000000000000180,-7.592625667232779207
0.329000000000000181,-7.567865086754932413
0.330000000000000182,-7.541097378622596992
0.331000000000000183,-7.512348976773910003
0.332000000000000184,-7.481647524812276906
0.333000000000000185,-7.449021868021651116
0.334000000000000186,-7.414502040576564923
0.335000000000000187,-7.378119248240155414
0.336000000000000187,-7.339905846842446735
0.337000000000000188,-7.299895316828539649
0.338000000000000189,-7.258122234163286279
0.339000000000000190,-7.214622237874702471
0.340000000000000191,-7.169431994513141504
0.341000000000000192,-7.122589159797928282
0.342000000000000193,-7.074132337716160457
0.343000000000000194,-7.024101037331985431
0.344000000000000195,-6.972535627556586846
0.345000000000000195,-6.919477290121870183
0.346000000000000196,-6.864967970991903812
0.347000000000000197,-6.809050330438163989
0.348000000000000198,-6.751767691995548049
0.349000000000000199,-6.693163990507147609
0.350000000000000200,-6.633283719456875005
0.351000000000000201,-6.572171877779555693
0.352000000000000202,-6.509873916329016019
0.353000000000000203,-6.446435684175467529
0.354000000000000203,-6.381903374894169367
0.355000000000000204,-6.316323472998176314
0.356000000000000205,-6.249742700659074224
0.357000000000000206,-6.182207964850503501
0.358000000000000207,-6.113766305040432947
0.359000000000000208,-6.044464841549711309
0.360000000000000209,-5.974350724685762337
0.361000000000000210,-5.903471084752113462
0.362000000000000210,-5.831872983026430646
0.363000000000000211,-5.759603363791863551
0.364000000000000212,-5.686709007499008983
0.365000000000000213,-5.613236485128370035
0.366000000000000214,-5.539232113816231262
0.367000000000000215,-5.464741913799935347
0.368000000000000216,-5.389811566732163328
0.369000000000000217,-5.314486375407339480
0.370000000000000218,-5.238811224937473199
0.371000000000000218,-5.162830545408814586
0.372000000000000219,-5.086588276045404200
0.373000000000000220,-5.010127830900264811
0.374000000000000221,-4.933492066090137129
0.375000000000000222,-4.856723248584831509
0.376000000000000223,-4.779863026558073713
0.377000000000000224,-4.702952401302344931
0.378000000000000225,-4.626031700706397132
0.379000000000000226,-4.549140554290433514
0.380000000000000226,-4.472317869790553679
0.381000000000000227,-4.395601811280686277
0.382000000000000228,-4.319029778817509602
0.383000000000000229,-4.242638389590884351
0.384000000000000230,-4.166463460559799437
0.385000000000000231,-4.090539992551659232
0.386000000000000232,-4.014902155800326611
0.387000000000000233,-3.939583276896596153
0.388000000000000234,-3.864615827122809044
0.389000000000000234,-3.790031412141947609
0.390000000000000235,-3.715860763009817269
0.391000000000000236,-3.642133728477966237
0.392000000000000237,-3.568879268553537543
0.393000000000000238,-3.496125449281628939
0.394000000000000239,-3.423899438714549603
0.395000000000000240,-3.352227504031927818
0.396000000000000241,-3.281135009774909683
0.397000000000000242,-3.210646417157200894
0.398000000000000242,-3.140785284415505085
0.399000000000000243,-3.071574268161499699
0.400000000000000244,-3.003035125697355312
0.401000000000000245,-2.935188718256986906
0.402000000000000246,-2.868055015134896024
0.403000000000000247,-2.801653098664823371
0.404000000000000248,-2.736001170010602834
0.405000000000000249,-2.671116555731772202
0.406000000000000250,-2.607015715086883123
0.407000000000000250,-2.543714248037856063
0.408000000000000251,-2.481226903919091953
0.409000000000000252,-2.419567590735672180
0.410000000000000253,-2.358749385055345371
0.411000000000000254,-2.298784542459767266
0.412000000000000255,-2.239684508520924044
0.413000000000000256,-2.181459930269442626
0.414000000000000257,-2.124120668122047473
0.415000000000000258,-2.067675808236306700
0.416000000000000258,-2.012133675261358778
0.417000000000000259,-1.957501845454232114
0.418000000000000260,-1.903787160132033973
0.419000000000000261,-1.850995739431103626
0.420000000000000262,-1.799132996345077062
0.421000000000000263,-1.748203651014561988
0.422000000000000264,-1.698211745241958281
0.423000000000000265,-1.649160657205752667
0.424000000000000266,-1.601053116349604011
0.425000000000000266,-1.553891218422076115
0.426000000000000267,-1.507676440643996418
0.427000000000000268,-1.462409656981056516
0.428000000000000269,-1.418091153500167456
0.429000000000000270,-1.374720643788926111
0.430000000000000271,-1.332297284418249461
0.431000000000000272,-1.290819690429185984
0.432000000000000273,-1.250285950825583914
0.433000000000000274,-1.210693644055167884
0.434000000000000274,-1.172039853462262471
0.435000000000000275,-1.134321182696263364
0.436000000000000276,-1.097533771060640984
0.437000000000000277,-1.061673308787968839
0.438000000000000278,-1.026735052227295331
0.439000000000000279,-0.992713838930799897
0.440000000000000280,-0.959604102627373501
0.441000000000000281,-0.927399888071459566
0.442000000000000282,-0.896094865756219883
0.443000000000000282,-0.865682346480533438
0.444000000000000283,-0.836155295760251271
0.445000000000000284,-0.807506348074496949
0.446000000000000285,-0.779727820938464822
0.447000000000000286,-0.752811728794924306
0.448000000000000287,-0.726749796716860130
0.449000000000000288,-0.701533473914579320
0.450000000000000289,-0.677153947040879944
0.451000000000000290,-0.653602153288529442
0.452000000000000290,-0.630868793274772299
0.453000000000000291,-0.608944343707997549
0.454000000000000292,-0.587819069832281604
0.455000000000000293,-0.567483037645823307
0.456000000000000294,-0.547926125889857674
0.457000000000000295,-0.529138037804929073
0.458000000000000296,-0.511108312651895824
0.459000000000000297,-0.493826336995345117
0.460000000000000298,-0.477281355747527836
0.461000000000000298,-0.461462482971217891
0.462000000000000299,-0.446358712440297345
0.463000000000000300,-0.431958927957107608
0.464000000000000301,-0.418251913426021915
0.465000000000000302,-0.405226362682899299
0.466000000000000303,-0.392870889080391306
0.467000000000000304,-0.381174034829334762
0.468000000000000305,-0.370124280096772673
0.469000000000000306,-0.359710051861262481
0.470000000000000306,-0.349919732526505656
0.471000000000000307,-0.340741668294418543
0.472000000000000308,-0.332164177299085261
0.473000000000000309,-0.324175557503124878
0.474000000000000310,-0.316764094358251813
0.475000000000000311,-0.309918068231972210
0.476000000000000312,-0.303625761602506539
0.477000000000000313,-0.297875466024150992
0.478000000000000314,-0.292655488865507685
0.479000000000000314,-0.287954159823090694
0.480000000000000315,-0.283759837212909316
0.481000000000000316,-0.280060914042853715
0.482000000000000317,-0.276845823868663299
0.483000000000000318,-0.274103046436502906
0.484000000000000319,-0.271821113115127744
0.485000000000000320,-0.269988612120834692
0.486000000000000321,-0.268594193538326698
0.487000000000000322,-0.267626574140815143
0.488000000000000322,-0.267074542012638805
0.489000000000000323,-0.266926960977824534
0.490000000000000324,-0.267172774837987015
0.491000000000000325,-0.267801011423047131
0.492000000000000326,-0.268800786458259000
0.493000000000000327,-0.270161307251100602
0.494000000000000328,-0.271871876201576101
0.495000000000000329,-0.273921894139497024
0.496000000000000330,-0.276300863492349058
0.497000000000000330,-0.278998391287347713
0.498000000000000331,-0.282004191991274744
0.499000000000000332,-0.285308090191718544
0.500000000000000333,-0.288900023123334682
0.501000000000000334,-0.292770043042700989
0.502000000000000335,-0.296908319455390313
0.503000000000000336,-0.301305141198819237
0.504000000000000337,-0.305950918384444048
0.505000000000000338,-0.310836184202850307
0.506000000000000338,-0.315951596595259288
0.507000000000000339,-0.321287939794938471
0.508000000000000340,-0.326836125742007044
0.509000000000000341,-0.332587195375062816
0.510000000000000342,-0.338532319803046433
0.511000000000000343,-0.344662801360725468
0.512000000000000344,-0.350970074551133659
0.513000000000000345,-0.357445706878263492
0.514000000000000346,-0.364081399573317088
0.515000000000000346,-0.370868988217679052
0.516000000000000347,-0.377800443265845221
0.517000000000000348,-0.384867870471448381
0.518000000000000349,-0.392063511219439331
0.519000000000000350,-0.399379742767511481
0.520000000000000351,-0.406809078399781421
0.521000000000000352,-0.414344167495648730
0.522000000000000353,-0.421977795516780385
0.523000000000000353,-0.429702883915075717
0.524000000000000354,-0.437512489964414886
0.525000000000000355,-0.445399806518987584
0.526000000000000356,-0.453358161700867179
0.527000000000000357,-0.461381018519559483
0.528000000000000358,-0.469461974426096884
0.529000000000000359,-0.477594760804249785
0.530000000000000360,-0.485773242401393024
0.531000000000000361,-0.493991416701462349
0.532000000000000361,-0.502243413242434267
0.533000000000000362,-0.510523492880687435
0.534000000000000363,-0.518826047004544266
0.535000000000000364,-0.527145596699274188
0.536000000000000365,-0.535476791865752033
0.537000000000000366,-0.543814410294943595
0.538000000000000367,-0.552153356700313624
0.539000000000000368,-0.560488661710243918
0.540000000000000369,-0.568815480822437713
0.541000000000000369,-0.577129093322305664
0.542000000000000370,-0.585424901167222567
0.543000000000000371,-0.593698427838531773
0.544000000000000372,-0.601945317163122828
0.545000000000000373,-0.610161332106331278
0.546000000000000374,-0.618342353537907008
0.547000000000000375,-0.626484378972710698
0.548000000000000376,-0.634583521287795715
0.549000000000000377,-0.642636007417428545
0.550000000000000377,-0.650638177027614839
0.551000000000000378,-0.658586481171635318
0.552000000000000379,-0.666477480928009625
0.553000000000000380,-0.674307846022359159
0.554000000000000381,-0.682074353434474867
0.555000000000000382,-0.689773885991984859
0.556000000000000383,-0.697403430951846981
0.557000000000000384,-0.704960078570971427
0.558000000000000385,-0.712441020667138214
0.559000000000000385,-0.719843549171422792
0.560000000000000386,-0.727165054673211908
0.561000000000000387,-0.734403024958955597
0.562000000000000388,-0.741555043545676473
0.563000000000000389,-0.748618788210289932
0.564000000000000390,-0.755592029515685271
0.565000000000000391,-0.762472629334563723
0.566000000000000392,-0.769258539371915573
0.567000000000000393,-0.775947799687048523
0.568000000000000393,-0.782538537215996977
0.569000000000000394,-0.789028964295163115
0.570000000000000395,-0.795417377186949937
0.571000000000000396,-0.801702154608157969
0.572000000000000397,-0.807881756261899064
0.573000000000000398,-0.813954721373676193
0.574000000000000399,-0.819919667232355764
0.575000000000000400,-0.825775287736643326
0.576000000000000401,-0.831520351947685810
0.577000000000000401,-0.837153702648406606
0.578000000000000402,-0.842674254910127152
0.579000000000000403,-0.848080994666996602
0.580000000000000404,-0.853372977298791136
0.581000000000000405,-0.858549326222525444
0.582000000000000406,-0.863609231493375873
0.583000000000000407,-0.868551948415348440
0.584000000000000408,-0.873376796162115054
0.585000000000000409,-0.878083156408413279
0.586000000000000409,-0.882670471972413551
0.587000000000000410,-0.887138245469383468
0.588000000000000411,-0.891486037977003876
0.589000000000000412,-0.895713467712670353
0.590000000000000413,-0.899820208723047243
0.591000000000000414,-0.903805989586194181
0.592000000000000415,-0.907670592126514797
0.593000000000000416,-0.911413850142766990
0.594000000000000417,-0.915035648149388647
0.595000000000000417,-0.918535920131341777
0.596000000000000418,-0.921914648312668561
0.597000000000000419,-0.925171861938965945
0.598000000000000420,-0.928307636073924747
0.599000000000000421,-0.931322090410105496
0.600000000000000422,-0.934215388094093213
0.601000000000000423,-0.936987734566142594
0.602000000000000424,-0.939639376414451499
0.603000000000000425,-0.942170600244165102
0.604000000000000425,-0.944581731561174420
0.605000000000000426,-0.946873133670816491
0.606000000000000427,-0.949045206591557999
0.607000000000000428,-0.951098385983649708
0.608000000000000429,-0.953033142092914454
0.609000000000000430,-0.954849978709567004
0.610000000000000431,-0.956549432142231759
0.611000000000000432,-0.958132070207065589
0.612000000000000433,-0.959598491232046436
0.613000000000000433,-0.960949323076447093
