# Cu001_CHL-AC
# h[nm],U(h)[kJ/mol]
0.149999999999999994,128.394497269208756052
0.150999999999999995,124.987318993024629776
0.151999999999999996,121.378560174947395467
0.152999999999999997,117.689960164691200362
0.153999999999999998,114.040401229485809154
0.154999999999999999,110.506752286858954903
0.156000000000000000,107.120946806500526804
0.157000000000000001,103.881265157685078293
0.158000000000000002,100.766598402851599303
0.159000000000000002,97.748665294937083559
0.160000000000000003,94.800519707351483589
0.161000000000000004,91.901364326870520927
0.162000000000000005,89.038397826545562452
0.163000000000000006,86.206610502046132183
0.164000000000000007,83.407373234838900089
0.165000000000000008,80.646489670473286537
0.166000000000000009,77.932184776183461850
0.167000000000000010,75.273325378851382084
0.168000000000000010,72.678026287845256093
0.169000000000000011,70.152692143908822686
0.170000000000000012,67.701476473209851292
0.171000000000000013,65.326099094957783109
0.172000000000000014,63.025944029821175718
0.173000000000000015,60.798355976227924202
0.174000000000000016,58.639058928825569694
0.175000000000000017,56.542631464761576865
0.176000000000000018,54.502986589922464589
0.177000000000000018,52.513817740110766863
0.178000000000000019,50.568985252841898159
0.179000000000000020,48.662828622309142190
0.180000000000000021,46.790398797440445833
0.181000000000000022,44.947611638930297318
0.182000000000000023,43.131328553872009479
0.183000000000000024,41.339373516704455369
0.184000000000000025,39.570497449739271190
0.185000000000000026,37.824301571059450566
0.186000000000000026,36.101131101523307620
0.187000000000000027,34.401949905118868855
0.188000000000000028,32.728205429954599026
0.189000000000000029,31.081691893713031760
0.190000000000000030,29.464418152866564071
0.191000000000000031,27.878485210722725895
0.192000000000000032,26.325976927181375942
0.193000000000000033,24.808866239929614039
0.194000000000000034,23.328938119647595784
0.195000000000000034,21.887729572001539680
0.196000000000000035,20.486486266432599734
0.197000000000000036,19.126134807314372210
0.198000000000000037,17.807269252676174887
0.199000000000000038,16.530150211751585942
0.200000000000000039,15.294714695878425914
0.201000000000000040,14.100594838218563964
0.202000000000000041,12.947143617507412827
0.203000000000000042,11.833465802013220625
0.204000000000000042,10.758452456219389504
0.205000000000000043,9.720817510515111337
0.206000000000000044,8.719135071459763964
0.207000000000000045,7.751876337036982534
0.208000000000000046,6.817445169659234416
0.209000000000000047,5.914211563178956688
0.210000000000000048,5.040542414002840310
0.211000000000000049,4.194829167141202575
0.212000000000000050,3.375512053352386577
0.213000000000000050,2.581100762140198235
0.214000000000000051,1.810191506684097451
0.215000000000000052,1.061480530924118426
0.216000000000000053,0.333774186561631048
0.217000000000000054,-0.374004230388353953
0.218000000000000055,-1.062810646451962215
0.219000000000000056,-1.733479109623655479
0.220000000000000057,-2.386723126407161111
0.221000000000000058,-3.023139130573980093
0.222000000000000058,-3.643211773546863874
0.223000000000000059,-4.247320729946160611
0.224000000000000060,-4.835748721481692769
0.225000000000000061,-5.408690476805348979
0.226000000000000062,-5.966262363048620898
0.227000000000000063,-6.508512445560907800
0.228000000000000064,-7.035430754959543620
0.229000000000000065,-7.546959564243725715
0.230000000000000066,-8.043003502758399037
0.231000000000000066,-8.523439357682301321
0.232000000000000067,-8.988125437006621254
0.233000000000000068,-9.436910390314004360
0.234000000000000069,-9.869641404784065486
0.235000000000000070,-10.286171713537266115
0.236000000000000071,-10.686367371541573235
0.237000000000000072,-11.070113270759199153
0.238000000000000073,-11.437318380960368458
0.239000000000000073,-11.787920215674592583
0.240000000000000074,-12.121888534118793856
0.241000000000000075,-12.439228299685201051
0.242000000000000076,-12.739981923768635141
0.243000000000000077,-13.024230830450429508
0.244000000000000078,-13.292096382934783350
0.245000000000000079,-13.543740216760895123
0.246000000000000080,-13.779364027801724646
0.247000000000000081,-13.999208865021492088
0.248000000000000081,-14.203553979009436503
0.249000000000000082,-14.392715277547500463
0.250000000000000111,-14.567043439010157968
0.251000000000000112,-14.726921733333872666
0.252000000000000113,-14.872763598729520140
0.253000000000000114,-15.005010020326619014
0.254000000000000115,-15.124126754620025537
0.255000000000000115,-15.230601441007106445
0.256000000000000116,-15.324940638926927150
0.257000000000000117,-15.407666826200937749
0.258000000000000118,-15.479315391181106776
0.259000000000000119,-15.540431648283718147
0.260000000000000120,-15.591567903466193812
0.261000000000000121,-15.633280593223815913
0.262000000000000122,-15.666127517775819911
0.263000000000000123,-15.690665186297170663
0.264000000000000123,-15.707446289357182678
0.265000000000000124,-15.717017311161786353
0.266000000000000125,-15.719916291777584760
0.267000000000000126,-15.716670747249768425
0.268000000000000127,-15.707795753419926399
0.269000000000000128,-15.693792197306089875
0.270000000000000129,-15.675145198127307111
0.271000000000000130,-15.652322698438158710
0.272000000000000131,-15.625774224381647315
0.273000000000000131,-15.595929812767783673
0.274000000000000132,-15.563199101535767355
0.275000000000000133,-15.527970579152309938
0.276000000000000134,-15.490610987631754369
0.277000000000000135,-15.451464873127097377
0.278000000000000136,-15.410854277427441517
0.279000000000000137,-15.369078563198112164
0.280000000000000138,-15.326414365407529772
0.281000000000000139,-15.283115661090159065
0.282000000000000139,-15.239413949391112268
0.283000000000000140,-15.195518533715608456
0.284000000000000141,-15.151616897758469094
0.285000000000000142,-15.107875167207922118
0.286000000000000143,-15.064438648995750469
0.287000000000000144,-15.021432440096537775
0.288000000000000145,-14.978962098055257357
0.289000000000000146,-14.937114365638194613
0.290000000000000147,-14.895957942252490369
0.291000000000000147,-14.855544295057153903
0.292000000000000148,-14.815908502990614792
0.293000000000000149,-14.777070127259477772
0.294000000000000150,-14.739034102167821061
0.295000000000000151,-14.701791640511434167
0.296000000000000152,-14.665321148113074301
0.297000000000000153,-14.629589142430518223
0.298000000000000154,-14.594551170525244643
0.299000000000000155,-14.560152722034553463
0.300000000000000155,-14.526330133140163525
0.301000000000000156,-14.493011477871098336
0.302000000000000157,-14.460117443415432703
0.303000000000000158,-14.427562186443173786
0.304000000000000159,-14.395254167759793162
0.305000000000000160,-14.363096962915568255
0.306000000000000161,-14.330990046689317197
0.307000000000000162,-14.298829549645693859
0.308000000000000163,-14.266508985231840967
0.309000000000000163,-14.233919946132360224
0.310000000000000164,-14.200952768840807039
0.311000000000000165,-14.167497165629962197
0.312000000000000166,-14.133442823314661396
0.313000000000000167,-14.098679968396439222
0.314000000000000168,-14.063099898362555251
0.315000000000000169,-14.026595479080125273
0.316000000000000170,-13.989061608382016288
0.317000000000000171,-13.950395646083199708
0.318000000000000171,-13.910497810796025320
0.319000000000000172,-13.869271544030684851
0.320000000000000173,-13.826623842172562462
0.321000000000000174,-13.782465557022977265
0.322000000000000175,-13.736711665673627891
0.323000000000000176,-13.689281510558611643
0.324000000000000177,-13.640099010591921314
0.325000000000000178,-13.589092844352881784
0.326000000000000179,-13.536196606328633862
0.327000000000000179,-13.481348937260211329
0.328000000000000180,-13.424493629669729700
0.329000000000000181,-13.365579709669642483
0.330000000000000182,-13.304561496171322332
0.331000000000000183,-13.241398638621905803
0.332000000000000184,-13.176056134402747588
0.333000000000000185,-13.108504327023316804
0.334000000000000186,-13.038718886239587746
0.335000000000000187,-12.966680771216976709
0.336000000000000187,-12.892376177845260798
0.337000000000000188,-12.815796471296312831
0.338000000000000189,-12.736938104896324830
0.339000000000000190,-12.655802526361927818
0.340000000000000191,-12.572396072424689706
0.341000000000000192,-12.486729852842318067
0.342000000000000193,-12.398819624765433645
0.343000000000000194,-12.308685658399472374
0.344000000000000195,-12.216352594868926218
0.345000000000000195,-12.121849297159361214
0.346000000000000196,-12.025208694978575252
0.347000000000000197,-11.926467624344601504
0.348000000000000198,-11.825666662673638641
0.349000000000000199,-11.722849960106090705
0.350000000000000200,-11.618065067774283605
0.351000000000000201,-11.511362763680192955
0.352000000000000202,-11.402796876817095750
0.353000000000000203,-11.292424110134589910
0.354000000000000203,-11.180303862912271740
0.355000000000000204,-11.066498053073983598
0.356000000000000205,-10.951070939941578430
0.357000000000000206,-10.834088947894835897
0.358000000000000207,-10.715620491372517264
0.359000000000000208,-10.595735801619012406
0.360000000000000209,-10.474506755550862636
0.361000000000000210,-10.352006707088527548
0.362000000000000210,-10.228310321270502214
0.363000000000000211,-10.103493411439769645
0.364000000000000212,-9.977632779766501869
0.365000000000000213,-9.850806061345155129
0.366000000000000214,-9.723091572080543088
0.367000000000000215,-9.594568160553588854
0.368000000000000216,-9.465315064035660697
0.369000000000000217,-9.335411768798852705
0.370000000000000218,-9.204937874849500545
0.371000000000000218,-9.073972965192826479
0.372000000000000219,-8.942596479718421421
0.373000000000000220,-8.810887593778918614
0.374000000000000221,-8.678925101517867446
0.375000000000000222,-8.546787303987251505
0.376000000000000223,-8.414551902080756207
0.377000000000000224,-8.282295894295101490
0.378000000000000225,-8.150095479319018565
0.379000000000000226,-8.018025963437487746
0.380000000000000226,-7.886161672727874716
0.381000000000000227,-7.754575870013923122
0.382000000000000228,-7.623340676534454019
0.383000000000000229,-7.492526998274447791
0.384000000000000230,-7.362204456898055582
0.385000000000000231,-7.232441325216020900
0.386000000000000232,-7.103304467112693033
0.387000000000000233,-6.974859281852036297
0.388000000000000234,-6.847169652676283746
0.389000000000000234,-6.720297899606054060
0.390000000000000235,-6.594304736346077611
0.391000000000000236,-6.469249231197123251
0.392000000000000237,-6.345188771870805766
0.393000000000000238,-6.222179034101546158
0.394000000000000239,-6.100273953946985017
0.395000000000000240,-5.979525703666316971
0.396000000000000241,-5.859984671064319528
0.397000000000000242,-5.741699442187310432
0.398000000000000242,-5.624716787256657469
0.399000000000000243,-5.509081649724494767
0.400000000000000244,-5.394837138336045612
0.401000000000000245,-5.282024522083206719
0.402000000000000246,-5.170683227933788650
0.403000000000000247,-5.060850841221586904
0.404000000000000248,-4.952563108583207807
0.405000000000000249,-4.845853943328278568
0.406000000000000250,-4.740755433130926733
0.407000000000000250,-4.637297849931724336
0.408000000000000251,-4.535509661940610115
0.409000000000000252,-4.435417547633173641
0.410000000000000253,-4.337046411634096543
0.411000000000000254,-4.240419402383783343
0.412000000000000255,-4.145557931485848613
0.413000000000000256,-4.052481694635551968
0.414000000000000257,-3.961208694031070898
0.415000000000000258,-3.871755262172132284
0.416000000000000258,-3.784136086952506695
0.417000000000000259,-3.698364237955449774
0.418000000000000260,-3.614451193863513545
0.419000000000000261,-3.532406870896528606
0.420000000000000262,-3.452239652194251107
0.421000000000000263,-3.373956418062449281
0.422000000000000264,-3.297562577003839035
0.423000000000000265,-3.223062097457778830
0.424000000000000266,-3.150457540175300775
0.425000000000000266,-3.079750091158287795
0.426000000000000267,-3.010939595094458632
0.427000000000000268,-2.944024589222134836
0.428000000000000269,-2.879002337561322733
0.429000000000000270,-2.815868865450121383
0.430000000000000271,-2.754618994327888259
0.431000000000000272,-2.695246376709032443
0.432000000000000273,-2.637743531293701871
0.433000000000000274,-2.582101878163949760
0.434000000000000274,-2.528311774016303026
0.435000000000000275,-2.476362547383940793
0.436000000000000276,-2.426242533803895096
0.437000000000000277,-2.377939110886862828
0.438000000000000278,-2.331438733249415307
0.439000000000000279,-2.286726967270472421
0.440000000000000280,-2.243788525635858733
0.441000000000000281,-2.202607301636899884
0.442000000000000282,-2.163166403190916132
0.443000000000000282,-2.125448186553247076
0.444000000000000283,-2.089434289692526647
0.445000000000000284,-2.055105665302487061
0.446000000000000285,-2.022442613425385449
0.447000000000000286,-1.991424813664000482
0.448000000000000287,-1.962031356960450168
0.449000000000000288,-1.934240776922015126
0.450000000000000289,-1.908031080675436586
0.451000000000000290,-1.883379779232754903
0.452000000000000290,-1.860263917353165208
0.453000000000000291,-1.838660102886719994
0.454000000000000292,-1.818544535587095279
0.455000000000000293,-1.799893035381818107
0.456000000000000294,-1.782681070089723763
0.457000000000000295,-1.766883782576416095
0.458000000000000296,-1.752476017339853254
0.459000000000000297,-1.739432346519032446
0.460000000000000298,-1.727727095320028550
0.461000000000000298,-1.717334366854404992
0.462000000000000299,-1.708228066386210831
0.463000000000000300,-1.700381924984440518
0.464000000000000301,-1.693769522578924436
0.465000000000000302,-1.688364310418284164
0.466000000000000303,-1.684139632929484431
0.467000000000000304,-1.681068748979130278
0.468000000000000305,-1.679124852537579260
0.469000000000000306,-1.678281092747358816
0.470000000000000306,-1.678510593398220063
0.471000000000000307,-1.679786471811636206
0.472000000000000308,-1.682081857138207681
0.473000000000000309,-1.685369908071897127
0.474000000000000310,-1.689623829985543058
0.475000000000000311,-1.694816891492654021
0.476000000000000312,-1.700922440440765016
0.477000000000000313,-1.707913919342197273
0.478000000000000314,-1.715764880248375146
0.479000000000000314,-1.724448999074247313
0.480000000000000315,-1.733940089379623739
0.481000000000000316,-1.744212115614669711
0.482000000000000317,-1.755239205836925720
0.483000000000000318,-1.766995663907627634
0.484000000000000319,-1.779455981175220414
0.485000000000000320,-1.792594847654271462
0.486000000000000321,-1.806387162708098959
0.487000000000000322,-1.820808045243668349
0.488000000000000322,-1.835832843427430250
0.489000000000000323,-1.851437143930917184
0.490000000000000324,-1.867596780715060856
0.491000000000000325,-1.884287843362262294
0.492000000000000326,-1.901486684965336682
0.493000000000000327,-1.919169929582552614
0.494000000000000328,-1.937314479268037015
0.495000000000000329,-1.955897520686825874
0.496000000000000330,-1.974896531323915072
0.497000000000000330,-1.994289285296682035
0.498000000000000331,-2.014053858780022743
0.499000000000000332,-2.034168635053528185
0.500000000000000333,-2.054612309180146035
0.501000000000000334,-2.075363892325534643
0.502000000000000335,-2.096402715727470945
0.503000000000000336,-2.117708434324502953
0.504000000000000337,-2.139261030053076773
0.505000000000000338,-2.161040814822240641
0.506000000000000338,-2.183028433175000949
0.507000000000000339,-2.205204864645310625
0.508000000000000340,-2.227551425819629838
0.509000000000000341,-2.250049772111815560
0.510000000000000342,-2.272681899260139637
0.511000000000000343,-2.295430144555033358
0.512000000000000344,-2.318277187806097039
0.513000000000000345,-2.341206052056771902
0.514000000000000346,-2.364200104055067531
0.515000000000000346,-2.387243054488428218
0.516000000000000347,-2.410318957990914335
0.517000000000000348,-2.433412212930631480
0.518000000000000349,-2.456507560985225602
0.519000000000000350,-2.479590086513149494
0.520000000000000351,-2.502645215728359407
0.521000000000000352,-2.525658715685774158
0.522000000000000353,-2.548616693084908125
0.523000000000000353,-2.571505592898845727
0.524000000000000354,-2.594312196835562467
0.525000000000000355,-2.617023621638598918
0.526000000000000356,-2.639627317233746329
0.527000000000000357,-2.662111064728497567
0.528000000000000358,-2.684462974270736879
0.529000000000000359,-2.706671482772949222
0.530000000000000360,-2.728725351508329844
0.531000000000000361,-2.750613663584735136
0.532000000000000361,-2.772325821302554338
0.533000000000000362,-2.793851543402208204
0.534000000000000363,-2.815180862207036228
0.535000000000000364,-2.836304120667064943
0.536000000000000365,-2.857211969309090716
0.537000000000000366,-2.877895363098333270
0.538000000000000367,-2.898345558216799400
0.539000000000000368,-2.918554108763384836
0.540000000000000369,-2.938512863380557061
0.541000000000000369,-2.958213961812381942
0.542000000000000370,-2.977649831398509139
0.543000000000000371,-2.996813183508588718
0.544000000000000372,-3.015697009921519900
0.545000000000000373,-3.034294579153701044
0.546000000000000374,-3.052599432740474406
0.547000000000000375,-3.070605381474685203
0.548000000000000376,-3.088306501606300714
0.549000000000000377,-3.105697131006761591
0.550000000000000377,-3.122771865301787741
0.551000000000000378,-3.139525553976098671
0.552000000000000379,-3.155953296453491319
0.553000000000000380,-3.172050438155574525
0.554000000000000381,-3.187812566542337578
0.555000000000000382,-3.203235507137662808
0.556000000000000383,-3.218315319542715436
0.557000000000000384,-3.233048293440154985
0.558000000000000385,-3.247430944591875424
0.559000000000000385,-3.261460010832999412
0.560000000000000386,-3.275132448064662416
0.561000000000000387,-3.288445426248114867
0.562000000000000388,-3.301396325402492060
0.563000000000000389,-3.313982731608584142
0.564000000000000390,-3.326202433020752913
0.565000000000000391,-3.338053415889211895
0.566000000000000392,-3.349533860594609447
0.567000000000000393,-3.360642137696924436
0.568000000000000393,-3.371376804000502769
0.569000000000000394,-3.381736598637066216
0.570000000000000395,-3.391720439168369516
0.571000000000000396,-3.401327417710137802
0.572000000000000397,-3.410556797078879043
0.573000000000000398,-3.419408006963021052
0.574000000000000399,-3.427880640119789657
0.575000000000000400,-3.435974448599226072
0.576000000000000401,-3.443689339996518495
0.577000000000000401,-3.451025373734002422
0.578000000000000402,-3.457982757373845750
0.579000000000000403,-3.464561842962586180
0.580000000000000404,-3.470763123408531214
0.581000000000000405,-3.476587228892982662
0.582000000000000406,-3.482034923316192909
0.583000000000000407,-3.487107100778919833
0.584000000000000408,-3.491804782100398796
0.585000000000000409,-3.496129111373430298
0.586000000000000409,-3.500081352557340431
0.587000000000000410,-3.503662886109450536
0.588000000000000411,-3.506875205655603622
0.589000000000000412,-3.509719914700416776
0.590000000000000413,-3.512198723377643717
0.591000000000000414,-3.514313445241212808
0.592000000000000415,-3.516065994097327341
0.593000000000000416,-3.517458380878002000
0.594000000000000417,-3.518492710556422765
0.595000000000000417,-3.519171179104402913
0.596000000000000418,-3.519496070492208695
0.597000000000000419,-3.519469753731041983
0.598000000000000420,-3.519094679958290506
0.599000000000000421,-3.518373379565809866
0.600000000000000422,-3.517308459371327523
0.601000000000000423,-3.515902599833055753
0.602000000000000424,-3.514158552307643735
0.603000000000000425,-3.512079136351508257
0.604000000000000425,-3.509667237065491552
0.605000000000000426,-3.506925802482963483
0.606000000000000427,-3.503857841001246420
0.607000000000000428,-3.500466418856318818
0.608000000000000429,-3.496754657640793518
0.609000000000000430,-3.492725731864949612
0.610000000000000431,-3.488382866560834739
