# Cu001_GLY-AC
# h[nm],U(h)[kJ/mol]
0.149999999999999994,84.806146860867016812
0.150999999999999995,82.251735714912825870
0.151999999999999996,78.839995351438005855
0.152999999999999997,75.253588345116568803
0.153999999999999998,71.794044568097461934
0.154999999999999999,68.554616850104167725
0.156000000000000000,65.526780861295208069
0.157000000000000001,62.662494626997002456
0.158000000000000002,59.907845348289356480
0.159000000000000002,57.218897679594718397
0.160000000000000003,54.567048447676938849
0.161000000000000004,51.938680875245168522
0.162000000000000005,49.332148645207176685
0.163000000000000006,46.753910716717236085
0.164000000000000007,44.214829950401657754
0.165000000000000008,41.727126838237957429
0.166000000000000009,39.302157530096465621
0.167000000000000010,36.948999275971367240
0.168000000000000010,34.673730321663001064
0.169000000000000011,32.479252511672726200
0.170000000000000012,30.365500635675839902
0.171000000000000013,28.329897494346120368
0.172000000000000014,26.367937635208477332
0.173000000000000015,24.473809347881275045
0.174000000000000016,22.640990040885885293
0.175000000000000017,20.862772538948966883
0.176000000000000018,19.132698281133379226
0.177000000000000018,17.444887726468710554
0.178000000000000019,15.794268765357102779
0.179000000000000020,14.176711089894931561
0.180000000000000021,12.589078877665288658
0.181000000000000022,11.029216377497274237
0.182000000000000023,9.495881592867062793
0.183000000000000024,7.988642709920230622
0.184000000000000025,6.507750604456060906
0.185000000000000026,5.053998999066346975
0.186000000000000026,3.628581868990409021
0.187000000000000027,2.232955690728254616
0.188000000000000028,0.868712215244299202
0.189000000000000029,-0.462534291488000793
0.190000000000000030,-1.759242917110402926
0.191000000000000031,-3.020023935842494289
0.192000000000000032,-4.243698497172554873
0.193000000000000033,-5.429340866783608277
0.194000000000000034,-6.576304510114224122
0.195000000000000034,-7.684233716461240427
0.196000000000000035,-8.753062709701158184
0.197000000000000036,-9.783004307836105085
0.198000000000000037,-10.774530203800669170
0.199000000000000038,-11.728344868387512889
0.200000000000000039,-12.645354944265825736
0.201000000000000040,-13.526635826538759844
0.202000000000000041,-14.373396925889158737
0.203000000000000042,-15.186946898079412449
0.204000000000000042,-15.968659908790888480
0.205000000000000043,-16.719943793546526933
0.206000000000000044,-17.442210774736537360
0.207000000000000045,-18.136851215754269617
0.208000000000000046,-18.805210728654184749
0.209000000000000047,-19.448570808040503977
0.210000000000000048,-20.068133040576626058
0.211000000000000049,-20.665006836294477210
0.212000000000000050,-21.240200543931432975
0.213000000000000050,-21.794615746558889668
0.214000000000000051,-22.329044484251280522
0.215000000000000052,-22.844169115764476174
0.216000000000000053,-23.340564509362778267
0.217000000000000054,-23.818702242266073910
0.218000000000000055,-24.278956486941712711
0.219000000000000056,-24.721611268989317267
0.220000000000000057,-25.146868794132196001
0.221000000000000058,-25.554858559432283016
0.222000000000000058,-25.945646985044220401
0.223000000000000059,-26.319247326505898599
0.224000000000000060,-26.675629652777217871
0.225000000000000061,-27.014730701168691240
0.226000000000000062,-27.336463446264275490
0.227000000000000063,-27.640726245383234527
0.228000000000000064,-27.927411447594312932
0.229000000000000065,-28.196413376453335786
0.230000000000000066,-28.447635618220932230
0.231000000000000066,-28.680997567160012807
0.232000000000000067,-28.896440197498066027
0.233000000000000068,-29.093931047717546789
0.234000000000000069,-29.273468417001303976
0.235000000000000070,-29.435084785942450480
0.236000000000000071,-29.578849484092774702
0.237000000000000072,-29.704870635659620604
0.238000000000000073,-29.813296421770711930
0.239000000000000073,-29.904315703330375698
0.240000000000000074,-29.978158052712966963
0.241000000000000075,-30.035093245510626758
0.242000000000000076,-30.075430265402996355
0.243000000000000077,-30.099515876076473830
0.244000000000000078,-30.107732814115081510
0.245000000000000079,-30.100497656033390115
0.246000000000000080,-30.078258411239779946
0.247000000000000081,-30.041491890810817722
0.248000000000000081,-29.990700899622947162
0.249000000000000082,-29.926411296716953103
0.250000000000000111,-29.849168965845429113
0.251000000000000112,-29.759536735046207667
0.252000000000000113,-29.658091280862510786
0.253000000000000114,-29.545420049548216213
0.254000000000000115,-29.422118224307411083
0.255000000000000115,-29.288785764360248720
0.256000000000000116,-29.146024538442219409
0.257000000000000117,-28.994435572258186795
0.258000000000000118,-28.834616426452534199
0.259000000000000119,-28.667158718841243115
0.260000000000000120,-28.492645801995969634
0.261000000000000121,-28.311650604784212248
0.262000000000000122,-28.124733644162624557
0.263000000000000123,-27.932441211393733482
0.264000000000000123,-27.735303734914275253
0.265000000000000124,-27.533834320322068123
0.266000000000000125,-27.328527466367557253
0.267000000000000126,-27.119857954428532310
0.268000000000000127,-26.908279907708411827
0.269000000000000128,-26.694226015321213197
0.270000000000000129,-26.478106915502497287
0.271000000000000130,-26.260310731406367069
0.272000000000000131,-26.041202752305601109
0.273000000000000131,-25.821125252494375957
0.274000000000000132,-25.600397439793415089
0.275000000000000133,-25.379315525264452447
0.276000000000000134,-25.158152905546113942
0.277000000000000135,-24.937160449117893535
0.278000000000000136,-24.716566877772756072
0.279000000000000137,-24.496579234624608290
0.280000000000000138,-24.277383430085684779
0.281000000000000139,-24.059144857412952945
0.282000000000000139,-23.842009069634443108
0.283000000000000140,-23.626102509920162476
0.284000000000000141,-23.411533287748888199
0.285000000000000142,-23.198391993539512868
0.286000000000000143,-22.986752544753787930
0.287000000000000144,-22.776673056834937370
0.288000000000000145,-22.568196732717058950
0.289000000000000146,-22.361352765019244515
0.290000000000000147,-22.156157245423166557
0.291000000000000147,-21.952614076119296271
0.292000000000000148,-21.750715878592174590
0.293000000000000149,-21.550444895396289269
0.294000000000000150,-21.351773880949210138
0.295000000000000151,-21.154666977735740119
0.296000000000000152,-20.959080574673020436
0.297000000000000153,-20.764964144732658724
0.298000000000000154,-20.572261059247864523
0.299000000000000155,-20.380909376653015386
0.300000000000000155,-20.190842603707682912
0.301000000000000156,-20.001990427546445517
0.302000000000000157,-19.814279417170041597
0.303000000000000158,-19.627633693252068525
0.304000000000000159,-19.441975565378012192
0.305000000000000160,-19.257226136059919952
0.306000000000000161,-19.073305871081849716
0.307000000000000162,-18.890135135926527710
0.308000000000000163,-18.707634698214242519
0.309000000000000163,-18.525726196250957400
0.310000000000000164,-18.344332573933900932
0.311000000000000165,-18.163378482400069913
0.312000000000000166,-17.982790648927625909
0.313000000000000167,-17.802498213710862274
0.314000000000000168,-17.622433035228525000
0.315000000000000169,-17.442529965012351312
0.316000000000000170,-17.262727092698785469
0.317000000000000171,-17.082965962312364638
0.318000000000000171,-16.903191760784828546
0.319000000000000172,-16.723353479760447726
0.320000000000000173,-16.543404051775741692
0.321000000000000174,-16.363300461931164165
0.322000000000000175,-16.183003836194419733
0.323000000000000176,-16.002479507490328103
0.324000000000000177,-15.821697060740277152
0.325000000000000178,-15.640630358017602930
0.326000000000000179,-15.459257544982250465
0.327000000000000179,-15.277561039750580107
0.328000000000000180,-15.095527505344179531
0.329000000000000181,-14.913147806845913124
0.330000000000000182,-14.730416954371227334
0.331000000000000183,-14.547334032940920423
0.332000000000000184,-14.363902120315355404
0.333000000000000185,-14.180128193822870486
0.334000000000000186,-13.996023027184657295
0.335000000000000187,-13.811601078307015555
0.336000000000000187,-13.626880368978635971
0.337000000000000188,-13.441882357375877888
0.338000000000000189,-13.256631804244170425
0.339000000000000190,-13.071156633587111884
0.340000000000000191,-12.885487788658400277
0.341000000000000192,-12.699659084015371135
0.342000000000000193,-12.513707054354854975
0.343000000000000194,-12.327670800816390440
0.344000000000000195,-12.141591835400003418
0.345000000000000195,-11.955513924110132251
0.346000000000000196,-11.769482929400796323
0.347000000000000197,-11.583546652461974347
0.348000000000000198,-11.397754675852411310
0.349000000000000199,-11.212158206949812467
0.350000000000000200,-11.026809922656642726
0.351000000000000201,-10.841763815766899626
0.352000000000000202,-10.657075043368324785
0.353000000000000203,-10.472799777623835737
0.354000000000000203,-10.288995059246605734
0.355000000000000204,-10.105718653954950170
0.356000000000000205,-9.923028912165905879
0.357000000000000206,-9.740984632160062162
0.358000000000000207,-9.559644926925148667
0.359000000000000208,-9.379069094862080291
0.360000000000000209,-9.199316494513841036
0.361000000000000210,-9.020446423456208507
0.362000000000000210,-8.842518001468228306
0.363000000000000211,-8.665590058080956837
0.364000000000000212,-8.489721024584252262
0.365000000000000213,-8.314968830553823409
0.366000000000000214,-8.141390804944322213
0.367000000000000215,-7.969043581778649354
0.368000000000000216,-7.797983010449025087
0.369000000000000217,-7.628264070631937344
0.370000000000000218,-7.459940791806232596
0.371000000000000218,-7.293066177351853696
0.372000000000000219,-7.127692133195814961
0.373000000000000220,-6.963869400961920419
0.374000000000000221,-6.801647495571446989
0.375000000000000222,-6.641074647233398132
0.376000000000000223,-6.482197747755267692
0.377000000000000224,-6.325062301098107298
0.378000000000000225,-6.169712378093430871
0.379000000000000226,-6.016190575233546944
0.380000000000000226,-5.864537977442039640
0.381000000000000227,-5.714794124726354951
0.382000000000000228,-5.566996982610704414
0.383000000000000229,-5.421182916243957983
0.384000000000000230,-5.277386668074151466
0.385000000000000231,-5.135641338979112902
0.386000000000000232,-4.995978372740358608
0.387000000000000233,-4.858427543745976074
0.388000000000000234,-4.723016947807056276
0.389000000000000234,-4.589772995971428848
0.390000000000000235,-4.458720411217742985
0.391000000000000236,-4.329882227913267378
0.392000000000000237,-4.203279793918337504
0.393000000000000238,-4.078932775221391083
0.394000000000000239,-3.956859162988772827
0.395000000000000240,-3.837075282914688135
0.396000000000000241,-3.719595806757735268
0.397000000000000242,-3.604433765951757351
0.398000000000000242,-3.491600567180439096
0.399000000000000243,-3.381106009806616353
0.400000000000000244,-3.272958305049042060
0.401000000000000245,-3.167164096801774242
0.402000000000000246,-3.063728483992883778
0.403000000000000247,-2.962655044381722114
0.404000000000000248,-2.863945859696325869
0.405000000000000249,-2.767601542014757499
0.406000000000000250,-2.673621261296751150
0.407000000000000250,-2.582002773974525489
0.408000000000000251,-2.492742452514159268
0.409000000000000252,-2.405835315861677870
0.410000000000000253,-2.321275060690375369
0.411000000000000254,-2.239054093368896936
0.412000000000000255,-2.159163562571958739
0.413000000000000256,-2.081593392458563674
0.414000000000000257,-2.006332316344960454
0.415000000000000258,-1.933367910802570977
0.416000000000000258,-1.862686630113567166
0.417000000000000259,-1.794273841019486282
0.418000000000000260,-1.728113857701022882
0.419000000000000261,-1.664189976929462134
0.420000000000000262,-1.602484513333169103
0.421000000000000263,-1.542978834724763715
0.422000000000000264,-1.485653397437253442
0.423000000000000265,-1.430487781619838250
0.424000000000000266,-1.377460726446593231
0.425000000000000266,-1.326550165193427722
0.426000000000000267,-1.277733260141192595
0.427000000000000268,-1.230986437265056299
0.428000000000000269,-1.186285420672442248
0.429000000000000270,-1.143605266753993988
0.430000000000000271,-1.102920398014229253
0.431000000000000272,-1.064204636550466265
0.432000000000000273,-1.027431237150722598
0.433000000000000274,-0.992572919983176760
0.434000000000000274,-0.959601902851692445
0.435000000000000275,-0.928489932993684874
0.436000000000000276,-0.899208318398479478
0.437000000000000277,-0.871727958625900134
0.438000000000000278,-0.846019375106591198
0.439000000000000279,-0.822052740907137980
0.440000000000000280,-0.799797909944554797
0.441000000000000281,-0.779224445636237384
0.442000000000000282,-0.760301648972955713
0.443000000000000282,-0.742998586003678851
0.444000000000000283,-0.727284114722555275
0.445000000000000284,-0.713126911349484471
0.446000000000000285,-0.700495495996929174
0.447000000000000286,-0.689358257716959022
0.448000000000000287,-0.679683478923354345
0.449000000000000288,-0.671439359184904161
0.450000000000000289,-0.664594038386934760
0.451000000000000290,-0.659115619259026952
0.452000000000000290,-0.654972189267908123
0.453000000000000291,-0.652131841875311702
0.454000000000000292,-0.650562697161428560
0.455000000000000293,-0.650232921815366516
0.456000000000000294,-0.651110748494807656
0.457000000000000295,-0.653164494557646913
0.458000000000000296,-0.656362580169263632
0.459000000000000297,-0.660673545789423500
0.460000000000000298,-0.666066069043695919
0.461000000000000298,-0.672508980984494187
0.462000000000000299,-0.679971281747716594
0.463000000000000300,-0.688422155611119968
0.464000000000000301,-0.697830985461220576
0.465000000000000302,-0.708167366675807819
0.466000000000000303,-0.719401120429692176
0.467000000000000304,-0.731502306431381144
0.468000000000000305,-0.744441235099097542
0.469000000000000306,-0.758188479184492836
0.470000000000000306,-0.772714884852853778
0.471000000000000307,-0.787991582228883325
0.472000000000000308,-0.803989995417249026
0.473000000000000309,-0.820681852007349777
0.474000000000000310,-0.838039192071897254
0.475000000000000311,-0.856034376669212227
0.476000000000000312,-0.874640095858943534
0.477000000000000313,-0.893829376241448315
0.478000000000000314,-0.913575588030817287
0.479000000000000314,-0.933852451671845829
0.480000000000000315,-0.954634044011149596
0.481000000000000316,-0.975894804032823693
0.482000000000000317,-0.997609538168925725
0.483000000000000318,-1.019753425195206287
0.484000000000000319,-1.042302020722417399
0.485000000000000320,-1.065231261293619003
0.486000000000000321,-1.088517468097781382
0.487000000000000322,-1.112137350310001827
0.488000000000000322,-1.136068008068658042
0.489000000000000323,-1.160286935099604344
0.490000000000000324,-1.184772020997693520
0.491000000000000325,-1.209501553175601707
0.492000000000000326,-1.234454218490011357
0.493000000000000327,-1.259609104555016845
0.494000000000000328,-1.284945700752620379
0.495000000000000329,-1.310443898949979369
0.496000000000000330,-1.336083993933038894
0.497000000000000330,-1.361846683565997251
0.498000000000000331,-1.387713068686057927
0.499000000000000332,-1.413664652742537609
0.500000000000000333,-1.439683341189639032
0.501000000000000334,-1.465751440641735570
0.502000000000000335,-1.491851657800022490
0.503000000000000336,-1.517967098159268113
0.504000000000000337,-1.544081264503181172
0.505000000000000338,-1.570178055196806310
0.506000000000000338,-1.596241762284201560
0.507000000000000339,-1.622257069399514418
0.508000000000000340,-1.648209049499394840
0.509000000000000341,-1.674083162424498727
0.510000000000000342,-1.699865252297809493
0.511000000000000343,-1.725541544767163149
0.512000000000000344,-1.751098644099374990
0.513000000000000345,-1.776523530133060635
0.514000000000000346,-1.801803555097243548
0.515000000000000346,-1.826926440302508947
0.516000000000000347,-1.851880272711440956
0.517000000000000348,-1.876653501394879742
0.518000000000000349,-1.901234933880345590
0.519000000000000350,-1.925613732398825828
0.520000000000000351,-1.949779410036080574
0.521000000000000352,-1.973721826794234913
0.522000000000000353,-1.997431185569493284
0.523000000000000353,-2.020898028051583140
0.524000000000000354,-2.044113230550289817
0.525000000000000355,-2.067067999754470087
0.526000000000000356,-2.089753868428617878
0.527000000000000357,-2.112162691051993058
0.528000000000000358,-2.134286639405253982
0.529000000000000359,-2.156118198109090223
0.530000000000000360,-2.177650160119682266
0.531000000000000361,-2.198875622185197720
0.532000000000000361,-2.219787980267740046
0.533000000000000362,-2.240380924934822549
0.534000000000000363,-2.260648436724442600
0.535000000000000364,-2.280584781487589030
0.536000000000000365,-2.300184505711968974
0.537000000000000366,-2.319442431830562867
0.538000000000000367,-2.338353653518517206
0.539000000000000368,-2.356913530981736837
0.540000000000000369,-2.375117686240458603
0.541000000000000369,-2.392961998410898961
0.542000000000000370,-2.410442598988054463
0.543000000000000371,-2.427555867132497269
0.544000000000000372,-2.444298424964014060
0.545000000000000373,-2.460667132864718276
0.546000000000000374,-2.476659084794281540
0.547000000000000375,-2.492271603619671705
0.548000000000000376,-2.507502236461850220
0.549000000000000377,-2.522348750061622180
0.550000000000000377,-2.536809126166869710
0.551000000000000378,-2.550881556943203510
0.552000000000000379,-2.564564440410031843
0.553000000000000380,-2.577856375903923691
0.554000000000000381,-2.590756159571086403
0.555000000000000382,-2.603262779890656464
0.556000000000000383,-2.615375413230421220
0.557000000000000384,-2.627093419436545396
0.558000000000000385,-2.638416337458747929
0.559000000000000385,-2.649343881012338642
0.560000000000000386,-2.659875934278371101
0.561000000000000387,-2.670012547643239920
0.562000000000000388,-2.679753933478798533
0.563000000000000389,-2.689100461964161859
0.564000000000000390,-2.698052656950159278
0.565000000000000391,-2.706611191867460242
0.566000000000000392,-2.714776885679240692
0.567000000000000393,-2.722550698879211417
0.568000000000000393,-2.729933729535811260
0.569000000000000394,-2.736927209383275716
0.570000000000000395,-2.743532499960242177
0.571000000000000396,-2.749751088796467346
0.572000000000000397,-2.755584585648269247
0.573000000000000398,-2.761034718783153430
0.574000000000000399,-2.766103331314060831
0.575000000000000400,-2.770792377583705779
0.576000000000000401,-2.775103919599283930
0.577000000000000401,-2.779040123517922289
0.578000000000000402,-2.782603256183116880
0.579000000000000403,-2.785795681712386784
0.580000000000000404,-2.788619858136328844
0.581000000000000405,-2.791078334089250212
0.582000000000000406,-2.793173745551443155
0.583000000000000407,-2.794908812643223772
0.584000000000000408,-2.796286336470764411
0.585000000000000409,-2.797309196023692213
0.586000000000000409,-2.797980345124498225
0.587000000000000410,-2.798302809429649152
0.588000000000000411,-2.798279683482332025
0.589000000000000412,-2.797914127816743424
0.590000000000000413,-2.797209366113749152
0.591000000000000414,-2.796168682407782491
0.592000000000000415,-2.794795418344780735
0.593000000000000416,-2.793092970490930860
0.594000000000000417,-2.791064787692040472
0.595000000000000417,-2.788714368483204531
0.596000000000000418,-2.786045258548564441
0.597000000000000419,-2.783061048230822898
0.598000000000000420,-2.779765370090201859
0.599000000000000421,-2.776161896512530092
0.600000000000000422,-2.772254337366104160
0.601000000000000423,-2.768046437706944030
0.602000000000000424,-2.763541975532088024
0.603000000000000425,-2.758744759580534556
0.604000000000000425,-2.753658627181382101
0.605000000000000426,-2.748287442148817927
0.606000000000000427,-2.742635092723462176
0.607000000000000428,-2.736705489559660975
0.608000000000000429,-2.730502563758261836
0.609000000000000430,-2.724030264944424573
