# Cu001_ARGSCA-JS
# h[nm],U(h)[kJ/mol]
0.149999999999999994,97.191189975596529393
0.150999999999999995,91.094696574229558905
0.151999999999999996,86.223455553807710317
0.152999999999999997,81.694965032039661423
0.153999999999999998,77.164933848753619827
0.154999999999999999,72.557307639398729293
0.156000000000000000,67.910692066063958805
0.157000000000000001,63.296542953523257324
0.158000000000000002,58.780114933793470300
0.159000000000000002,54.405687615979957172
0.160000000000000003,50.194594068734915027
0.161000000000000004,46.149167794667462772
0.162000000000000005,42.258676558301189630
0.163000000000000006,38.505163578430824600
0.164000000000000007,34.868240926181130135
0.165000000000000008,31.328531166285348064
0.166000000000000009,27.869803774041354671
0.167000000000000010,24.480017912873194064
0.168000000000000010,21.151538598333178953
0.169000000000000011,17.880788000061535570
0.170000000000000012,14.667558347938562946
0.171000000000000013,11.514166199507428701
0.172000000000000014,8.424580349067641194
0.173000000000000015,5.403612996648817557
0.174000000000000016,2.456228380712270898
0.175000000000000017,-0.413004524604959400
0.176000000000000018,-3.200308911711148063
0.177000000000000018,-5.902954212110183008
0.178000000000000019,-8.519383621549327046
0.179000000000000020,-11.049236031410469394
0.180000000000000021,-13.493284998306435796
0.181000000000000022,-15.853316961890296710
0.182000000000000023,-18.131969125281273136
0.183000000000000024,-20.332544811128080653
0.184000000000000025,-22.458821125689816256
0.185000000000000026,-24.514860710135401689
0.186000000000000026,-26.504836441595621466
0.187000000000000027,-28.432875298432172428
0.188000000000000028,-30.302925298144536725
0.189000000000000029,-32.118647482556269779
0.190000000000000030,-33.883333363159827911
0.191000000000000031,-35.599847029091044703
0.192000000000000032,-37.270590227885172396
0.193000000000000033,-38.897488114924570368
0.194000000000000034,-40.481992988816642765
0.195000000000000034,-42.025103144848586112
0.196000000000000035,-43.527393947609091640
0.197000000000000036,-44.989058310998913726
0.198000000000000037,-46.409953947627229809
0.199000000000000038,-47.789654982996154331
0.200000000000000039,-49.127505800365909749
0.201000000000000040,-50.422675271425092092
0.202000000000000041,-51.674209821351588801
0.203000000000000042,-52.881084063423330122
0.204000000000000042,-54.042248009843504519
0.205000000000000043,-55.156670116186049313
0.206000000000000044,-56.223375643212293085
0.207000000000000045,-57.241480019785150546
0.208000000000000046,-58.210217063571022322
0.209000000000000047,-59.128962062531982724
0.210000000000000048,-59.997249840994321346
0.211000000000000049,-60.814788030982541045
0.212000000000000050,-61.581465844536623422
0.213000000000000050,-62.297358698090889106
0.214000000000000051,-62.962729077983489390
0.215000000000000052,-63.578024059083986685
0.216000000000000053,-64.143869898594843448
0.217000000000000054,-64.661064126416519571
0.218000000000000055,-65.130565544019447088
0.219000000000000056,-65.553482527325257934
0.220000000000000057,-65.931060007277011437
0.221000000000000058,-66.264665475977238884
0.222000000000000058,-66.555774337751017811
0.223000000000000059,-66.805954894290238144
0.224000000000000060,-67.016853222067396700
0.225000000000000061,-67.190178169210525994
0.226000000000000062,-67.327686668614390442
0.227000000000000063,-67.431169534707962043
0.228000000000000064,-67.502437883379315053
0.229000000000000065,-67.543310288349076131
0.230000000000000066,-67.555600762976581564
0.231000000000000066,-67.541107634199605059
0.232000000000000067,-67.501603355109821791
0.233000000000000068,-67.438825284564472895
0.234000000000000069,-67.354467446200004588
0.235000000000000070,-67.250173265186319327
0.236000000000000071,-67.127529268953580299
0.237000000000000072,-66.988059727835079116
0.238000000000000073,-66.833222202978362247
0.239000000000000073,-66.664403961860259074
0.240000000000000074,-66.482919216165754506
0.241000000000000075,-66.290007132525786915
0.242000000000000076,-66.086830563519370685
0.243000000000000077,-65.874475444307861949
0.244000000000000078,-65.653950799155822438
0.245000000000000079,-65.426189301786379815
0.246000000000000080,-65.192048333910477709
0.247000000000000081,-64.952311487252842426
0.248000000000000081,-64.707690455878406510
0.249000000000000082,-64.458827267511836112
0.250000000000000111,-64.206296804762786223
0.251000000000000112,-63.950609569644527141
0.252000000000000113,-63.692214647441232955
0.253000000000000114,-63.431502828782484471
0.254000000000000115,-63.168809851670708611
0.255000000000000115,-62.904419728133916578
0.256000000000000116,-62.638568123106075802
0.257000000000000117,-62.371445756037395824
0.258000000000000118,-62.103201798577643444
0.259000000000000119,-61.833947244437389656
0.260000000000000120,-61.563758230196228283
0.261000000000000121,-61.292679288374230850
0.262000000000000122,-61.020726516509967041
0.263000000000000123,-60.747890648278939807
0.264000000000000123,-60.474140014839562696
0.265000000000000124,-60.199423386605943165
0.266000000000000125,-59.923672687513636959
0.267000000000000126,-59.646805575569985081
0.268000000000000127,-59.368727885064537020
0.269000000000000128,-59.089335927259654113
0.270000000000000129,-58.808518647693936998
0.271000000000000130,-58.526159639411673652
0.272000000000000131,-58.242139012490177663
0.273000000000000131,-57.956335121175939662
0.274000000000000132,-57.668626150768339755
0.275000000000000133,-57.378891567112432881
0.276000000000000134,-57.087013432184733119
0.277000000000000135,-56.792877589788659520
0.278000000000000136,-56.496374725820558638
0.279000000000000137,-56.197401307934889303
0.280000000000000138,-55.895860409731049856
0.281000000000000139,-55.591662424811239873
0.282000000000000139,-55.284725676226820212
0.283000000000000140,-54.974976926942325406
0.284000000000000141,-54.662351797009193888
0.285000000000000142,-54.346795093161098578
0.286000000000000143,-54.028261056521344585
0.287000000000000144,-53.706713534058721393
0.288000000000000145,-53.382126079343080960
0.289000000000000146,-53.054481988039732698
0.290000000000000147,-52.723774273448690053
0.291000000000000147,-52.390005587241056162
0.292000000000000148,-52.053188090376082187
0.293000000000000149,-51.713343279000369535
0.294000000000000150,-51.370501769937980896
0.295000000000000151,-51.024703050180505670
0.296000000000000152,-50.675995194578533187
0.297000000000000153,-50.324434555727812324
0.298000000000000154,-49.970085429829509849
0.299000000000000155,-49.613019702092330476
0.300000000000000155,-49.253316475032008270
0.301000000000000156,-48.891061682814431322
0.302000000000000157,-48.526347694581282610
0.303000000000000158,-48.159272909495257409
0.304000000000000159,-47.789941346044038539
0.305000000000000160,-47.418462227949518706
0.306000000000000161,-47.044949568843037468
0.307000000000000162,-46.669521757687626007
0.308000000000000163,-46.292301146754930130
0.309000000000000163,-45.913413643799323438
0.310000000000000164,-45.532988309912610703
0.311000000000000165,-45.151156964391987003
0.312000000000000166,-44.768053797810324568
0.313000000000000167,-44.383814994341754812
0.314000000000000168,-43.998578364266698770
0.315000000000000169,-43.612482987459848971
0.316000000000000170,-43.225668868549931290
0.317000000000000171,-42.838276604334396325
0.318000000000000171,-42.450447063931356695
0.319000000000000172,-42.062321082058879540
0.320000000000000173,-41.674039165745412561
0.321000000000000174,-41.285741214694681389
0.322000000000000175,-40.897566255455195972
0.323000000000000176,-40.509652189476341277
0.324000000000000177,-40.122135555070826740
0.325000000000000178,-39.735151303246439625
0.326000000000000179,-39.348832587318852916
0.327000000000000179,-38.963310566169752747
0.328000000000000180,-38.578714220973040483
0.329000000000000181,-38.195170185174383448
0.330000000000000182,-37.812802587474884319
0.331000000000000183,-37.431732907541437783
0.332000000000000184,-37.052079844139093723
0.333000000000000185,-36.673959195359188357
0.334000000000000186,-36.297483750597500318
0.335000000000000187,-35.922763193919877267
0.336000000000000187,-35.549904018440500408
0.337000000000000188,-35.179009451325661928
0.338000000000000189,-34.810179389028810704
0.339000000000000190,-34.443510342355331488
0.340000000000000191,-34.079095390951621880
0.341000000000000192,-33.717024146811453988
0.342000000000000193,-33.357382726390156336
0.343000000000000194,-33.000253730920228179
0.344000000000000195,-32.645716234522510035
0.345000000000000195,-32.293845779711688238
0.346000000000000196,-31.944714379899199486
0.347000000000000197,-31.598390528502449115
0.348000000000000198,-31.254939214275964332
0.349000000000000199,-30.914421942487365413
0.350000000000000200,-30.576896761569663852
0.351000000000000201,-30.242418294889411357
0.352000000000000202,-29.911037777280419903
0.353000000000000203,-29.582803096001736520
0.354000000000000203,-29.257758835789140051
0.355000000000000204,-28.935946327679527457
0.356000000000000205,-28.617403701298577801
0.357000000000000206,-28.302165940312381309
0.358000000000000207,-27.990264940755100298
0.359000000000000208,-27.681729571955457914
0.360000000000000209,-27.376585739796162500
0.361000000000000210,-27.074856452050955369
0.362000000000000210,-26.776561885555416609
0.363000000000000211,-26.481719454978325246
0.364000000000000212,-26.190343882971006906
0.365000000000000213,-25.902447271483026725
0.366000000000000214,-25.618039174042969819
0.367000000000000215,-25.337126668812935293
0.368000000000000216,-25.059714432236294357
0.369000000000000217,-24.785804813107098710
0.370000000000000218,-24.515397906900044944
0.371000000000000218,-24.248491630208729219
0.372000000000000219,-23.985081795149095996
0.373000000000000220,-23.725162183594285636
0.374000000000000221,-23.468724621115008233
0.375000000000000222,-23.215759050508424366
0.376000000000000223,-22.966253604806315280
0.377000000000000224,-22.720194679661016579
0.378000000000000225,-22.477567005015380630
0.379000000000000226,-22.238353715969711999
0.380000000000000226,-22.002536422766144852
0.381000000000000227,-21.770095279816935374
0.382000000000000228,-21.541009053710126864
0.383000000000000229,-21.315255190131590979
0.384000000000000230,-21.092809879648481086
0.385000000000000231,-20.873648122304985009
0.386000000000000232,-20.657743790985833243
0.387000000000000233,-20.445069693508862940
0.388000000000000234,-20.235597633412073293
0.389000000000000234,-20.029298469405702576
0.390000000000000235,-19.826142173463516372
0.391000000000000236,-19.626097887532420572
0.392000000000000237,-19.429133978842408226
0.393000000000000238,-19.235218093803354122
0.394000000000000239,-19.044317210477938573
0.395000000000000240,-18.856397689623666025
0.396000000000000241,-18.671425324299661952
0.397000000000000242,-18.489365388036890891
0.398000000000000242,-18.310182681573166974
0.399000000000000243,-18.133841578156619789
0.400000000000000244,-17.960306067423616128
0.401000000000000245,-17.789539797859621473
0.402000000000000246,-17.621506117852916873
0.403000000000000247,-17.456168115353253967
0.404000000000000248,-17.293488656149268223
0.405000000000000249,-17.133430420779880876
0.406000000000000250,-16.975955940096429941
0.407000000000000250,-16.821027629493432443
0.408000000000000251,-16.668607821827276183
0.409000000000000252,-16.518658799043151930
0.410000000000000253,-16.371142822531233207
0.411000000000000254,-16.226022162234460922
0.412000000000000255,-16.083259124530556505
0.413000000000000256,-15.942816078912006361
0.414000000000000257,-15.804655483487858092
0.415000000000000258,-15.668739909332197513
0.416000000000000258,-15.535032063704198535
0.417000000000000259,-15.403494812165163808
0.418000000000000260,-15.274091199618300863
0.419000000000000261,-15.146784470296967839
0.420000000000000262,-15.021538086727664663
0.421000000000000263,-14.898315747693823496
0.422000000000000264,-14.777081405226544675
0.423000000000000265,-14.657799280648589502
0.424000000000000266,-14.540433879697832964
0.425000000000000266,-14.424950006756173337
0.426000000000000267,-14.311312778209838825
0.427000000000000268,-14.199487634967052685
0.428000000000000269,-14.089440354158451640
0.429000000000000270,-13.981137060045710996
0.430000000000000271,-13.874544234163590062
0.431000000000000272,-13.769628724720021751
0.432000000000000273,-13.666357755278928821
0.433000000000000274,-13.564698932749923443
0.434000000000000274,-13.464620254708657754
0.435000000000000275,-13.366090116071410066
0.436000000000000276,-13.269077315146958540
0.437000000000000277,-13.173551059088367765
0.438000000000000278,-13.079480968767091653
0.439000000000000279,-12.986837083091231193
0.440000000000000280,-12.895589862789297086
0.441000000000000281,-12.805710193680585718
0.442000000000000282,-12.717169389452742223
0.443000000000000282,-12.629939193966459143
0.444000000000000283,-12.543991783107154347
0.445000000000000284,-12.459299766202759585
0.446000000000000285,-12.375836187026262536
0.447000000000000286,-12.293574524401496006
0.448000000000000287,-12.212488692429737114
0.449000000000000288,-12.132553040354727258
0.450000000000000289,-12.053742352082812417
0.451000000000000290,-11.976031845374789597
0.452000000000000290,-11.899397170725357853
0.453000000000000291,-11.823814409945757831
0.454000000000000292,-11.749260074464720205
0.455000000000000293,-11.675711103362269583
0.456000000000000294,-11.603144861150745726
0.457000000000000295,-11.531539135316659639
0.458000000000000296,-11.460872133636881287
0.459000000000000297,-11.391122481281971801
0.460000000000000298,-11.322269217719272305
0.461000000000000298,-11.254291793427738000
0.462000000000000299,-11.187170066436364024
0.463000000000000300,-11.120884298697379933
0.464000000000000301,-11.055415152305180015
0.465000000000000302,-10.990743685571576549
0.466000000000000303,-10.926851348967471012
0.467000000000000304,-10.863719980940711451
0.468000000000000305,-10.801331803619719452
0.469000000000000306,-10.739669418411802226
0.470000000000000306,-10.678715801505024530
0.471000000000000307,-10.618454299281957276
0.472000000000000308,-10.558868623653479446
0.473000000000000309,-10.499942847320319572
0.474000000000000310,-10.441661398969767305
0.475000000000000311,-10.384009058414829241
0.476000000000000312,-10.326970951682589828
0.477000000000000313,-10.270532546058275258
0.478000000000000314,-10.214679645091456095
0.479000000000000314,-10.159398383570330537
0.480000000000000315,-10.104675222469740703
0.481000000000000316,-10.050496943878583167
0.482000000000000317,-9.996850645911729671
0.483000000000000318,-9.943723737611472657
0.484000000000000319,-9.891103933843243823
0.485000000000000320,-9.838979250190231340
0.486000000000000321,-9.787337997851050631
0.487000000000000322,-9.736168778544664448
0.488000000000000322,-9.685460479426414082
0.489000000000000323,-9.635202268018835170
0.490000000000000324,-9.585383587160746899
0.491000000000000325,-9.535994149977963019
0.492000000000000326,-9.487023934878621390
0.493000000000000327,-9.438463180576238898
0.494000000000000328,-9.390302381143111887
0.495000000000000329,-9.342532281096795899
0.496000000000000330,-9.295143870522021956
0.497000000000000330,-9.248128380230404844
0.498000000000000331,-9.201477276960059015
0.499000000000000332,-9.155182258617179158
0.500000000000000333,-9.109235249561400849
0.501000000000000334,-9.063628395936737192
0.502000000000000335,-9.018354061049659975
0.503000000000000336,-8.973404820795883197
0.504000000000000337,-8.928773459137170576
0.505000000000000338,-8.884452963629453137
0.506000000000000338,-8.840436521003443460
0.507000000000000339,-8.796717512798752026
0.508000000000000340,-8.753289511052539495
0.509000000000000341,-8.710146274043488290
0.510000000000000342,-8.667281742091931918
0.511000000000000343,-8.624690033416779755
0.512000000000000344,-8.582365440049892769
0.513000000000000345,-8.540302423808387999
0.514000000000000346,-8.498495612325351445
0.515000000000000346,-8.456939795139350124
0.516000000000000347,-8.415629919842979589
0.517000000000000348,-8.374561088290823463
0.518000000000000349,-8.333728552866839223
0.519000000000000350,-8.293127712811426022
0.520000000000000351,-8.252754110608213622
0.521000000000000352,-8.212603428430508501
0.522000000000000353,-8.172671484647457518
0.523000000000000353,-8.132954230389756844
0.524000000000000354,-8.093447746174874169
0.525000000000000355,-8.054148238591464448
0.526000000000000356,-8.015052037042911692
0.527000000000000357,-7.976155590549640628
0.528000000000000358,-7.937455464609952216
0.529000000000000359,-7.898948338119010870
0.530000000000000360,-7.860631000345684072
0.531000000000000361,-7.822500347966818701
0.532000000000000361,-7.784553382158497570
0.533000000000000362,-7.746787205743896898
0.534000000000000363,-7.709199020397244695
0.535000000000000364,-7.671786123903350685
0.536000000000000365,-7.634545907472291226
0.537000000000000366,-7.597475853108599964
0.538000000000000367,-7.560573531034475714
0.539000000000000368,-7.523836597166480900
0.540000000000000369,-7.487262790644990673
0.541000000000000369,-7.450849931416001937
0.542000000000000370,-7.414595917864517105
0.543000000000000371,-7.378498724498943950
0.544000000000000372,-7.342556399685915558
0.545000000000000373,-7.306767063434806531
0.546000000000000374,-7.271128905231345030
0.547000000000000375,-7.235640181919604785
0.548000000000000376,-7.200299215631838834
0.549000000000000377,-7.165104391765299674
0.550000000000000377,-7.130054157005474735
0.551000000000000378,-7.095147017395079914
0.552000000000000379,-7.060381536448025130
0.553000000000000380,-7.025756333307759505
0.554000000000000381,-6.991270080949237631
0.555000000000000382,-6.956921504423881686
0.556000000000000383,-6.922709379146747999
0.557000000000000384,-6.888632529225318990
0.558000000000000385,-6.854689825829163752
0.559000000000000385,-6.820880185599790480
0.560000000000000386,-6.787202569099970439
0.561000000000000387,-6.753655979301934842
0.562000000000000388,-6.720239460113683450
0.563000000000000389,-6.686952094942727243
0.564000000000000390,-6.653793005296632757
0.565000000000000391,-6.620761349419663766
0.566000000000000392,-6.587856320964881718
0.567000000000000393,-6.555077147700981932
0.568000000000000393,-6.522423090253279376
0.569000000000000394,-6.489893440878129027
0.570000000000000395,-6.457487522270208835
0.571000000000000396,-6.425204686401909449
0.572000000000000397,-6.393044313394319111
0.573000000000000398,-6.361005810419091411
0.574000000000000399,-6.329088610630597245
0.575000000000000400,-6.297292172127756160
0.576000000000000401,-6.265615976944912013
0.577000000000000401,-6.234059530071189847
0.578000000000000402,-6.202622358497682065
0.579000000000000403,-6.171304010291935427
0.580000000000000404,-6.140104053699110054
0.581000000000000405,-6.109022076269288171
0.582000000000000406,-6.078057684010291339
0.583000000000000407,-6.047210500565528335
0.584000000000000408,-6.016480166416279474
0.585000000000000409,-5.985866338107866724
0.586000000000000409,-5.955368687499221991
0.587000000000000410,-5.924986901035263820
0.588000000000000411,-5.894720679041620670
0.589000000000000412,-5.864569735041146537
0.590000000000000413,-5.834533795091755515
0.591000000000000414,-5.804612597145056618
0.592000000000000415,-5.774805890425335875
0.593000000000000416,-5.745113434828347465
0.594000000000000417,-5.715535000339508009
0.595000000000000417,-5.686070366471004611
0.596000000000000418,-5.656719321717306848
0.597000000000000419,-5.627481663028773617
0.598000000000000420,-5.598357195302734901
0.599000000000000421,-5.569345730891763324
0.600000000000000422,-5.540447089128635483
0.601000000000000423,-5.511661095867607330
0.602000000000000424,-5.482987583041526669
0.603000000000000425,-5.454426388234482559
0.604000000000000425,-5.425977354269503117
0.605000000000000426,-5.397640328810973109
0.606000000000000427,-5.369415163981376082
