# Cu001_AMAN-JS
# h[nm],U(h)[kJ/mol]
0.149999999999999994,125.933666506272544439
0.150999999999999995,121.458214546392099464
0.151999999999999996,116.725243447943853425
0.152999999999999997,112.099608162259784194
0.153999999999999998,107.662001501506239265
0.154999999999999999,103.386465717344364634
0.156000000000000000,99.224638272416683549
0.157000000000000001,95.139485695978592616
0.158000000000000002,91.113674673916335678
0.159000000000000002,87.146785977066912210
0.160000000000000003,83.248936868657310129
0.161000000000000004,79.434475224903764001
0.162000000000000005,75.717214336859811397
0.163000000000000006,72.107522959874629009
0.164000000000000007,68.611043359698399513
0.165000000000000008,65.228612813754381250
0.166000000000000009,61.956947146932350279
0.167000000000000010,58.789711167781412371
0.168000000000000010,55.718695319490919360
0.169000000000000011,52.734911532008467816
0.170000000000000012,49.829500803558779864
0.171000000000000013,46.994406009243895994
0.172000000000000014,44.222806142523388928
0.173000000000000015,41.509335192174937390
0.174000000000000016,38.850123472189260099
0.175000000000000017,36.242704768685868544
0.176000000000000018,33.685832056675216961
0.177000000000000018,31.179240130087329419
0.178000000000000019,28.723387077240069232
0.179000000000000020,26.319199409175087823
0.180000000000000021,23.967838674649328823
0.181000000000000022,21.670501103870577708
0.182000000000000023,19.428256494241843200
0.183000000000000024,17.241928288430294458
0.184000000000000025,15.112013581569959442
0.185000000000000026,13.038639539877015849
0.186000000000000026,11.021551286666571912
0.187000000000000027,9.060125566779166917
0.188000000000000028,7.153404289886313272
0.189000000000000029,5.300142240537361715
0.190000000000000030,3.498863707780778931
0.191000000000000031,1.747923428175497618
0.192000000000000032,0.045567970652972536
0.193000000000000033,-1.610005544119615051
0.194000000000000034,-3.220595751172052879
0.195000000000000034,-4.787950042344737867
0.196000000000000035,-6.313725306855019426
0.197000000000000036,-7.799456921398054021
0.198000000000000037,-9.246536054301365937
0.199000000000000038,-10.656194991962482987
0.200000000000000039,-12.029499923972664988
0.201000000000000040,-13.367350428529011452
0.202000000000000041,-14.670484772953646058
0.203000000000000042,-15.939490075633006683
0.204000000000000042,-17.174816355622738229
0.205000000000000043,-18.376793515040713345
0.206000000000000044,-19.545650348372525684
0.207000000000000045,-20.681534743973308821
0.208000000000000046,-21.784534329375301098
0.209000000000000047,-22.854696907514163939
0.210000000000000048,-23.892050130668462060
0.211000000000000049,-24.896619958708647857
0.212000000000000050,-25.868447544985901487
0.213000000000000050,-26.807604284436287401
0.214000000000000051,-27.714204842507065507
0.215000000000000052,-28.588418059176923691
0.216000000000000053,-29.430475688988007477
0.217000000000000054,-30.240678995381351513
0.218000000000000055,-31.019403265801418712
0.219000000000000056,-31.767100353325854911
0.220000000000000057,-32.484299381500754578
0.221000000000000058,-33.171605772244269872
0.222000000000000058,-33.829698772865995693
0.223000000000000059,-34.459327668192131000
0.224000000000000060,-35.061306868286372662
0.225000000000000061,-35.636510062092064288
0.226000000000000062,-36.185863623241608877
0.227000000000000063,-36.710339447001118174
0.228000000000000064,-37.210947387496688066
0.229000000000000065,-37.688727452610898183
0.230000000000000066,-38.144741900777262344
0.231000000000000066,-38.580067369823609624
0.232000000000000067,-38.995787153429915861
0.233000000000000068,-39.392983726035161851
0.234000000000000069,-39.772731602447166210
0.235000000000000070,-40.136090604227504741
0.236000000000000071,-40.484099591336885737
0.237000000000000072,-40.817770704693785433
0.238000000000000073,-41.138084153329359083
0.239000000000000073,-41.445983568799377394
0.240000000000000074,-41.742371939490539035
0.241000000000000075,-42.028108128454263692
0.242000000000000076,-42.304003970421447889
0.243000000000000077,-42.570821936682250453
0.244000000000000078,-42.829273350523415331
0.245000000000000079,-43.080017130860170482
0.246000000000000080,-43.323659037531612626
0.247000000000000081,-43.560751388389093108
0.248000000000000081,-43.791793215733250122
0.249000000000000082,-44.017230827785098768
0.250000000000000111,-44.237458739642235628
0.251000000000000112,-44.452820937507091514
0.252000000000000113,-44.663612439818763278
0.253000000000000114,-44.870081119203547360
0.254000000000000115,-45.072429749832387813
0.255000000000000115,-45.270818245768602139
0.256000000000000116,-45.465366057160984781
0.257000000000000117,-45.656154692633080572
0.258000000000000118,-45.843230337891675674
0.259000000000000119,-46.026606542389572496
0.260000000000000120,-46.206266947787895560
0.261000000000000121,-46.382168033937560381
0.262000000000000122,-46.554241860112554718
0.263000000000000123,-46.722398781245956911
0.264000000000000123,-46.886530120928071597
0.265000000000000124,-47.046510784896966584
0.266000000000000125,-47.202201800675204879
0.267000000000000126,-47.353452770863853516
0.268000000000000127,-47.500104229387559940
0.269000000000000128,-47.641989891680793789
0.270000000000000129,-47.778938791411178499
0.271000000000000130,-47.910777297844241218
0.272000000000000131,-48.037331009361210477
0.273000000000000131,-48.158426519947695965
0.274000000000000132,-48.273893056672946500
0.275000000000000133,-48.383563987280275853
0.276000000000000134,-48.487278198008326058
0.277000000000000135,-48.584881342662960435
0.278000000000000136,-48.676226964765348271
0.279000000000000137,-48.761177495314150576
0.280000000000000138,-48.839605129324596078
0.281000000000000139,-48.911392584848456977
0.282000000000000139,-48.976433748640118893
0.283000000000000140,-49.034634213022144422
0.284000000000000141,-49.085911708820631816
0.285000000000000142,-49.130196439494071114
0.286000000000000143,-49.167431321773122477
0.287000000000000144,-49.197572138265812214
0.288000000000000145,-49.220587607572369393
0.289000000000000146,-49.236459377494639966
0.290000000000000147,-49.245181946927857553
0.291000000000000147,-49.246762521985353089
0.292000000000000148,-49.241220811839887972
0.293000000000000149,-49.228588769666615121
0.294000000000000150,-49.208910283950551445
0.295000000000000151,-49.182240825277126817
0.296000000000000152,-49.148647053560651443
0.297000000000000153,-49.108206390487552540
0.298000000000000154,-49.061006561758986777
0.299000000000000155,-49.007145113516330071
0.300000000000000155,-48.946728907123095098
0.301000000000000156,-48.879873596261127489
0.302000000000000157,-48.806703090080681307
0.303000000000000158,-48.727349005921986702
0.304000000000000159,-48.641950114904965119
0.305000000000000160,-48.550651783462960509
0.306000000000000161,-48.453605413678324965
0.307000000000000162,-48.350967885062907214
0.308000000000000163,-48.242901000215979934
0.309000000000000163,-48.129570936586823393
0.310000000000000164,-48.011147706370167043
0.311000000000000165,-47.887804626369501193
0.312000000000000166,-47.759717799477684252
0.313000000000000167,-47.627065609245889277
0.314000000000000168,-47.490028228840976965
0.315000000000000169,-47.348787145528660858
0.316000000000000170,-47.203524701665593000
0.317000000000000171,-47.054423653036124620
0.318000000000000171,-46.901666745231878508
0.319000000000000172,-46.745436308641863832
0.320000000000000173,-46.585913872498963428
0.321000000000000174,-46.423279798314233346
0.322000000000000175,-46.257712932924960114
0.323000000000000176,-46.089390281283442619
0.324000000000000177,-45.918486699022601272
0.325000000000000178,-45.745174604750971525
0.326000000000000179,-45.569623711953013867
0.327000000000000179,-45.392000780300278961
0.328000000000000180,-45.212469386116275416
0.329000000000000181,-45.031189711680227106
0.330000000000000182,-44.848318353003620018
0.331000000000000183,-44.664008145668574912
0.332000000000000184,-44.478408008275756913
0.333000000000000185,-44.291662803015427130
0.334000000000000186,-44.103913212844581437
0.335000000000000187,-43.915295634726831508
0.336000000000000187,-43.725942088371269278
0.337000000000000188,-43.535980139887470841
0.338000000000000189,-43.345532839761382604
0.339000000000000190,-43.154718674545264889
0.340000000000000191,-42.963651531647983006
0.341000000000000192,-42.772440676608084686
0.342000000000000193,-42.581190742229388491
0.343000000000000194,-42.390001728960982064
0.344000000000000195,-42.198969015905461788
0.345000000000000195,-42.008183381845526583
0.346000000000000196,-41.817731035685241636
0.347000000000000197,-41.627693655711581755
0.348000000000000198,-41.438148437092102938
0.349000000000000199,-41.249168147035774723
0.350000000000000200,-41.060821187057477744
0.351000000000000201,-40.873171661799815979
0.352000000000000202,-40.686279453881084578
0.353000000000000203,-40.500200304253517913
0.354000000000000203,-40.314985897572185536
0.355000000000000204,-40.130683952091018796
0.356000000000000205,-39.947338313620790018
0.357000000000000206,-39.764989053099519367
0.358000000000000207,-39.583672567344841298
0.359000000000000208,-39.403421682574908402
0.360000000000000209,-39.224265760302571948
0.361000000000000210,-39.046230805224936944
0.362000000000000210,-38.869339574748920541
0.363000000000000211,-38.693611689810254006
0.364000000000000212,-38.519063746661529990
0.365000000000000213,-38.345709429321892969
0.366000000000000214,-38.173559622397547741
0.367000000000000215,-38.002622523999846749
0.368000000000000216,-37.832903758503306335
0.369000000000000217,-37.664406488902059778
0.370000000000000218,-37.497131528539114242
0.371000000000000218,-37.331077451997785488
0.372000000000000219,-37.166240704959172092
0.373000000000000220,-37.002615712844480811
0.374000000000000221,-36.840194988074287608
0.375000000000000222,-36.678969235790368941
0.376000000000000223,-36.518927457898897160
0.377000000000000224,-36.360057055305709639
0.378000000000000225,-36.202343928227151082
0.379000000000000226,-36.045772574470220206
0.380000000000000226,-35.890326185588250496
0.381000000000000227,-35.735986740827300423
0.382000000000000228,-35.582735098789960659
0.383000000000000229,-35.430551086751542300
0.384000000000000230,-35.279413587573600353
0.385000000000000231,-35.129300624168095624
0.386000000000000232,-34.980189441473491740
0.387000000000000233,-34.832056585912297919
0.388000000000000234,-34.684877982306254296
0.389000000000000234,-34.538629008233229456
0.390000000000000235,-34.393284565815115172
0.391000000000000236,-34.248819150933485389
0.392000000000000237,-34.105206919874262894
0.393000000000000238,-33.962421753409110181
0.394000000000000239,-33.820437318325105025
0.395000000000000240,-33.679227126419974070
0.396000000000000241,-33.538764590983831226
0.397000000000000242,-33.399023080792218821
0.398000000000000242,-33.259975971639661907
0.399000000000000243,-33.121596695445504110
0.400000000000000244,-32.983858786967068966
0.401000000000000245,-32.846735928158793172
0.402000000000000246,-32.710201990216930312
0.403000000000000247,-32.574231073353459465
0.404000000000000248,-32.438797544343529466
0.405000000000000249,-32.303876071893427024
0.406000000000000250,-32.169441659877250572
0.407000000000000250,-32.035469678492013657
0.408000000000000251,-31.901935893382056264
0.409000000000000252,-31.768816492784822003
0.410000000000000253,-31.636088112750609724
0.411000000000000254,-31.503727860489885160
0.412000000000000255,-31.371713335902136066
0.413000000000000256,-31.240022651340694892
0.414000000000000257,-31.108634449667952993
0.415000000000000258,-30.977527920656065419
0.416000000000000258,-30.846682815787591636
0.417000000000000259,-30.716079461510837234
0.418000000000000260,-30.585698771004494745
0.419000000000000261,-30.455522254505147828
0.420000000000000262,-30.325532028252201400
0.421000000000000263,-30.195710822102746818
0.422000000000000264,-30.066041985869311759
0.423000000000000265,-29.936509494432595346
0.424000000000000266,-29.807097951680567860
0.425000000000000266,-29.677792593324319625
0.426000000000000267,-29.548579288640780760
0.427000000000000268,-29.419444541190994613
0.428000000000000269,-29.290375488562222728
0.429000000000000270,-29.161359901180958332
0.430000000000000271,-29.032386180242944818
0.431000000000000272,-28.903443354805553156
0.432000000000000273,-28.774521078086443993
0.433000000000000274,-28.645609623012127543
0.434000000000000274,-28.516699877057781976
0.435000000000000275,-28.387783336420092439
0.436000000000000276,-28.258852099562592031
0.437000000000000277,-28.129898860172357189
0.438000000000000278,-28.000916899566043128
0.439000000000000279,-27.871900078581784754
0.440000000000000280,-27.742842828992319681
0.441000000000000281,-27.613740144474185456
0.442000000000000282,-27.484587571165992159
0.443000000000000282,-27.355381197848185337
0.444000000000000283,-27.226117645775484988
0.445000000000000284,-27.096794058192159582
0.446000000000000285,-26.967408089558830397
0.447000000000000286,-26.837957894519512081
0.448000000000000287,-26.708442116635023211
0.449000000000000288,-26.578859876909270099
0.450000000000000289,-26.449210762133077424
0.451000000000000290,-26.319494813069546524
0.452000000000000290,-26.189712512503923847
0.453000000000000291,-26.059864773179803876
0.454000000000000292,-25.929952925642965056
0.455000000000000293,-25.799978706012712593
0.456000000000000294,-25.669944243700097530
0.457000000000000295,-25.539852049091326336
0.458000000000000296,-25.409705001213684028
0.459000000000000297,-25.279506335400871109
0.460000000000000298,-25.149259630973226365
0.461000000000000298,-25.018968798948115762
0.462000000000000299,-24.888638069794559726
0.463000000000000300,-24.758271981245520976
0.464000000000000301,-24.627875366180703054
0.465000000000000302,-24.497453340591778925
0.466000000000000303,-24.367011291641297532
0.467000000000000304,-24.236554865826043681
0.468000000000000305,-24.106089957254638989
0.469000000000000306,-23.975622696048830562
0.470000000000000306,-23.845159436877285231
0.471000000000000307,-23.714706747629669792
0.472000000000000308,-23.584271398239007311
0.473000000000000309,-23.453860349658985029
0.474000000000000310,-23.323480743002800608
0.475000000000000311,-23.193139888849454877
0.476000000000000312,-23.062845256723079501
0.477000000000000313,-22.932604464749978490
0.478000000000000314,-22.802425269498215243
0.479000000000000314,-22.672315556003653114
0.480000000000000315,-22.542283327985991548
0.481000000000000316,-22.412336698258382484
0.482000000000000317,-22.282483879333067733
0.483000000000000318,-22.152733174225794244
0.484000000000000319,-22.023092967460954128
0.485000000000000320,-21.893571716279463857
0.486000000000000321,-21.764177942050498160
0.487000000000000322,-21.634920221888528147
0.488000000000000322,-21.505807180476203655
0.489000000000000323,-21.376847482094028408
0.490000000000000324,-21.248049822856724944
0.491000000000000325,-21.119422923156601968
0.492000000000000326,-20.990975520313469360
0.493000000000000327,-20.862716361431019152
0.494000000000000328,-20.734654196458549791
0.495000000000000329,-20.606797771457699753
0.496000000000000330,-20.479155822072598880
0.497000000000000330,-20.351737067202698483
0.498000000000000331,-20.224550202876400817
0.499000000000000332,-20.097603896324404360
0.500000000000000333,-19.970906780250615498
0.501000000000000334,-19.844467447298995921
0.502000000000000335,-19.718294444714235425
0.503000000000000336,-19.592396269194317426
0.504000000000000337,-19.466781361932497418
0.505000000000000338,-19.341458103846456140
0.506000000000000338,-19.216434810992296889
0.507000000000000339,-19.091719730160654933
0.508000000000000340,-18.967321034652432132
0.509000000000000341,-18.843246820231520644
0.510000000000000342,-18.719505101251602497
0.511000000000000343,-18.596103806954289439
0.512000000000000344,-18.473050777935760891
0.513000000000000345,-18.350353762778897959
0.514000000000000346,-18.228020414848021602
0.515000000000000346,-18.106058289243179615
0.516000000000000347,-17.984474839910895128
0.517000000000000348,-17.863277416908498907
0.518000000000000349,-17.742473263818620666
0.519000000000000350,-17.622069515311125087
0.520000000000000351,-17.502073194849003812
0.521000000000000352,-17.382491212535391867
0.522000000000000353,-17.263330363098326359
0.523000000000000353,-17.144597324010181438
0.524000000000000354,-17.026298653738855648
0.525000000000000355,-16.908440790127066577
0.526000000000000356,-16.791030048897205518
0.527000000000000357,-16.674072622278245603
0.528000000000000358,-16.557574577751665856
0.529000000000000359,-16.441541856913453046
0.530000000000000360,-16.325980274448902207
0.531000000000000361,-16.210895517217348782
0.532000000000000361,-16.096293143443681117
0.533000000000000362,-15.982178582013631285
0.534000000000000363,-15.868557131870034027
0.535000000000000364,-15.755433961506861706
0.536000000000000365,-15.642814108558315667
0.537000000000000366,-15.530702479480018141
0.538000000000000367,-15.419103849319437671
0.539000000000000368,-15.308022861572817774
0.540000000000000369,-15.197464028125670765
0.541000000000000369,-15.087431729274362269
0.542000000000000370,-14.977930213825780825
0.543000000000000371,-14.868963599272664311
0.544000000000000372,-14.760535872041824490
0.545000000000000373,-14.652650887812882274
0.546000000000000374,-14.545312371904620008
0.547000000000000375,-14.438523919726851119
0.548000000000000376,-14.332288997295123067
0.549000000000000377,-14.226610941805954980
0.550000000000000377,-14.121492962270085769
0.551000000000000378,-14.016938140201594010
0.552000000000000379,-13.912949430360578518
0.553000000000000380,-13.809529661547045976
0.554000000000000381,-13.706681537443904162
0.555000000000000382,-13.604407637507062390
0.556000000000000383,-13.502710417900104289
0.557000000000000384,-13.401592212472106525
0.558000000000000385,-13.301055233775988640
0.559000000000000385,-13.201101574125825522
0.560000000000000386,-13.101733206691040579
0.561000000000000387,-13.002951986625642888
0.562000000000000388,-12.904759652230669786
0.563000000000000389,-12.807157826148005242
0.564000000000000390,-12.710148016583936226
0.565000000000000391,-12.613731618560590775
0.566000000000000392,-12.517909915193754955
0.567000000000000393,-12.422684078995349211
0.568000000000000393,-12.328055173199013339
0.569000000000000394,-12.234024153107196042
0.570000000000000395,-12.140591867458542907
0.571000000000000396,-12.047759059813612836
0.572000000000000397,-11.955526369958064947
0.573000000000000398,-11.863894335321534257
0.574000000000000399,-11.772863392411101913
0.575000000000000400,-11.682433878257915794
0.576000000000000401,-11.592606031875762440
0.577000000000000401,-11.503379995730474761
0.578000000000000402,-11.414755817218724232
0.579000000000000403,-11.326733450155311189
0.580000000000000404,-11.239312756267759497
0.581000000000000405,-11.152493506697055636
0.582000000000000406,-11.066275383503615615
0.583000000000000407,-10.980657981177326832
0.584000000000000408,-10.895640808150885093
0.585000000000000409,-10.811223288315312985
0.586000000000000409,-10.727404762536766114
0.587000000000000410,-10.644184490173898894
0.588000000000000411,-10.561561650594736506
0.589000000000000412,-10.479535344692418875
0.590000000000000413,-10.398104596398846766
0.591000000000000414,-10.317268354195659796
0.592000000000000415,-10.237025492621729228
0.593000000000000416,-10.157374813776341327
0.594000000000000417,-10.078315048817643174
0.595000000000000417,-9.999844859455590651
0.596000000000000418,-9.921962839438574377
0.597000000000000419,-9.844667516033606347
0.598000000000000420,-9.767957351498910867
0.599000000000000421,-9.691830744548905585
0.600000000000000422,-9.616286031810655999
0.601000000000000423,-9.541321489271549439
0.602000000000000424,-9.466935333717593437
0.603000000000000425,-9.393125724161896173
0.604000000000000425,-9.319890763262954181
