# Cu001_CS-3970-AC
# h[nm],U(h)[kJ/mol]
0.200000000000000011,67.818765084816504896
0.201000000000000012,63.453290730332597036
0.202000000000000013,61.010177263624576938
0.203000000000000014,59.395273229455597175
0.204000000000000015,58.016647119826572521
0.205000000000000016,56.592116705361810602
0.206000000000000016,55.020828953917899184
0.207000000000000017,53.299805849896003451
0.208000000000000018,51.471586899501815537
0.209000000000000019,49.592982302416565688
0.210000000000000020,47.717824634131709161
0.211000000000000021,45.888719179951593219
0.212000000000000022,44.134333345485558198
0.213000000000000023,42.469878410485151221
0.214000000000000024,40.899232177302472735
0.215000000000000024,39.417711991657832016
0.216000000000000025,38.014896906469545002
0.217000000000000026,36.677162478884028474
0.218000000000000027,35.389766949331487922
0.219000000000000028,34.138439384055040193
0.220000000000000029,32.910487932611559359
0.221000000000000030,31.695483645739422229
0.222000000000000031,30.485592422396024403
0.223000000000000032,29.275631821323351289
0.224000000000000032,28.062925755141712614
0.225000000000000033,26.847021984517386528
0.226000000000000034,25.629327203338117869
0.227000000000000035,24.412703886961711675
0.228000000000000036,23.201062914210368149
0.229000000000000037,21.998976812037547290
0.230000000000000038,20.811330573743394012
0.231000000000000039,19.643020447144191820
0.232000000000000040,18.498705841275015160
0.233000000000000040,17.382615452842287596
0.234000000000000041,16.298405724251090021
0.235000000000000042,15.249067657061791792
0.236000000000000043,14.236876662055095721
0.237000000000000044,13.263379382959339381
0.238000000000000045,12.329411152998959622
0.239000000000000046,11.435137816238079012
0.240000000000000047,10.580115971065666258
0.241000000000000048,9.763366189737242351
0.242000000000000048,8.983454369812454487
0.243000000000000049,8.238577028636600019
0.244000000000000050,7.526647020827233803
0.245000000000000051,6.845376811429076724
0.246000000000000052,6.192357052962593755
0.247000000000000053,5.565128778968850831
0.248000000000000054,4.961248031411372494
0.249000000000000055,4.378342180380001558
0.250000000000000056,3.814157571236255428
0.251000000000000056,3.266598448401835775
0.252000000000000057,2.733757359919895435
0.253000000000000058,2.213937447381714385
0.254000000000000059,1.705667177169021942
0.255000000000000060,1.207708176918231180
0.256000000000000061,0.719056911423752054
0.257000000000000062,0.238940970481254789
0.258000000000000063,-0.233189247247857695
0.259000000000000064,-0.697672680451926430
0.260000000000000064,-1.154652835019982504
0.261000000000000065,-1.604095391792750958
0.262000000000000066,-2.045807536913435420
0.263000000000000067,-2.479458416578995017
0.264000000000000068,-2.904600179159888995
0.265000000000000069,-3.320689130708823988
0.266000000000000070,-3.727106593026479064
0.267000000000000071,-4.123179115258190031
0.268000000000000071,-4.508197749331504411
0.269000000000000072,-4.881436155563045887
0.270000000000000073,-5.242167356849225079
0.271000000000000074,-5.589679007601040084
0.272000000000000075,-5.923287086751659380
0.273000000000000076,-6.242347962658774563
0.274000000000000077,-6.546268811565047585
0.275000000000000078,-6.834516400578746875
0.276000000000000079,-7.106624271078613830
0.277000000000000079,-7.362198379269725201
0.278000000000000080,-7.600921267594716646
0.279000000000000081,-7.822554854141502645
0.280000000000000082,-8.026941937397170435
0.281000000000000083,-8.214006521001497418
0.282000000000000084,-8.383753067870404863
0.283000000000000085,-8.536264795501896430
0.284000000000000086,-8.671701124743840694
0.285000000000000087,-8.790294393078676549
0.286000000000000087,-8.892345940830367113
0.287000000000000088,-8.978221674871027957
0.288000000000000089,-9.048347209624235887
0.289000000000000090,-9.103202679635513661
0.290000000000000091,-9.143317311891468790
0.291000000000000092,-9.169263839584134601
0.292000000000000093,-9.181652832279423748
0.293000000000000094,-9.181127010586886072
0.294000000000000095,-9.168355606549850378
0.295000000000000095,-9.144028824174922576
0.296000000000000096,-9.108852447874602021
0.297000000000000097,-9.063542640171554865
0.298000000000000098,-9.008820963858951814
0.299000000000000099,-8.945409657969541684
0.300000000000000100,-8.874027191406614890
0.301000000000000101,-8.795384112954604205
0.302000000000000102,-8.710179211630213914
0.303000000000000103,-8.619095996962673922
0.304000000000000103,-8.522799504806311433
0.305000000000000104,-8.421933430685966115
0.306000000000000105,-8.317117589448368875
0.307000000000000106,-8.208945697128907426
0.308000000000000107,-8.097983468429790221
0.309000000000000108,-7.984767021026335954
0.310000000000000109,-7.869801576054570091
0.311000000000000110,-7.753560442568046440
0.312000000000000111,-7.636484272463391676
0.313000000000000111,-7.518980571343955255
0.314000000000000112,-7.401423449998032034
0.315000000000000113,-7.284153600592228273
0.316000000000000114,-7.167478481302862470
0.317000000000000115,-7.051672692908046436
0.318000000000000116,-6.936978530823094680
0.319000000000000117,-6.823606696163525775
0.320000000000000118,-6.711737149646213041
0.321000000000000119,-6.601520092474304491
0.322000000000000119,-6.493077058780437838
0.323000000000000120,-6.386502104710642058
0.324000000000000121,-6.281863079805996897
0.325000000000000122,-6.179202966967678456
0.326000000000000123,-6.078541277962754563
0.327000000000000124,-5.979875492132374681
0.328000000000000125,-5.883182526692505299
0.329000000000000126,-5.788420227760230574
0.330000000000000127,-5.695528871989793629
0.331000000000000127,-5.604432669454835647
0.332000000000000128,-5.515041259160190279
0.333000000000000129,-5.427251189304079126
0.334000000000000130,-5.340947375134110331
0.335000000000000131,-5.256004527945063565
0.336000000000000132,-5.172288549449118200
0.337000000000000133,-5.089657886407833232
0.338000000000000134,-5.007964841047022553
0.339000000000000135,-4.927056833379745981
0.340000000000000135,-4.846777612136436098
0.341000000000000136,-4.766968411545042805
0.342000000000000137,-4.687469051716368185
0.343000000000000138,-4.608118980870659520
0.344000000000000139,-4.528758258090734401
0.345000000000000140,-4.449228475705046648
0.346000000000000141,-4.369373620790592661
0.347000000000000142,-4.289040875642152528
0.348000000000000143,-4.208081357380979881
0.349000000000000143,-4.126350797173474305
0.350000000000000144,-4.043710159800331994
0.351000000000000145,-3.960026204559250029
0.352000000000000146,-3.875171988701072934
0.353000000000000147,-3.789027314791591827
0.354000000000000148,-3.701479123559855644
0.355000000000000149,-3.612421833940127947
0.356000000000000150,-3.521757632140231298
0.357000000000000151,-3.429396711674453258
0.358000000000000151,-3.335257466386272629
0.359000000000000152,-3.239266638555863498
0.360000000000000153,-3.141359424240937059
0.361000000000000154,-3.041479538038193819
0.362000000000000155,-2.939579239477365658
0.363000000000000156,-2.835619323272208891
0.364000000000000157,-2.729569075653193178
0.365000000000000158,-2.621406198996922399
0.366000000000000159,-2.511116706947625676
0.367000000000000159,-2.398694792197864523
0.368000000000000160,-2.284142669060150954
0.369000000000000161,-2.167470392917997479
0.370000000000000162,-2.048695658596518143
0.371000000000000163,-1.927843579638869098
0.372000000000000164,-1.804946450415802817
0.373000000000000165,-1.680043492933922966
0.374000000000000166,-1.553180590141977735
0.375000000000000167,-1.424410007466788253
0.376000000000000167,-1.293790104239784577
0.377000000000000168,-1.161385036603237442
0.378000000000000169,-1.027264453412236156
0.379000000000000170,-0.891503186574804651
0.380000000000000171,-0.754180937198102308
0.381000000000000172,-0.615381958835154341
0.382000000000000173,-0.475194739052338000
0.383000000000000174,-0.333711680465309413
0.384000000000000175,-0.191028782318571816
0.385000000000000175,-0.047245323613303157
0.386000000000000176,0.097536451281889480
0.387000000000000177,0.243211643670357247
0.388000000000000178,0.389673007416506345
0.389000000000000179,0.536811250948757257
0.390000000000000180,0.684515333702841788
0.391000000000000181,0.832672756392903279
0.392000000000000182,0.981169844555586423
0.393000000000000183,1.129892024869386447
0.394000000000000183,1.278724093804785245
0.395000000000000184,1.427550478212816332
0.396000000000000185,1.576255487509250264
0.397000000000000186,1.724723557158361231
0.398000000000000187,1.872839483205527955
0.399000000000000188,2.020488647650402037
0.400000000000000189,2.167557234492393015
0.401000000000000190,2.313932436319079411
0.402000000000000191,2.459502651343048463
0.403000000000000191,2.604157670827413007
0.404000000000000192,2.747788856871208107
0.405000000000000193,2.890289310555723468
0.406000000000000194,3.031554030480408279
0.407000000000000195,3.171480061742379064
0.408000000000000196,3.309966635437576965
0.409000000000000197,3.446915298783261417
0.410000000000000198,3.582230035981664340
0.411000000000000199,3.715817379963151978
0.412000000000000199,3.847586515163956555
0.413000000000000200,3.977449371508568365
0.414000000000000201,4.105320709780809096
0.415000000000000202,4.231118198579798317
0.416000000000000203,4.354762483067586842
0.417000000000000204,4.476177245725430964
0.418000000000000205,4.595289259343283916
0.419000000000000206,4.712028432474737016
0.420000000000000207,4.826327847595591081
0.421000000000000207,4.938123792208896745
0.422000000000000208,5.047355783143850694
0.423000000000000209,5.153966584298434128
0.424000000000000210,5.257902218078260859
0.425000000000000211,5.359111970785292556
0.426000000000000212,5.457548392210727961
0.427000000000000213,5.553167289686260055
0.428000000000000214,5.645927716847073619
0.429000000000000214,5.735791957358744142
0.430000000000000215,5.822725503858071860
0.431000000000000216,5.906697032355417321
0.432000000000000217,5.987678372343427036
0.433000000000000218,6.065644472853299440
0.434000000000000219,6.140573364696217062
0.435000000000000220,6.212446119123417709
0.436000000000000221,6.281246803133796242
0.437000000000000222,6.346962431653393466
0.438000000000000222,6.409582916805938169
0.439000000000000223,6.469101014488513712
0.440000000000000224,6.525512268461066689
0.441000000000000225,6.578814952152745477
0.442000000000000226,6.629010008382389074
0.443000000000000227,6.676100987184828917
0.444000000000000228,6.720093981928445537
0.445000000000000229,6.760997563903719865
0.446000000000000230,6.798822715556150698
0.447000000000000230,6.833582762531237975
0.448000000000000231,6.865293304692720255
0.449000000000000232,6.893972146269360834
0.450000000000000233,6.919639225279629713
0.451000000000000234,6.942316542377147570
0.452000000000000235,6.962028089254292063
0.453000000000000236,6.978799776734985194
0.454000000000000237,6.992659362681912683
0.455000000000000238,7.003636379837793413
0.456000000000000238,7.011762063714213511
0.457000000000000239,7.017069280636329509
0.458000000000000240,7.019592456045776530
0.459000000000000241,7.019367503159047672
0.460000000000000242,7.016431752072993966
0.461000000000000243,7.010823879404084025
0.462000000000000244,7.002583838542868477
0.463000000000000245,6.991752790600126666
0.464000000000000246,6.978373036116418682
0.465000000000000246,6.962487947601919025
0.466000000000000247,6.944141902968958391
0.467000000000000248,6.923380219915188150
0.468000000000000249,6.900249091311006389
0.469000000000000250,6.874795521640638007
0.470000000000000251,6.847067264542341825
0.471000000000000252,6.817112761489262596
0.472000000000000253,6.784981081648576939
0.473000000000000254,6.750721862953172447
0.474000000000000254,6.714385254416434634
0.475000000000000255,6.676021859717356399
0.476000000000000256,6.635682682080127570
0.477000000000000257,6.593419070469026977
0.478000000000000258,6.549282667116630208
0.479000000000000259,6.503325356400540436
0.480000000000000260,6.455599215080946252
0.481000000000000261,6.406156463908912357
0.482000000000000262,6.355049420612710165
0.483000000000000262,6.302330454267272231
0.484000000000000263,6.248051941049423519
0.485000000000000264,6.192266221379680857
0.486000000000000265,6.135025558449070715
0.487000000000000266,6.076382098127856679
0.488000000000000267,6.016387830251036739
0.489000000000000268,5.955094551273776737
0.490000000000000269,5.892553828288543016
0.491000000000000270,5.828816964393931599
0.492000000000000270,5.763934965403985089
0.493000000000000271,5.697958507885337198
0.494000000000000272,5.630937908508485634
0.495000000000000273,5.562923094697950432
0.496000000000000274,5.493963576565585427
0.497000000000000275,5.424108420109818418
0.498000000000000276,5.353406221662867281
0.499000000000000277,5.281905083567354886
0.500000000000000222,5.209652591062495119
0.501000000000000334,5.136695790359897096
0.502000000000000224,5.063081167887959921
0.503000000000000336,4.988854630683396074
0.504000000000000226,4.914061487908156778
0.505000000000000338,4.838746433469006902
0.506000000000000227,4.762953529717399270
0.507000000000000339,4.686726192206045027
0.508000000000000229,4.610107175479246422
0.509000000000000341,4.533138559872777584
0.510000000000000231,4.455861739300042146
0.511000000000000343,4.378317409999841203
0.512000000000000233,4.300545560222269970
0.513000000000000345,4.222585460827852799
0.514000000000000234,4.144475656776312356
0.515000000000000346,4.066253959480079061
0.516000000000000236,3.987957439998940146
0.517000000000000348,3.909622423051013929
0.518000000000000238,3.831284481816614740
0.519000000000000350,3.752978433510389067
0.520000000000000240,3.674738335698533032
0.521000000000000352,3.596597483336881673
0.522000000000000242,3.518588406506924393
0.523000000000000353,3.440742868825920286
0.524000000000000243,3.363091866508748584
0.525000000000000355,3.285665628058088039
0.526000000000000245,3.208493614561011675
0.527000000000000357,3.131604520569215566
0.528000000000000247,3.055026275541516068
0.529000000000000359,2.978786045826519846
0.530000000000000249,2.902910237164578966
0.531000000000000361,2.827424497687748506
0.532000000000000250,2.752353721397490460
0.533000000000000362,2.677722052099432926
0.534000000000000252,2.603552887775883562
0.535000000000000364,2.529868885375827325
0.536000000000000254,2.456691966004107552
0.537000000000000366,2.384043320490197626
0.538000000000000256,2.311943415318890693
0.539000000000000368,2.240411998904329405
0.540000000000000258,2.169468108190307110
0.541000000000000369,2.099130075559040964
0.542000000000000259,2.029415536032284972
0.543000000000000371,1.960341434747693512
0.544000000000000261,1.891924034694922652
0.545000000000000373,1.824178924695527115
0.546000000000000263,1.757121027611715958
0.547000000000000375,1.690764608768687838
0.548000000000000265,1.625123284576747595
0.549000000000000377,1.560210031338441938
0.550000000000000266,1.496037194227731515
0.551000000000000378,1.432616496427357777
0.552000000000000268,1.369959048411978797
0.553000000000000380,1.308075357364206992
0.554000000000000270,1.246975336711743543
0.555000000000000382,1.186668315773522053
0.556000000000000272,1.127163049503818737
0.557000000000000384,1.068467728323006849
0.558000000000000274,1.010589988024524599
0.559000000000000385,0.953536919747552170
0.560000000000000275,0.897315080005658294
0.561000000000000387,0.841930500761540968
0.562000000000000277,0.787388699538906556
0.563000000000000389,0.733694689562176205
0.564000000000000279,0.680852989915800122
0.565000000000000391,0.628867635714500883
0.566000000000000281,0.577742188276849755
0.567000000000000393,0.527479745294150648
0.568000000000000282,0.478082950987605948
0.569000000000000394,0.429554006246367415
0.570000000000000284,0.381894678740103299
0.571000000000000396,0.335106312999119693
0.572000000000000286,0.289189840456308411
0.573000000000000398,0.244145789444600914
0.574000000000000288,0.199974295144576347
0.575000000000000400,0.156675109476530239
0.576000000000000290,0.114247610932185537
0.577000000000000401,0.072690814340780202
0.578000000000000291,0.032003380565237105
0.579000000000000403,-0.007816373876294924
0.580000000000000293,-0.046770467267471305
0.581000000000000405,-0.084861243233585640
0.582000000000000295,-0.122091361367605303
0.583000000000000407,-0.158463787946341417
0.584000000000000297,-0.193981786739658435
0.585000000000000409,-0.228648909916249726
0.586000000000000298,-0.262468989048532664
0.587000000000000410,-0.295446126219737537
0.588000000000000300,-0.327584685235428386
0.589000000000000412,-0.358889282942143062
0.590000000000000302,-0.389364780655047205
0.591000000000000414,-0.419016275696908136
0.592000000000000304,-0.447849093050054825
0.593000000000000416,-0.475868777123165998
0.594000000000000306,-0.503081083634358217
0.595000000000000417,-0.529491971612110368
0.596000000000000307,-0.555107595515119456
0.597000000000000419,-0.579934297472403548
0.598000000000000309,-0.603978599644553915
0.599000000000000421,-0.627247196707010124
0.600000000000000311,-0.649746948456156104
0.601000000000000423,-0.671484872538880118
0.602000000000000313,-0.692468137305982778
0.603000000000000425,-0.712704054790102126
0.604000000000000314,-0.732200073808141783
0.605000000000000426,-0.750963773188707551
0.606000000000000316,-0.769002855124411688
0.607000000000000428,-0.786325138649217714
0.608000000000000318,-0.802938553240678532
0.609000000000000430,-0.818851132546921212
0.610000000000000320,-0.834071008238092104
0.611000000000000432,-0.848606403982025470
0.612000000000000322,-0.862465629543628709
0.613000000000000433,-0.875657075007585384
0.614000000000000323,-0.888189205123821379
0.615000000000000435,-0.900070553775115023
0.616000000000000325,-0.911309718566143401
0.617000000000000437,-0.921915355533367120
0.618000000000000327,-0.931896173974794850
0.619000000000000439,-0.941260931398934297
0.620000000000000329,-0.950018428591975828
0.621000000000000441,-0.958177504802269042
0.622000000000000330,-0.965747033041151837
0.623000000000000442,-0.972735915499089332
0.624000000000000332,-0.979153079076020894
0.625000000000000444,-0.985007471024909043
0.626000000000000334,-0.990308054707257468
0.627000000000000446,-0.995063805459492356
0.628000000000000336,-0.999283706568987795
0.629000000000000448,-1.002976745358518551
0.630000000000000338,-1.006151909377845710
0.631000000000000449,-1.008818182701239907
0.632000000000000339,-1.010984542329562252
0.633000000000000451,-1.012659954695608988
0.634000000000000341,-1.013853372271389164
0.635000000000000453,-1.014573730275995400
0.636000000000000343,-1.014829943482624230
0.637000000000000455,-1.014630903123460604
0.638000000000000345,-1.013985473890925304
0.639000000000000457,-1.012902491033953689
0.640000000000000346,-1.011390757547847130
0.641000000000000458,-1.009459041456280959
0.642000000000000348,-1.007116073184036953
0.643000000000000460,-1.004370543019002637
0.644000000000000350,-1.001231098662040520
0.645000000000000462,-0.997706342863202922
0.646000000000000352,-0.993804831142931944
0.647000000000000464,-0.989535069596726991
0.648000000000000353,-0.984905512781880765
0.649000000000000465,-0.979924561684770823
0.650000000000000355,-0.974600561767360984
0.651000000000000467,-0.968941801091344201
0.652000000000000357,-0.962956508518637344
0.653000000000000469,-0.956652851986606434
0.654000000000000359,-0.950038936856811511
0.655000000000000471,-0.943122804335660647
0.656000000000000361,-0.935912429965669146
0.657000000000000473,-0.928415722185866876
0.658000000000000362,-0.920640520959985387
0.659000000000000474,-0.912594596471014596
0.660000000000000364,-0.904285647880755050
0.661000000000000476,-0.895721302152992727
0.662000000000000366,-0.886909112938959132
0.663000000000000478,-0.877856559523666702
0.664000000000000368,-0.868571045831876942
0.665000000000000480,-0.859059899492288226
0.666000000000000369,-0.849330370958680803
0.667000000000000481,-0.839389632686710407
0.668000000000000371,-0.829244778365049506
