# Cu001_CS-23329-AC
# h[nm],U(h)[kJ/mol]
0.149999999999999994,80.744255697069306166
0.150999999999999995,75.032709321174223760
0.151999999999999996,71.230605186219037250
0.152999999999999997,67.827974971385742720
0.153999999999999998,64.312239633910607495
0.154999999999999999,60.620028078635471047
0.156000000000000000,56.849404342687364533
0.157000000000000001,53.122273492042836551
0.158000000000000002,49.529317582331024994
0.159000000000000002,46.117097415040980479
0.160000000000000003,42.894131089897470588
0.161000000000000004,39.843333188555462243
0.162000000000000005,36.934520035392402804
0.163000000000000006,34.134318382245730561
0.164000000000000007,31.412782405390213825
0.165000000000000008,28.746991191897887319
0.166000000000000009,26.122288833912250539
0.167000000000000010,23.531905418697881771
0.168000000000000010,20.975619285577028705
0.169000000000000011,18.457981941214217869
0.170000000000000012,15.986478089936014158
0.171000000000000013,13.569859791969298257
0.172000000000000014,11.216786111631011025
0.173000000000000015,8.934819596664654640
0.174000000000000016,6.729776050451337532
0.175000000000000017,4.605389987376758754
0.176000000000000018,2.563240136905940325
0.177000000000000018,0.602872943277355078
0.178000000000000019,-1.277936583506949386
0.179000000000000020,-3.082841087084156051
0.180000000000000021,-4.816539815271743130
0.181000000000000022,-6.484396291709883187
0.182000000000000023,-8.092081213834273257
0.183000000000000024,-9.645258462626564722
0.184000000000000025,-11.149324721501280067
0.185000000000000026,-12.609207188872037619
0.186000000000000026,-14.029219223766357771
0.187000000000000027,-15.412970383345598435
0.188000000000000028,-16.763325038755244378
0.189000000000000029,-18.082402411174737011
0.190000000000000030,-19.371610269988607911
0.191000000000000031,-20.631704506591557191
0.192000000000000032,-21.862867185398624059
0.193000000000000033,-23.064796344930144301
0.194000000000000034,-24.236801666083984230
0.195000000000000034,-25.377901053824011512
0.196000000000000035,-26.486914124793145220
0.197000000000000036,-27.562549507034198371
0.198000000000000037,-28.603483704540582977
0.199000000000000038,-29.608430036793372153
0.200000000000000039,-30.576196819835978147
0.201000000000000040,-31.505734506616583701
0.202000000000000041,-32.396171951890167406
0.203000000000000042,-33.246842316611790125
0.204000000000000042,-34.057299386890697690
0.205000000000000043,-34.827325263231863062
0.206000000000000044,-35.556930487753405146
0.207000000000000045,-36.246347731201595366
0.208000000000000046,-36.896020168400099237
0.209000000000000047,-37.506585640064876941
0.210000000000000048,-38.078857639591987549
0.211000000000000049,-38.613804083358004959
0.212000000000000050,-39.112524729083531838
0.213000000000000050,-39.576228004659540716
0.214000000000000051,-40.006207904294441846
0.215000000000000052,-40.403821503734945964
0.216000000000000053,-40.770467544641398661
0.217000000000000054,-41.107566442207584601
0.218000000000000055,-41.416541981405039508
0.219000000000000056,-41.698804886857359975
0.220000000000000057,-41.955738379905639590
0.221000000000000058,-42.188685774126028605
0.222000000000000058,-42.398940107335114647
0.223000000000000059,-42.587735763648836951
0.224000000000000060,-42.756242002973749550
0.225000000000000061,-42.905558286798360257
0.226000000000000062,-43.036711267637770106
0.227000000000000063,-43.150653294241443803
0.228000000000000064,-43.248262274960787011
0.229000000000000065,-43.330342736757117450
0.230000000000000066,-43.397627916501022582
0.231000000000000066,-43.450782723799655116
0.232000000000000067,-43.490407419961876201
0.233000000000000068,-43.517041865299020742
0.234000000000000069,-43.531170196240879022
0.235000000000000070,-43.533225804262727365
0.236000000000000071,-43.523596499958998152
0.237000000000000072,-43.502629757417480505
0.238000000000000073,-43.470637946037143706
0.239000000000000073,-43.427903468848100488
0.240000000000000074,-43.374683738023094293
0.241000000000000075,-43.311215929451883255
0.242000000000000076,-43.237721468853763440
0.243000000000000077,-43.154410211831368827
0.244000000000000078,-43.061484289455705721
0.245000000000000079,-42.959141599368834363
0.246000000000000080,-42.847578929982176987
0.247000000000000081,-42.726994712123506304
0.248000000000000081,-42.597591398459009326
0.249000000000000082,-42.459577476208529845
0.250000000000000111,-42.313169123115727643
0.251000000000000112,-42.158591520366464067
0.252000000000000113,-41.996079839217728136
0.253000000000000114,-41.825879920547222923
0.254000000000000115,-41.648248668418318630
0.255000000000000115,-41.463454180120876913
0.256000000000000116,-41.271775636052325353
0.257000000000000117,-41.073502973293194884
0.258000000000000118,-40.868936366855834308
0.259000000000000119,-40.658385542394384515
0.260000000000000120,-40.442168943699975614
0.261000000000000121,-40.220612777610199373
0.262000000000000122,-39.994049958077525275
0.263000000000000123,-39.762818970099957028
0.264000000000000123,-39.527262673055325592
0.265000000000000124,-39.287727061725362887
0.266000000000000125,-39.044560001976194030
0.267000000000000126,-38.798109956700457701
0.268000000000000127,-38.548724716244862520
0.269000000000000128,-38.296750146164278306
0.270000000000000129,-38.042528963774699946
0.271000000000000130,-37.786399553636790927
0.272000000000000131,-37.528694830800645832
0.273000000000000131,-37.269741159389738527
0.274000000000000132,-37.009857332906094030
0.275000000000000133,-36.749353621505363776
0.276000000000000134,-36.488530890423078290
0.277000000000000135,-36.227679792737220055
0.278000000000000136,-35.967080038726500391
0.279000000000000137,-35.706999743232145761
0.280000000000000138,-35.447694851651355918
0.281000000000000139,-35.189408644483265221
0.282000000000000139,-34.932371319711748470
0.283000000000000140,-34.676799651741475827
0.284000000000000141,-34.422896725101729487
0.285000000000000142,-34.170851740694878629
0.286000000000000143,-33.920839891988244119
0.287000000000000144,-33.673022308227992028
0.288000000000000145,-33.427546061486935969
0.289000000000000146,-33.184544234141931440
0.290000000000000147,-32.944136043206398767
0.291000000000000147,-32.706427017817723879
0.292000000000000148,-32.471509226091725964
0.293000000000000149,-32.239461547506273575
0.294000000000000150,-32.010349986957592705
0.295000000000000151,-31.784228026644928633
0.296000000000000152,-31.561137011976462929
0.297000000000000153,-31.341106567751683798
0.298000000000000154,-31.124155040955855611
0.299000000000000155,-30.910289966602952916
0.300000000000000155,-30.699508553177611958
0.301000000000000156,-30.491798184354404810
0.302000000000000157,-30.287136933811382278
0.303000000000000158,-30.085494090101384757
0.304000000000000159,-29.886830688698875491
0.305000000000000160,-29.691100048498235253
0.306000000000000161,-29.498248310201837796
0.307000000000000162,-29.308214974200598846
0.308000000000000163,-29.120933435713983073
0.309000000000000163,-28.936331515121317182
0.310000000000000164,-28.754331981579007049
0.311000000000000165,-28.574853068178470039
0.312000000000000166,-28.397808977057614754
0.313000000000000167,-28.223110373031278897
0.314000000000000168,-28.050664864455740144
0.315000000000000169,-27.880377470186125777
0.316000000000000170,-27.712151071624184340
0.317000000000000171,-27.545886848987073847
0.318000000000000171,-27.381484701054404240
0.319000000000000172,-27.218843647772359873
0.320000000000000173,-27.057862215207290291
0.321000000000000174,-26.898438802450311158
0.322000000000000175,-26.740472030175389762
0.323000000000000176,-26.583861070649525971
0.324000000000000177,-26.428505959082059462
0.325000000000000178,-26.274307886282986857
0.326000000000000179,-26.121169472677269852
0.327000000000000179,-25.968995023791897836
0.328000000000000180,-25.817690767397710516
0.329000000000000181,-25.667165072546890059
0.330000000000000182,-25.517328650800351397
0.331000000000000183,-25.368094739987732567
0.332000000000000184,-25.219379270885657007
0.333000000000000185,-25.071101017238241582
0.334000000000000186,-24.923181729577681409
0.335000000000000187,-24.775546253331448554
0.336000000000000187,-24.628122631728675884
0.337000000000000188,-24.480842194038263671
0.338000000000000189,-24.333639629689788109
0.339000000000000190,-24.186453048841595859
0.340000000000000191,-24.039224029971236973
0.341000000000000192,-23.891897655071623774
0.342000000000000193,-23.744422533040346224
0.343000000000000194,-23.596750811852704288
0.344000000000000195,-23.448838180108005247
0.345000000000000195,-23.300643858537409159
0.346000000000000196,-23.152130582056098973
0.347000000000000197,-23.003264572937293764
0.348000000000000198,-22.854015505677359954
0.349000000000000199,-22.704356464111803859
0.350000000000000200,-22.554263891331789438
0.351000000000000201,-22.403717532938294710
0.352000000000000202,-22.252700374158614238
0.353000000000000203,-22.101198571335885390
0.354000000000000203,-21.949201378287718001
0.355000000000000204,-21.796701068014691316
0.356000000000000205,-21.643692850223814617
0.357000000000000206,-21.490174785115677025
0.358000000000000207,-21.336147693867083319
0.359000000000000208,-21.181615066224761534
0.360000000000000209,-21.026582965607836684
0.361000000000000210,-20.871059932100177292
0.362000000000000210,-20.715056883696156831
0.363000000000000211,-20.558587016146290694
0.364000000000000212,-20.401665701732181191
0.365000000000000213,-20.244310387282894226
0.366000000000000214,-20.086540491728705149
0.367000000000000215,-19.928377303470874438
0.368000000000000216,-19.769843877830524548
0.369000000000000217,-19.610964934823154948
0.370000000000000218,-19.451766757490254633
0.371000000000000218,-19.292277091003658285
0.372000000000000219,-19.132525042743779409
0.373000000000000220,-18.972540983538383585
0.374000000000000221,-18.812356450234339889
0.375000000000000222,-18.652004049761305993
0.376000000000000223,-18.491517364833139681
0.377000000000000224,-18.330930861420210221
0.378000000000000225,-18.170279798113401881
0.379000000000000226,-18.009600137488899207
0.380000000000000226,-17.848928459571862248
0.381000000000000227,-17.688301877485621105
0.382000000000000228,-17.527757955363380660
0.383000000000000229,-17.367334628589262024
0.384000000000000230,-17.207070126425811907
0.385000000000000231,-17.047002897076772854
0.386000000000000232,-16.887171535224887009
0.387000000000000233,-16.727614712076654513
0.388000000000000234,-16.568371107938311582
0.389000000000000234,-16.409479347340273137
0.390000000000000235,-16.250977936720065742
0.391000000000000236,-16.092905204668007002
0.392000000000000237,-15.935299244733275970
0.393000000000000238,-15.778197860783071960
0.394000000000000239,-15.621638514901693640
0.395000000000000240,-15.465658277812039501
0.396000000000000241,-15.310293781797359003
0.397000000000000242,-15.155581176096527329
0.398000000000000242,-15.001556084743095099
0.399000000000000243,-14.848253566813998106
0.400000000000000244,-14.695708079050897155
0.401000000000000245,-14.543953440814513911
0.402000000000000246,-14.393022801329076188
0.403000000000000247,-14.242948609171762087
0.404000000000000248,-14.093762583960270263
0.405000000000000249,-13.945495690189138926
0.406000000000000250,-13.798178113164121683
0.407000000000000250,-13.651839236982350911
0.408000000000000251,-13.506507624504726195
0.409000000000000252,-13.362210999265979439
0.410000000000000253,-13.218976229266868216
0.411000000000000254,-13.076829312592346710
0.412000000000000255,-12.935795364798966745
0.413000000000000256,-12.795898608014397269
0.414000000000000257,-12.657162361691598917
0.415000000000000258,-12.519609034960279104
0.416000000000000258,-12.383260120518105651
0.417000000000000259,-12.248136190004331070
0.418000000000000260,-12.114256890798827726
0.419000000000000261,-11.981640944189638986
0.420000000000000262,-11.850306144852991608
0.421000000000000263,-11.720269361589824797
0.422000000000000264,-11.591546539263799076
0.423000000000000265,-11.464152701886280994
0.424000000000000266,-11.338101956794726988
0.425000000000000266,-11.213407499871491879
0.426000000000000267,-11.090081621751082253
0.427000000000000268,-10.968135714964876826
0.428000000000000269,-10.847580281973151273
0.429000000000000270,-10.728424944035335642
0.430000000000000271,-10.610678450870514311
0.431000000000000272,-10.494348691061178513
0.432000000000000273,-10.379442703154385441
0.433000000000000274,-10.265966687415689407
0.434000000000000274,-10.153926018192127145
0.435000000000000275,-10.043325256841987070
0.436000000000000276,-9.934168165190113697
0.437000000000000277,-9.826457719468566054
0.438000000000000278,-9.720196124703956997
0.439000000000000279,-9.615384829513738296
0.440000000000000280,-9.512024541274858080
0.441000000000000281,-9.410115241629675609
0.442000000000000282,-9.309656202294942062
0.443000000000000282,-9.210646001140915473
0.444000000000000283,-9.113082538508955111
0.445000000000000284,-9.016963053736969158
0.446000000000000285,-8.922284141863192630
0.447000000000000286,-8.829041770480264617
0.448000000000000287,-8.737231296712081985
0.449000000000000288,-8.646847484287738084
0.450000000000000289,-8.557884520687274232
0.451000000000000290,-8.470336034335565145
0.452000000000000290,-8.384195111821352242
0.453000000000000291,-8.299454315119708880
0.454000000000000292,-8.216105698797134593
0.455000000000000293,-8.134140827179406230
0.456000000000000294,-8.053550791463502279
0.457000000000000295,-7.974326226755533931
0.458000000000000296,-7.896457329017951388
0.459000000000000297,-7.819933871909808154
0.460000000000000298,-7.744745223505010934
0.461000000000000298,-7.670880362874210157
0.462000000000000299,-7.598327896516943625
0.463000000000000300,-7.527076074631255054
0.464000000000000301,-7.457112807209033356
0.465000000000000302,-7.388425679945955338
0.466000000000000303,-7.321001969955622357
0.467000000000000304,-7.254828661278272861
0.468000000000000305,-7.189892460175210331
0.469000000000000306,-7.126179810200558684
0.470000000000000306,-7.063676907042841790
0.471000000000000307,-7.002369713129280804
0.472000000000000308,-6.942243971986584938
0.473000000000000309,-6.883285222352259147
0.474000000000000310,-6.825478812031344766
0.475000000000000311,-6.768809911493798737
0.476000000000000312,-6.713263527208466641
0.477000000000000313,-6.658824514709761111
0.478000000000000314,-6.605477591394103953
0.479000000000000314,-6.553207349043229435
0.480000000000000315,-6.501998266072104293
0.481000000000000316,-6.451834719499627724
0.482000000000000317,-6.402700996640606768
0.483000000000000318,-6.354581306517938621
0.484000000000000319,-6.307459790994246696
0.485000000000000320,-6.261320535622730610
0.486000000000000321,-6.216147580217030288
0.487000000000000322,-6.171924929140504723
0.488000000000000322,-6.128636561315476072
0.489000000000000323,-6.086266439953307739
0.490000000000000324,-6.044798522006471053
0.491000000000000325,-6.004216767343995897
0.492000000000000326,-5.964505147651911088
0.493000000000000327,-5.925647655060592101
0.494000000000000328,-5.887628310501049178
0.495000000000000329,-5.850431171792486396
0.496000000000000330,-5.814040341463540429
0.497000000000000330,-5.778439974309878657
0.498000000000000331,-5.743614284690989891
0.499000000000000332,-5.709547553569074729
0.500000000000000333,-5.676224135293172601
0.501000000000000334,-5.643628464131785094
0.502000000000000335,-5.611745060557296938
0.503000000000000336,-5.580558537285726040
0.504000000000000337,-5.550053605075337515
0.505000000000000338,-5.520215078287792565
0.506000000000000338,-5.491027880215618495
0.507000000000000339,-5.462477048179758654
0.508000000000000340,-5.434547738401202643
0.509000000000000341,-5.407225230650521297
0.510000000000000342,-5.380494932679463105
0.511000000000000343,-5.354342384438542268
0.512000000000000344,-5.328753262084797271
0.513000000000000345,-5.303713381783814462
0.514000000000000346,-5.279208703310186657
0.515000000000000346,-5.255225333450582959
0.516000000000000347,-5.231749529213603367
0.517000000000000348,-5.208767700850698290
0.518000000000000349,-5.186266414692230597
0.519000000000000350,-5.164232395803016296
0.520000000000000351,-5.142652530461519156
0.521000000000000352,-5.121513868466833763
0.522000000000000353,-5.100803625277726461
0.523000000000000353,-5.080509183987847344
0.524000000000000354,-5.060618097141314387
0.525000000000000355,-5.041118088392731345
0.526000000000000356,-5.021997054015804096
0.527000000000000357,-5.003243064264585982
0.528000000000000358,-4.984844364591425325
0.529000000000000359,-4.966789376725539107
0.530000000000000360,-4.949066699616317067
0.531000000000000361,-4.931665110245138983
0.532000000000000361,-4.914573564309677067
0.533000000000000362,-4.897781196784499080
0.534000000000000363,-4.881277322361773585
0.535000000000000364,-4.865051435775788136
0.536000000000000365,-4.849093212015041843
0.537000000000000366,-4.833392506425508550
0.538000000000000367,-4.817939354708673960
0.539000000000000368,-4.802723972817924292
0.540000000000000369,-4.787736756756711287
0.541000000000000369,-4.772968282281993879
0.542000000000000370,-4.758409304516293403
0.543000000000000371,-4.744050757471677038
0.544000000000000372,-4.729883753488982379
0.545000000000000373,-4.715899582595414863
0.546000000000000374,-4.702089711783736803
0.547000000000000375,-4.688445784216074941
0.548000000000000376,-4.674959618355436497
0.549000000000000377,-4.661623207027858484
0.550000000000000377,-4.648428716418099071
0.551000000000000378,-4.635368485001767347
0.552000000000000379,-4.622435022416632400
0.553000000000000380,-4.609621008275878395
0.554000000000000381,-4.596919290925960411
0.555000000000000382,-4.584322886151698029
0.556000000000000383,-4.571824975831106919
0.557000000000000384,-4.559418906542546779
0.558000000000000385,-4.547098188126552643
0.559000000000000385,-4.534856492204775158
0.560000000000000386,-4.522687650658312464
0.561000000000000387,-4.510585654067741146
0.562000000000000388,-4.498544650117038302
0.563000000000000389,-4.486558941963513014
0.564000000000000390,-4.474622986575907291
0.565000000000000391,-4.462731393042668415
0.566000000000000392,-4.450878920852376908
0.567000000000000393,-4.439060478148293853
0.568000000000000393,-4.427271119958859025
0.569000000000000394,-4.415506046406024510
0.570000000000000395,-4.403760600893178889
0.571000000000000396,-4.392030268274330851
0.572000000000000397,-4.380310673006348132
0.573000000000000398,-4.368597577285736833
0.574000000000000399,-4.356886879171645077
0.575000000000000400,-4.345174610696572515
0.576000000000000401,-4.333456935966256474
0.577000000000000401,-4.321730149250184283
0.578000000000000402,-4.309990673064140410
0.579000000000000403,-4.298235056246074492
0.580000000000000404,-4.286459972026633203
0.581000000000000405,-4.274662216095626022
0.582000000000000406,-4.262838704665544931
0.583000000000000407,-4.250986472533448080
0.584000000000000408,-4.239102671142195966
0.585000000000000409,-4.227184566642224084
0.586000000000000409,-4.215229537954864547
0.587000000000000410,-4.203235074838229224
0.588000000000000411,-4.191198775956620715
0.589000000000000412,-4.179118346954428631
0.590000000000000413,-4.166991598535372709
0.591000000000000414,-4.154816444548011134
0.592000000000000415,-4.142590900078273464
0.593000000000000416,-4.130313079549868149
0.594000000000000417,-4.117981194833311598
0.595000000000000417,-4.105593553364292880
0.596000000000000418,-4.093148556272064198
0.597000000000000419,-4.080644696518588077
0.598000000000000420,-4.068080557048973311
0.599000000000000421,-4.055454808953903978
0.600000000000000422,-4.042766209644570452
0.601000000000000423,-4.030013601040693949
0.602000000000000424,-4.017195907772150854
0.603000000000000425,-4.004312135394695993
0.604000000000000425,-3.991361368620238270
0.605000000000000426,-3.978342769562154047
0.606000000000000427,-3.965255575996027293
0.607000000000000428,-3.952099099636192214
