# Cu001_CS-68900-AC
# h[nm],U(h)[kJ/mol]
0.200000000000000011,86.279382388352175326
0.201000000000000012,81.368946826590359933
0.202000000000000013,77.958514673078326496
0.203000000000000014,75.264898693986438616
0.204000000000000015,72.839965712714544566
0.205000000000000016,70.450280871039439035
0.206000000000000016,67.994509650361209196
0.207000000000000017,65.447912203414631449
0.208000000000000018,62.826042127072526000
0.209000000000000019,60.161860010732333137
0.210000000000000020,57.492049279890053981
0.211000000000000021,54.849500794324946185
0.212000000000000022,52.259808323418440068
0.213000000000000023,49.740262683773252661
0.214000000000000024,47.300304368310875702
0.215000000000000024,44.942736170390283235
0.216000000000000025,42.665241672598476441
0.217000000000000026,40.461927704510415538
0.218000000000000027,38.324728066848507524
0.219000000000000028,36.244586375427346070
0.220000000000000029,34.212388605618784254
0.221000000000000030,32.219648875721077275
0.222000000000000031,30.258971160027449798
0.223000000000000032,28.324319345782718926
0.224000000000000032,26.411131520458035027
0.225000000000000033,24.516313875798498856
0.226000000000000034,22.638146751980443128
0.227000000000000035,20.776131232772527824
0.228000000000000036,18.930800091819101283
0.229000000000000037,17.103512269205211282
0.230000000000000038,15.296245726622132111
0.231000000000000039,13.511399657064334434
0.232000000000000040,11.751613688738327568
0.233000000000000040,10.019608940004717468
0.234000000000000041,8.318053531414891566
0.235000000000000042,6.649453398000423121
0.236000000000000043,5.016067913640990028
0.237000000000000044,3.419848878723617425
0.238000000000000045,1.862400771893832241
0.239000000000000046,0.344959769429494745
0.240000000000000047,-1.131611160209789135
0.241000000000000048,-2.566813819508683370
0.242000000000000048,-3.960495659753092923
0.243000000000000049,-5.312822471831195159
0.244000000000000050,-6.624245173637179462
0.245000000000000051,-7.895462729569755922
0.246000000000000052,-9.127382973254842824
0.247000000000000053,-10.321082837497973728
0.248000000000000054,-11.477769235583764385
0.249000000000000055,-12.598741592555096958
0.250000000000000056,-13.685356798858581584
0.251000000000000056,-14.738997154695507419
0.252000000000000057,-15.761041693054039570
0.253000000000000058,-16.752841113059947276
0.254000000000000059,-17.715696422466169935
0.255000000000000060,-18.650841277673933405
0.256000000000000061,-19.559427920096155162
0.257000000000000062,-20.442516537117004560
0.258000000000000063,-21.301067822410637120
0.259000000000000064,-22.135938471945728168
0.260000000000000064,-22.947879326633533026
0.261000000000000065,-23.737535858361756169
0.262000000000000066,-24.505450691299664356
0.263000000000000067,-25.252067853193363334
0.264000000000000068,-25.977738460387818975
0.265000000000000069,-26.682727554159033190
0.266000000000000070,-27.367221823418862670
0.267000000000000071,-28.031337968927971360
0.268000000000000071,-28.675131485921149022
0.269000000000000072,-29.298605664758746059
0.270000000000000073,-29.901720632234219721
0.271000000000000074,-30.484402278974840783
0.272000000000000075,-31.046550940556556952
0.273000000000000076,-31.588049721188337315
0.274000000000000077,-32.108772368866745239
0.275000000000000078,-32.608590629577300035
0.276000000000000079,-33.087381025313860050
0.277000000000000079,-33.545031016331634532
0.278000000000000080,-33.981444522117357110
0.279000000000000081,-34.396546788063709243
0.280000000000000082,-34.790288595805265004
0.281000000000000083,-35.162649824671134979
0.282000000000000084,-35.513642379804778670
0.283000000000000085,-35.843312509282341694
0.284000000000000086,-36.151742538117510151
0.285000000000000087,-36.439052051472700100
0.286000000000000087,-36.705398562803843276
0.287000000000000088,-36.950977705148012831
0.288000000000000089,-37.176022985419088229
0.289000000000000090,-37.380805142503099603
0.290000000000000091,-37.565631150230373692
0.291000000000000092,-37.730842906036841100
0.292000000000000093,-37.876815645389541487
0.293000000000000094,-38.003956120918608974
0.294000000000000095,-38.112700583738913451
0.295000000000000095,-38.203512602722881297
0.296000000000000096,-38.276880755558352121
0.297000000000000097,-38.333316223343892659
0.298000000000000098,-38.373350318284565219
0.299000000000000099,-38.397531971794528260
0.300000000000000100,-38.406425208023854623
0.301000000000000101,-38.400606625536582328
0.302000000000000102,-38.380662907602456357
0.303000000000000103,-38.347188379346370368
0.304000000000000103,-38.300782627847674178
0.305000000000000104,-38.242048199209357051
0.306000000000000105,-38.171588384639200342
0.307000000000000106,-38.090005105707206212
0.308000000000000107,-37.997896907176119896
0.309000000000000108,-37.895857064146909465
0.310000000000000109,-37.784471808722969399
0.311000000000000110,-37.664318679974940096
0.312000000000000111,-37.535964999684921395
0.313000000000000111,-37.399966475158905155
0.314000000000000112,-37.256865929321875797
0.315000000000000113,-37.107192157343085626
0.316000000000000114,-36.951458908179240836
0.317000000000000115,-36.790163988663756811
0.318000000000000116,-36.623788487107461265
0.319000000000000117,-36.452796112803945050
0.320000000000000118,-36.277632647345576800
0.321000000000000119,-36.098725503250243207
0.322000000000000119,-35.916483385065518519
0.323000000000000120,-35.731296047853483344
0.324000000000000121,-35.543534147758812480
0.325000000000000122,-35.353549179219463383
0.326000000000000123,-35.161673493289370640
0.327000000000000124,-34.968220391498938682
0.328000000000000125,-34.773484289679799986
0.329000000000000126,-34.577740946217033979
0.330000000000000127,-34.381247749263664559
0.331000000000000127,-34.184244057553442531
0.332000000000000128,-33.986951589573422439
0.333000000000000129,-33.789574856007064341
0.334000000000000130,-33.592301630524261213
0.335000000000000131,-33.395303454178382196
0.336000000000000132,-33.198736168864158458
0.337000000000000133,-33.002740475495279782
0.338000000000000134,-32.807442512773079102
0.339000000000000135,-32.612954452635015912
0.340000000000000135,-32.419375108692236154
0.341000000000000136,-32.226790554188490034
0.342000000000000137,-32.035274746234222221
0.343000000000000138,-31.844890153291220969
0.344000000000000139,-31.655688383100407890
0.345000000000000140,-31.467710808460907401
0.346000000000000141,-31.280989188476581830
0.347000000000000142,-31.095546283091245243
0.348000000000000143,-30.911396458931427844
0.349000000000000143,-30.728546284665707589
0.350000000000000144,-30.546995114274444916
0.351000000000000145,-30.366735656798859111
0.352000000000000146,-30.187754531307184891
0.353000000000000147,-30.010032805975448866
0.354000000000000148,-29.833546520332298257
0.355000000000000149,-29.658267189861298618
0.356000000000000150,-29.484162292288765173
0.357000000000000151,-29.311195735013178876
0.358000000000000151,-29.139328303250700003
0.359000000000000152,-28.968518088582367653
0.360000000000000153,-28.798720897692124510
0.361000000000000154,-28.629890641179947863
0.362000000000000155,-28.461979702422986804
0.363000000000000156,-28.294939286537999834
0.364000000000000157,-28.128719749573047437
0.365000000000000158,-27.963270908123508462
0.366000000000000159,-27.798542329628453729
0.367000000000000159,-27.634483603658441808
0.368000000000000160,-27.471044594555074525
0.369000000000000161,-27.308175675825957285
0.370000000000000162,-27.145827946737131953
0.371000000000000163,-26.983953431578989068
0.372000000000000164,-26.822505262109540780
0.373000000000000165,-26.661437843704412387
0.374000000000000166,-26.500707005762240698
0.375000000000000167,-26.340270136931518863
0.376000000000000167,-26.180086305737411578
0.377000000000000168,-26.020116367196635565
0.378000000000000169,-25.860323056015666054
0.379000000000000170,-25.700671066970652845
0.380000000000000171,-25.541127123068967819
0.381000000000000172,-25.381660032091172496
0.382000000000000173,-25.222240732108623718
0.383000000000000174,-25.062842326566922679
0.384000000000000175,-24.903440109518065526
0.385000000000000175,-24.744011581575726666
0.386000000000000176,-24.584536457157973643
0.387000000000000177,-24.424996663570237132
0.388000000000000178,-24.265376332469251963
0.389000000000000179,-24.105661784234861500
0.390000000000000180,-23.945841505762786028
0.391000000000000181,-23.785906122176179167
0.392000000000000182,-23.625848362938615566
0.393000000000000183,-23.465663022834650775
0.394000000000000183,-23.305346918268433853
0.395000000000000184,-23.144898839313515992
0.396000000000000185,-22.984319497930499665
0.397000000000000186,-22.823611472752240559
0.398000000000000187,-22.662779150818966656
0.399000000000000188,-22.501828666629091202
0.400000000000000189,-22.340767838854116434
0.401000000000000190,-22.179606105049607834
0.402000000000000191,-22.018354454677432130
0.403000000000000191,-21.857025360737996067
0.404000000000000192,-21.695632710295175372
0.405000000000000193,-21.534191734160813780
0.406000000000000194,-21.372718935990082656
0.407000000000000195,-21.211232021023988636
0.408000000000000196,-21.049749824700278111
0.409000000000000197,-20.888292241339957656
0.410000000000000198,-20.726880153102449356
0.411000000000000199,-20.565535359388984915
0.412000000000000199,-20.404280506860629885
0.413000000000000200,-20.243139020224891311
0.414000000000000201,-20.082135033932626555
0.415000000000000202,-19.921293324914834955
0.416000000000000203,-19.760639246478508113
0.417000000000000204,-19.600198663468866300
0.418000000000000205,-19.439997888795851111
0.419000000000000206,-19.280063621412349306
0.420000000000000207,-19.120422885822030423
0.421000000000000207,-18.961102973186502396
0.422000000000000208,-18.802131384091687494
0.423000000000000209,-18.643535773026382429
0.424000000000000210,-18.485343894617450644
0.425000000000000211,-18.327583551659106575
0.426000000000000212,-18.170282544966884331
0.427000000000000213,-18.013468625080179208
0.428000000000000214,-17.857169445831505783
0.429000000000000214,-17.701412519794267553
0.430000000000000215,-17.546225175616136482
0.431000000000000216,-17.391634517239676683
0.432000000000000217,-17.237667385007068077
0.433000000000000218,-17.084350318641877919
0.434000000000000219,-16.931709522096220155
0.435000000000000220,-16.779770830248391889
0.436000000000000221,-16.628559677432175334
0.437000000000000222,-16.478101067776030675
0.438000000000000222,-16.328419547327552408
0.439000000000000223,-16.179539177935758687
0.440000000000000224,-16.031483512861314011
0.441000000000000225,-15.884275574082792559
0.442000000000000226,-15.737937831265039534
0.443000000000000227,-15.592492182353765884
0.444000000000000228,-15.447959935759310923
0.445000000000000229,-15.304361794090832305
0.446000000000000230,-15.161717839401017471
0.447000000000000230,-15.020047519900757038
0.448000000000000231,-14.879369638101834994
0.449000000000000232,-14.739702340345406384
0.450000000000000233,-14.601063107673317276
0.451000000000000234,-14.463468747998849295
0.452000000000000235,-14.326935389533346665
0.453000000000000236,-14.191478475424727179
0.454000000000000237,-14.057112759564230231
0.455000000000000238,-13.923852303517204376
0.456000000000000238,-13.791710474534539799
0.457000000000000239,-13.660699944600898093
0.458000000000000240,-13.530832690476861657
0.459000000000000241,-13.402119994691759075
0.460000000000000242,-13.274572447445104117
0.461000000000000243,-13.148199949374514972
0.462000000000000244,-13.023011715148987477
0.463000000000000245,-12.899016277846465428
0.464000000000000246,-12.776221494076049012
0.465000000000000246,-12.654634549805237498
0.466000000000000247,-12.534261966853659231
0.467000000000000248,-12.415109610015443664
0.468000000000000249,-12.297182694773351130
0.469000000000000250,-12.180485795568296581
0.470000000000000251,-12.065022854589127377
0.471000000000000252,-11.950797191048030399
0.472000000000000253,-11.837811510908268886
0.473000000000000254,-11.726067917031384624
0.474000000000000254,-11.615567919712294298
0.475000000000000255,-11.506312447571446000
0.476000000000000256,-11.398301858774152251
0.477000000000000257,-11.291535952548290567
0.478000000000000258,-11.186013980972207449
0.479000000000000259,-11.081734661005933518
0.480000000000000260,-10.978696186739538732
0.481000000000000261,-10.876896241833339474
0.482000000000000262,-10.776332012125845239
0.483000000000000262,-10.677000198385952601
0.484000000000000263,-10.578897029186970613
0.485000000000000264,-10.482018273880880699
0.486000000000000265,-10.386359255652212852
0.487000000000000266,-10.291914864631610982
0.488000000000000267,-10.198679571050117687
0.489000000000000268,-10.106647438416240803
0.490000000000000269,-10.015812136698158952
0.491000000000000270,-9.926166955494926114
0.492000000000000270,-9.837704817180636496
0.493000000000000271,-9.750418290006912514
0.494000000000000272,-9.664299601149338059
0.495000000000000273,-9.579340649684441544
0.496000000000000274,-9.495533019484662773
0.497000000000000275,-9.412867992019030794
0.498000000000000276,-9.331336559048525103
0.499000000000000277,-9.250929435205236473
0.500000000000000222,-9.171637070445436635
0.501000000000000334,-9.093449662367152797
0.502000000000000224,-9.016357168383548171
0.503000000000000336,-8.940349317743727653
0.504000000000000226,-8.865415623393730016
0.505000000000000338,-8.791545393670233466
0.506000000000000227,-8.718727743820931408
0.507000000000000339,-8.646951607345126689
0.508000000000000229,-8.576205747149492353
0.509000000000000341,-8.506478766513593470
0.510000000000000231,-8.437759119861103940
0.511000000000000343,-8.370035123332090876
0.512000000000000233,-8.303294965153204643
0.513000000000000345,-8.237526715802118815
0.514000000000000234,-8.172718337963852164
0.515000000000000346,-8.108857696275865834
0.516000000000000236,-8.045932566860583890
0.517000000000000348,-7.983930646642900975
0.518000000000000238,-7.922839562451821749
0.519000000000000350,-7.862646879904678698
0.520000000000000240,-7.803340112073565926
0.521000000000000352,-7.744906727933114965
0.522000000000000242,-7.687334160589685439
0.523000000000000353,-7.630609815291802711
0.524000000000000243,-7.574721077222312360
0.525000000000000355,-7.519655319072603206
0.526000000000000245,-7.465399908399882989
0.527000000000000357,-7.411942214768158621
0.528000000000000247,-7.359269616674502856
0.529000000000000359,-7.307369508261521318
0.530000000000000249,-7.256229305817970321
0.531000000000000361,-7.205836454068854202
0.532000000000000250,-7.156178432257253696
0.533000000000000362,-7.107242760019509831
0.534000000000000252,-7.059017003056217376
0.535000000000000364,-7.011488778601112415
0.536000000000000254,-6.964645760690404863
0.537000000000000366,-6.918475685234819927
0.538000000000000256,-6.872966354897348751
0.539000000000000368,-6.828105643778910050
0.540000000000000258,-6.783881501915233869
0.541000000000000369,-6.740281959587344218
0.542000000000000259,-6.697295131449027217
0.543000000000000371,-6.654909220473865794
0.544000000000000261,-6.613112521725303061
0.545000000000000373,-6.571893425952477052
0.546000000000000263,-6.531240423015328034
0.547000000000000375,-6.491142105141811669
0.548000000000000265,-6.451587170020876449
0.549000000000000377,-6.412564423734002261
0.550000000000000266,-6.374062783529000242
0.551000000000000378,-6.336071280439057318
0.552000000000000268,-6.298579061750582575
0.553000000000000380,-6.261575393322978300
0.554000000000000270,-6.225049661763859987
0.555000000000000382,-6.188991376462854355
0.556000000000000272,-6.153390171487564508
0.557000000000000384,-6.118235807344681199
0.558000000000000274,-6.083518172609983843
0.559000000000000385,-6.049227285430078815
0.560000000000000275,-6.015353294899598247
0.561000000000000387,-5.981886482316779663
0.562000000000000277,-5.948817262320895694
0.563000000000000389,-5.916136183914650459
0.564000000000000279,-5.883833931374823578
0.565000000000000391,-5.851901325054256198
0.566000000000000281,-5.820329322078393375
0.567000000000000393,-5.789109016939398167
0.568000000000000282,-5.758231641991111260
0.569000000000000394,-5.727688567847603274
0.570000000000000284,-5.697471303688635302
0.571000000000000396,-5.667571497474744646
0.572000000000000286,-5.637980936075123850
0.573000000000000398,-5.608691545310895421
0.574000000000000288,-5.579695389916901505
0.575000000000000400,-5.550984673424670390
0.576000000000000290,-5.522551737969325636
0.577000000000000401,-5.494389064023193825
0.578000000000000291,-5.466489270058795924
0.579000000000000403,-5.438845112143735783
0.580000000000000293,-5.411449483470262223
0.581000000000000405,-5.384295413821816645
0.582000000000000295,-5.357376068979258221
0.583000000000000407,-5.330684750069025313
0.584000000000000297,-5.304214892855767971
0.585000000000000409,-5.277960066981695952
0.586000000000000298,-5.251913975155039438
0.587000000000000410,-5.226070452289716783
0.588000000000000300,-5.200423464598621592
0.589000000000000412,-5.174967108642446689
0.590000000000000302,-5.149695610336356921
0.591000000000000414,-5.124603323916440800
0.592000000000000304,-5.099684730868011329
0.593000000000000416,-5.074934438817655824
0.594000000000000306,-5.050347180391066004
0.595000000000000417,-5.025917812038378507
0.596000000000000307,-5.001641312828954966
0.597000000000000419,-4.977512783217309611
0.598000000000000309,-4.953527443782016704
0.599000000000000421,-4.929680633939108603
0.600000000000000311,-4.905967810631829629
0.601000000000000423,-4.882384546998119745
0.602000000000000313,-4.858926531017612405
0.603000000000000425,-4.835589564139381125
0.604000000000000314,-4.812369559892252013
0.605000000000000426,-4.789262542478711637
0.606000000000000316,-4.766264645354197249
0.607000000000000428,-4.743372109792721503
0.608000000000000318,-4.720581283440512088
0.609000000000000430,-4.697888618858613974
0.610000000000000320,-4.675290672055896657
0.611000000000000432,-4.652784101013504703
0.612000000000000322,-4.630365664202036768
0.613000000000000433,-4.608032219092402570
0.614000000000000323,-4.585780720661627008
0.615000000000000435,-4.563608219894446094
0.616000000000000325,-4.541511862281833345
0.617000000000000437,-4.519488886317363452
0.618000000000000327,-4.497536621992382244
0.619000000000000439,-4.475652489290826708
0.620000000000000329,-4.453833996684652519
0.621000000000000441,-4.432078739630598285
0.622000000000000330,-4.410384399069220862
0.623000000000000442,-4.388748739926815468
0.624000000000000332,-4.367169609621133652
0.625000000000000444,-4.345644936571473771
0.626000000000000334,-4.324172728713936209
0.627000000000000446,-4.302751072022412693
0.628000000000000336,-4.281378129036016666
0.629000000000000448,-4.260052137393476990
0.630000000000000338,-4.238771408375201943
0.631000000000000449,-4.217534325453360822
0.632000000000000339,-4.196339342850758491
0.633000000000000451,-4.175184984108767594
0.634000000000000341,-4.154069840664975644
0.635000000000000453,-4.132992570440913838
0.636000000000000343,-4.111951896440286802
0.637000000000000455,-4.090946605358210419
0.638000000000000345,-4.069975546201723304
0.639000000000000457,-4.049037628922011578
0.640000000000000346,-4.028131823058714645
0.641000000000000458,-4.007257156396566877
0.642000000000000348,-3.986412713634754024
0.643000000000000460,-3.965597635069211258
0.644000000000000350,-3.944811115288233250
0.645000000000000462,-3.924052401881502838
0.646000000000000352,-3.903320794162938423
0.647000000000000464,-3.882615641907431581
0.648000000000000353,-3.861936344101838614
0.649000000000000465,-3.841282347710201606
0.650000000000000355,-3.820653146453662607
0.651000000000000467,-3.800048279604889778
0.652000000000000357,-3.779467330797501745
0.653000000000000469,-3.758909926850302785
0.654000000000000359,-3.738375736606758259
0.655000000000000471,-3.717864469789510906
0.656000000000000361,-3.697375875870303474
0.657000000000000473,-3.676909742955160709
