# Cu001_CS-61707-AC
# h[nm],U(h)[kJ/mol]
0.149999999999999994,123.444507639977658187
0.150999999999999995,117.023147224935158306
0.151999999999999996,112.989276656036921054
0.152999999999999997,109.437603202464899255
0.153999999999999998,105.720664013641865608
0.154999999999999999,101.756888340706012741
0.156000000000000000,97.667991969971211574
0.157000000000000001,93.605955632307512815
0.158000000000000002,89.683965909988188514
0.159000000000000002,85.960328723510684767
0.160000000000000003,82.446129640577652253
0.161000000000000004,79.120787287299762625
0.162000000000000005,75.947623147763195561
0.163000000000000006,72.886140859549414017
0.164000000000000007,69.900174126627589999
0.165000000000000008,66.962267347468710454
0.166000000000000009,64.055132631372259766
0.167000000000000010,61.171114110170535128
0.168000000000000010,58.310486546685993403
0.169000000000000011,55.479236957204918212
0.170000000000000012,52.686789100712914546
0.171000000000000013,49.943962713502074280
0.172000000000000014,47.261324753991168279
0.173000000000000015,44.647990580393503990
0.174000000000000016,42.110865481157183865
0.175000000000000017,39.654275652951959330
0.176000000000000018,37.279916449106217158
0.177000000000000018,34.987038841359989760
0.178000000000000019,32.772797764599964410
0.179000000000000020,30.632694555660730629
0.180000000000000021,28.561057208775849858
0.181000000000000022,26.551514632314194841
0.182000000000000023,24.597433159375647449
0.183000000000000024,22.692294419214498191
0.184000000000000025,20.830002888526905735
0.185000000000000026,19.005118859697994083
0.186000000000000026,17.213018221287260445
0.187000000000000027,15.449984493820911879
0.188000000000000028,13.713241213849261868
0.189000000000000029,12.000934249420426525
0.190000000000000030,10.312074199189392942
0.191000000000000031,8.646448898155901119
0.192000000000000032,7.004515423344029657
0.193000000000000033,5.387280031126358892
0.194000000000000034,3.796173302670550420
0.195000000000000034,2.232926534527924112
0.196000000000000035,0.699454170819141630
0.197000000000000036,-0.802254108015500789
0.198000000000000037,-2.270229106501465477
0.199000000000000038,-3.702604068667625370
0.200000000000000039,-5.097682108207168383
0.201000000000000040,-6.453989035397169616
0.202000000000000041,-7.770312044392547079
0.203000000000000042,-9.045725139715797170
0.204000000000000042,-10.279602480865330350
0.205000000000000043,-11.471621022894487041
0.206000000000000044,-12.621753943214054416
0.207000000000000045,-13.730256385270369179
0.208000000000000046,-14.797645032019108413
0.209000000000000047,-15.824672959053662780
0.210000000000000048,-16.812301120374577579
0.211000000000000049,-17.761667699201890258
0.212000000000000050,-18.674056420605090523
0.213000000000000050,-19.550864779300116680
0.214000000000000051,-20.393572990676553047
0.215000000000000052,-21.203714330668194776
0.216000000000000053,-21.982847394082604353
0.217000000000000054,-22.732530674109703739
0.218000000000000055,-23.454299749758270366
0.219000000000000056,-24.149647264045718487
0.220000000000000057,-24.820005784444852281
0.221000000000000058,-25.466733558442378182
0.222000000000000058,-26.091103110818806954
0.223000000000000059,-26.694292574841103516
0.224000000000000060,-27.277379606213997931
0.225000000000000061,-27.841337695455184331
0.226000000000000062,-28.387034670357685684
0.227000000000000063,-28.915233164352589057
0.228000000000000064,-29.426592817854036355
0.229000000000000065,-29.921673977048293125
0.230000000000000066,-30.400942657111023948
0.231000000000000066,-30.864776543599237613
0.232000000000000067,-31.313471815925094432
0.233000000000000068,-31.747250589619333994
0.234000000000000069,-32.166268788848178417
0.235000000000000070,-32.570624276755403059
0.236000000000000071,-32.960365088135063161
0.237000000000000072,-33.335497626249193104
0.238000000000000073,-33.695994702906773455
0.239000000000000073,-34.041803317897993963
0.240000000000000074,-34.372852090280794357
0.241000000000000075,-34.689058269635005161
0.242000000000000076,-34.990334270086123070
0.243000000000000077,-35.276593683542138535
0.244000000000000078,-35.547756741109303391
0.245000000000000079,-35.803755203014596020
0.246000000000000080,-36.044536667548491948
0.247000000000000081,-36.270068298562691211
0.248000000000000081,-36.480339978933784550
0.249000000000000082,-36.675366904183270833
0.250000000000000111,-36.855191636175732128
0.251000000000000112,-37.019885641562183309
0.252000000000000113,-37.169550343465267872
0.253000000000000114,-37.304317717882398142
0.254000000000000115,-37.424350468494125721
0.255000000000000115,-37.529841815074505007
0.256000000000000116,-37.621014931586344687
0.257000000000000117,-37.698122070377188209
0.258000000000000118,-37.761443408740333894
0.259000000000000119,-37.811285653534952189
0.260000000000000120,-37.847980438635602241
0.261000000000000121,-37.871882548755209541
0.262000000000000122,-37.883368001719645690
0.263000000000000123,-37.882832019607590723
0.264000000000000123,-37.870686917356600532
0.265000000000000124,-37.847359935513665619
0.266000000000000125,-37.813291041811709192
0.267000000000000126,-37.768930724216851047
0.268000000000000127,-37.714737796040644469
0.269000000000000128,-37.651177231672591006
0.270000000000000129,-37.578718049482553454
0.271000000000000130,-37.497831256486712448
0.272000000000000131,-37.408987867480618661
0.273000000000000131,-37.312657009529516472
0.274000000000000132,-37.209304120980270625
0.275000000000000133,-37.099389252527643634
0.276000000000000134,-36.983365476335492872
0.277000000000000135,-36.861677407784767979
0.278000000000000136,-36.734759843096973952
0.279000000000000137,-36.603036514864363937
0.280000000000000138,-36.466918966405714286
0.281000000000000139,-36.326805544858849828
0.282000000000000139,-36.183080512013802377
0.283000000000000140,-36.036113271082292897
0.284000000000000141,-35.886257706884784113
0.285000000000000142,-35.733851636313133326
0.286000000000000143,-35.579216365388745658
0.287000000000000144,-35.422656348779128166
0.288000000000000145,-35.264458947255853616
0.289000000000000146,-35.104894278265803109
0.290000000000000147,-34.944215154545183566
0.291000000000000147,-34.782657105521352037
0.292000000000000148,-34.620438476121364602
0.293000000000000149,-34.457760597528896085
0.294000000000000150,-34.294808024400978752
0.295000000000000151,-34.131748833067362625
0.296000000000000152,-33.968734975283062738
0.297000000000000153,-33.805902682185781316
0.298000000000000154,-33.643372913219458553
0.299000000000000155,-33.481251844920102201
0.300000000000000155,-33.319631394616294529
0.301000000000000156,-33.158589774270893713
0.302000000000000157,-32.998192069880332156
0.303000000000000158,-32.838490842049161245
0.304000000000000159,-32.679526743569418556
0.305000000000000160,-32.521329150051855095
0.306000000000000161,-32.363916799880811936
0.307000000000000162,-32.207298439990033501
0.308000000000000163,-32.051473474184618340
0.309000000000000163,-31.896432610962012433
0.310000000000000164,-31.742158508010000162
0.311000000000000165,-31.588626410782048026
0.312000000000000166,-31.435804782768919097
0.313000000000000167,-31.283655925298177181
0.314000000000000168,-31.132136584900301557
0.315000000000000169,-30.981198546481028444
0.316000000000000170,-30.830789210731989414
0.317000000000000171,-30.680852154398071008
0.318000000000000171,-30.531327672196550083
0.319000000000000172,-30.382153299352971487
0.320000000000000173,-30.233264313878539298
0.321000000000000174,-30.084594217866349908
0.322000000000000175,-29.936075197226536204
0.323000000000000176,-29.787638559415221096
0.324000000000000177,-29.639215148837859459
0.325000000000000178,-29.490735739724641462
0.326000000000000179,-29.342131406385220771
0.327000000000000179,-29.193333870849805578
0.328000000000000180,-29.044275827996937522
0.329000000000000181,-28.894891248353211211
0.330000000000000182,-28.745115658826854599
0.331000000000000183,-28.594886401708276225
0.332000000000000184,-28.444142872332811578
0.333000000000000185,-28.292826735858220388
0.334000000000000186,-28.140882123659139324
0.335000000000000187,-27.988255809884805103
0.336000000000000187,-27.834897368765403769
0.337000000000000188,-27.680759313284134748
0.338000000000000189,-27.525797215861171452
0.339000000000000190,-27.369969811718068087
0.340000000000000191,-27.213239085609512102
0.341000000000000192,-27.055570342624690738
0.342000000000000193,-26.896932263769492977
0.343000000000000194,-26.737296947049124185
0.344000000000000195,-26.576639934772980922
0.345000000000000195,-26.414940227804798667
0.346000000000000196,-26.252180287478221743
0.347000000000000197,-26.088346025893180524
0.348000000000000198,-25.923426785301039388
0.349000000000000199,-25.757415307276808392
0.350000000000000200,-25.590307692365758641
0.351000000000000201,-25.422103350878302308
0.352000000000000202,-25.252804945492549393
0.353000000000000203,-25.082418326308079770
0.354000000000000203,-24.910952458977522639
0.355000000000000204,-24.738419346523954800
0.356000000000000205,-24.564833945433925066
0.357000000000000206,-24.390214076595945869
0.358000000000000207,-24.214580331633836607
0.359000000000000208,-24.037955975164436495
0.360000000000000209,-23.860366843487462063
0.361000000000000210,-23.681841240194739129
0.362000000000000210,-23.502409829164250255
0.363000000000000211,-23.322105525383420854
0.364000000000000212,-23.140963384024768601
0.365000000000000213,-22.959020488175500674
0.366000000000000214,-22.776315835602211735
0.367000000000000215,-22.592890224910426866
0.368000000000000216,-22.408786141439001938
0.369000000000000217,-22.224047643208571401
0.370000000000000218,-22.038720247224084403
0.371000000000000218,-21.852850816411848456
0.372000000000000219,-21.666487447452801973
0.373000000000000220,-21.479679359755387225
0.374000000000000221,-21.292476785793684968
0.375000000000000222,-21.104930863018843468
0.376000000000000223,-20.917093527535630670
0.377000000000000224,-20.729017409719329379
0.378000000000000225,-20.540755731932797801
0.379000000000000226,-20.352362208488507633
0.380000000000000226,-20.163890947986068625
0.381000000000000227,-19.975396358141555453
0.382000000000000228,-19.786933053212163003
0.383000000000000229,-19.598555764106968979
0.384000000000000230,-19.410319251261984874
0.385000000000000231,-19.222278220347210009
0.386000000000000232,-19.034487240861579949
0.387000000000000233,-18.847000667661660600
0.388000000000000234,-18.659872565460283056
0.389000000000000234,-18.473156636322041635
0.390000000000000235,-18.286906150173372509
0.391000000000000236,-18.101173878337537104
0.392000000000000237,-17.916012030096339913
0.393000000000000238,-17.731472192273731281
0.394000000000000239,-17.547605271829350926
0.395000000000000240,-17.364461441444074552
0.396000000000000241,-17.182090088073600498
0.397000000000000242,-17.000539764440635082
0.398000000000000242,-16.819858143431606123
0.399000000000000243,-16.640091975358853205
0.400000000000000244,-16.461287048045033288
0.401000000000000245,-16.283488149683201129
0.402000000000000246,-16.106739034421799772
0.403000000000000247,-15.931082390620954214
0.404000000000000248,-15.756559811723946041
0.405000000000000249,-15.583211769684691461
0.406000000000000250,-15.411077590890187139
0.407000000000000250,-15.240195434514797412
0.408000000000000251,-15.070602273241624047
0.409000000000000252,-14.902333876284814096
0.410000000000000253,-14.735424794645231472
0.411000000000000254,-14.569908348531441789
0.412000000000000255,-14.405816616876595759
0.413000000000000256,-14.243180428881776933
0.414000000000000257,-14.082029357515585488
0.415000000000000258,-13.922391714899902126
0.416000000000000258,-13.764294549511495447
0.417000000000000259,-13.607763645129301366
0.418000000000000260,-13.452823521457649036
0.419000000000000261,-13.299497436355760982
0.420000000000000262,-13.147807389604835748
0.421000000000000263,-12.997774128144195416
0.422000000000000264,-12.849417152709088796
0.423000000000000265,-12.702754725803245606
0.424000000000000266,-12.557803880940671348
0.425000000000000266,-12.414580433091584766
0.426000000000000267,-12.273098990268929143
0.427000000000000268,-12.133372966192927933
0.428000000000000269,-11.995414593972171247
0.429000000000000270,-11.859234940741291808
0.430000000000000271,-11.724843923196223372
0.431000000000000272,-11.592250323969748749
0.432000000000000273,-11.461461808791060690
0.433000000000000274,-11.332484944374819236
0.434000000000000274,-11.205325216986256720
0.435000000000000275,-11.079987051630645567
0.436000000000000276,-10.956473831816762043
0.437000000000000277,-10.834787919845350501
0.438000000000000278,-10.714930677575329909
0.439000000000000279,-10.596902487621857603
0.440000000000000280,-10.480702774941640598
0.441000000000000281,-10.366330028762806847
0.442000000000000282,-10.253781824817782109
0.443000000000000282,-10.143054847839156452
0.444000000000000283,-10.034144914280179961
0.445000000000000284,-9.927046995222745807
0.446000000000000285,-9.821755239437147011
0.447000000000000286,-9.718262996559783318
0.448000000000000287,-9.616562840355509678
0.449000000000000288,-9.516646592033726648
0.450000000000000289,-9.418505343587849410
0.451000000000000290,-9.322129481129580952
0.452000000000000290,-9.227508708190583775
0.453000000000000291,-9.134632068965492735
0.454000000000000292,-9.043487971471398268
0.455000000000000293,-8.954064210600218843
0.456000000000000294,-8.866347991041644505
0.457000000000000295,-8.780325950055381412
0.458000000000000296,-8.695984180072720449
0.459000000000000297,-8.613308251108509950
0.460000000000000298,-8.532283232965726327
0.461000000000000298,-8.452893717215840041
0.462000000000000299,-8.375123838939439125
0.463000000000000300,-8.298957298212194189
0.464000000000000301,-8.224377381322620195
0.465000000000000302,-8.151366981708857651
0.466000000000000303,-8.079908620602557434
0.467000000000000304,-8.009984467368921557
0.468000000000000305,-7.941576359532950491
0.469000000000000306,-7.874665822482446842
0.470000000000000306,-7.809234088839505539
0.471000000000000307,-7.745262117492639042
0.472000000000000308,-7.682730612282836269
0.473000000000000309,-7.621620040337106161
0.474000000000000310,-7.561910650044168847
0.475000000000000311,-7.503582488667360550
0.476000000000000312,-7.446615419590669305
0.477000000000000313,-7.390989139194059199
0.478000000000000314,-7.336683193355372445
0.479000000000000314,-7.283676993576198022
0.480000000000000315,-7.231949832729782202
0.481000000000000316,-7.181480900429764169
0.482000000000000317,-7.132249298018614070
0.483000000000000318,-7.084234053175568313
0.484000000000000319,-7.037414134143863187
0.485000000000000320,-6.991768463577929360
0.486000000000000321,-6.947275932011232058
0.487000000000000322,-6.903915410946045661
0.488000000000000322,-6.861665765566732134
0.489000000000000323,-6.820505867078520801
0.490000000000000324,-6.780414604673950407
0.491000000000000325,-6.741370897129639772
0.492000000000000326,-6.703353704036120853
0.493000000000000327,-6.666342036663974291
0.494000000000000328,-6.630314968469557257
0.495000000000000329,-6.595251645243971339
0.496000000000000330,-6.561131294909107403
0.497000000000000330,-6.527933236964774899
0.498000000000000331,-6.495636891591189510
0.499000000000000332,-6.464221788411188996
0.500000000000000333,-6.433667574916766441
0.501000000000000334,-6.403954024564669112
0.502000000000000335,-6.375061044545847544
0.503000000000000336,-6.346968683233863651
0.504000000000000337,-6.319657137317205020
0.505000000000000338,-6.293106758620860219
0.506000000000000338,-6.267298060622361611
0.507000000000000339,-6.242211724667669159
0.508000000000000340,-6.217828605892416149
0.509000000000000341,-6.194129738853948908
0.510000000000000342,-6.171096342879795138
0.511000000000000343,-6.148709827138107542
0.512000000000000344,-6.126951795435776837
0.513000000000000345,-6.105804050749866541
0.514000000000000346,-6.085248599498099153
0.515000000000000346,-6.065267655554037241
0.516000000000000347,-6.045843644012727225
0.517000000000000348,-6.026959204712571960
0.518000000000000349,-6.008597195518984968
0.519000000000000350,-5.990740695375700753
0.520000000000000351,-5.973373007129344714
0.521000000000000352,-5.956477660132902585
0.522000000000000353,-5.940038412633775522
0.523000000000000353,-5.924039253951973727
0.524000000000000354,-5.908464406454088547
0.525000000000000355,-5.893298327328456487
0.526000000000000356,-5.878525710167115115
0.527000000000000357,-5.864131486359894119
0.528000000000000358,-5.850100826306093182
0.529000000000000359,-5.836419140448992238
0.530000000000000360,-5.823072080138571138
0.531000000000000361,-5.810045538327559100
0.532000000000000361,-5.797325650105999095
0.533000000000000362,-5.784898793079412016
0.534000000000000363,-5.772751587595597478
0.535000000000000364,-5.760870896824938470
0.536000000000000365,-5.749243826699213855
0.537000000000000366,-5.737857725713601198
0.538000000000000367,-5.726700184596671406
0.539000000000000368,-5.715759035853045233
0.540000000000000369,-5.705022353183193395
0.541000000000000369,-5.694478450785021906
0.542000000000000370,-5.684115882541556530
0.543000000000000371,-5.673923441099120168
0.544000000000000372,-5.663890156840276191
0.545000000000000373,-5.654005296755689969
0.546000000000000374,-5.644258363219056385
0.547000000000000375,-5.634639092669077698
0.548000000000000376,-5.625137454202486786
0.549000000000000377,-5.615743648081934936
0.550000000000000377,-5.606448104162519819
0.551000000000000378,-5.597241480240737310
0.552000000000000379,-5.588114660329360994
0.553000000000000380,-5.579058752861890902
0.554000000000000381,-5.570065088829956323
0.555000000000000382,-5.561125219857142810
0.556000000000000383,-5.552230916212414158
0.557000000000000384,-5.543374164766494694
0.558000000000000385,-5.534547166894246750
0.559000000000000385,-5.525742336326191051
0.560000000000000386,-5.516952296952053914
0.561000000000000387,-5.508169880579396605
0.562000000000000388,-5.499388124650034904
0.563000000000000389,-5.490600269917075948
0.564000000000000390,-5.481799758085238672
0.565000000000000391,-5.472980229417100162
0.566000000000000392,-5.464135520307765503
0.567000000000000393,-5.455259660830469315
0.568000000000000393,-5.446346872255479532
0.569000000000000394,-5.437391564544665101
0.570000000000000395,-5.428388333823970235
0.571000000000000396,-5.419331959835964163
0.572000000000000397,-5.410217403374661949
0.573000000000000398,-5.401039803704614783
0.574000000000000399,-5.391794475966265487
0.575000000000000400,-5.382476908569586271
0.576000000000000401,-5.373082760577736039
0.577000000000000401,-5.363607859082680562
0.578000000000000402,-5.354048196574426655
0.579000000000000403,-5.344399928305614722
0.580000000000000404,-5.334659369653079963
0.581000000000000405,-5.324822993477972943
0.582000000000000406,-5.314887427485921911
0.583000000000000407,-5.304849451588761866
0.584000000000000408,-5.294705995269188392
0.585000000000000409,-5.284454134949704951
0.586000000000000409,-5.274091091367198558
0.587000000000000410,-5.263614226954358877
0.588000000000000411,-5.253021043229191278
0.589000000000000412,-5.242309178193747421
0.590000000000000413,-5.231476403743171133
0.591000000000000414,-5.220520623086197354
0.592000000000000415,-5.209439868178058042
0.593000000000000416,-5.198232297166757832
0.594000000000000417,-5.186896191853731075
0.595000000000000417,-5.175429955169708940
0.596000000000000418,-5.163832108666639442
0.597000000000000419,-5.152101290026530833
0.598000000000000420,-5.140236250587920885
0.599000000000000421,-5.128235852890757229
0.600000000000000422,-5.116099068240347769
0.601000000000000423,-5.103824974291070404
0.602000000000000424,-5.091412752650447793
0.603000000000000425,-5.078861686504192896
0.604000000000000425,-5.066171158262758212
0.605000000000000426,-5.053340647229950022
0.606000000000000427,-5.040369727294083724
0.607000000000000428,-5.027258064642108337
