# Cu001_CS-66579-AC
# h[nm],U(h)[kJ/mol]
0.149999999999999994,96.147021488679271783
0.150999999999999995,91.808343182030867524
0.151999999999999996,88.212621183698232130
0.152999999999999997,84.774737257615612407
0.153999999999999998,81.331610102191646661
0.154999999999999999,77.890155612387928841
0.156000000000000000,74.503974429815073677
0.157000000000000001,71.220782306320515431
0.158000000000000002,68.066218744207631630
0.159000000000000002,65.044410516547756629
0.160000000000000003,62.144659522308110411
0.161000000000000004,59.348950519473063991
0.162000000000000005,56.638003767530406662
0.163000000000000006,53.995221640222951009
0.164000000000000007,51.408668055089400184
0.165000000000000008,48.871534707839664691
0.166000000000000009,46.381609831459165605
0.167000000000000010,43.940205545156423739
0.168000000000000010,41.550894312685173304
0.169000000000000011,39.218294058361266252
0.170000000000000012,36.947044478929164768
0.171000000000000013,34.741041256326077757
0.172000000000000014,32.602940835130524988
0.173000000000000015,30.533913579662691262
0.174000000000000016,28.533603637828786503
0.175000000000000017,26.600245743122648889
0.176000000000000018,24.730888925335413830
0.177000000000000018,22.921681752364978735
0.178000000000000019,21.168181043636671745
0.179000000000000020,19.465654354472000875
0.180000000000000021,17.809354828767389733
0.181000000000000022,16.194754569185793258
0.182000000000000023,14.617729108104409619
0.183000000000000024,13.074690731970083135
0.184000000000000025,11.562672321666003228
0.185000000000000026,10.079366122351091306
0.186000000000000026,8.623123601072903099
0.187000000000000027,7.192923464680386125
0.188000000000000028,5.788315171231635858
0.189000000000000029,4.409345040782502778
0.190000000000000030,3.056471502716008981
0.191000000000000031,1.730475230684183519
0.192000000000000032,0.432369013597098450
0.193000000000000033,-0.836688729448848312
0.194000000000000034,-2.075473802240994647
0.195000000000000034,-3.282767322316106462
0.196000000000000035,-4.457416688524176607
0.197000000000000036,-5.598385729462728833
0.198000000000000037,-6.704793892407913347
0.199000000000000038,-7.775944778847869721
0.200000000000000039,-8.811344675933133530
0.201000000000000040,-9.810711982044001189
0.202000000000000041,-10.773978590114978715
0.203000000000000042,-11.701284386141882266
0.204000000000000042,-12.592966054365012596
0.205000000000000043,-13.449541366484215388
0.206000000000000044,-14.271690080641514342
0.207000000000000045,-15.060232496475745023
0.208000000000000046,-15.816106613821460769
0.209000000000000047,-16.540344731878548146
0.210000000000000048,-17.234050209013201282
0.211000000000000049,-17.898374985716053231
0.212000000000000050,-18.534498358551466879
0.213000000000000050,-19.143607384143319194
0.214000000000000051,-19.726879191507869393
0.215000000000000052,-20.285465389794527624
0.216000000000000053,-20.820478677575803061
0.217000000000000054,-21.332981689594042507
0.218000000000000055,-21.823978057291409272
0.219000000000000056,-22.294405610183058997
0.220000000000000057,-22.745131605624845150
0.221000000000000058,-23.176949844045907412
0.222000000000000058,-23.590579504447028114
0.223000000000000059,-23.986665520012621755
0.224000000000000060,-24.365780305147687557
0.225000000000000061,-24.728426642230271426
0.226000000000000062,-25.075041537996263230
0.227000000000000063,-25.406000864928337535
0.228000000000000064,-25.721624611541340499
0.229000000000000065,-26.022182576350623151
0.230000000000000066,-26.307900352950213119
0.231000000000000066,-26.578965467468083972
0.232000000000000067,-26.835533544220758984
0.233000000000000068,-27.077734390252800267
0.234000000000000069,-27.305677904269334277
0.235000000000000070,-27.519459729968541950
0.236000000000000071,-27.719166587725283080
0.237000000000000072,-27.904881231790039209
0.238000000000000073,-28.076686992512229324
0.239000000000000073,-28.234671874480625320
0.240000000000000074,-28.378932191836771182
0.241000000000000075,-28.509575731326339820
0.242000000000000076,-28.626724441903679264
0.243000000000000077,-28.730516656910793927
0.244000000000000078,-28.821108861042869620
0.245000000000000079,-28.898677019532811983
0.246000000000000080,-28.963417491290663008
0.247000000000000081,-29.015547551181583685
0.248000000000000081,-29.055305549282543609
0.249000000000000082,-29.082950736894446209
0.250000000000000111,-29.098762790370138021
0.251000000000000112,-29.103041064521711689
0.252000000000000113,-29.096103607560614535
0.253000000000000114,-29.078285969265188271
0.254000000000000115,-29.049939833430237002
0.255000000000000115,-29.011431504686168381
0.256000000000000116,-28.963140278541192885
0.257000000000000117,-28.905456722048267437
0.258000000000000118,-28.838780890876126506
0.259000000000000119,-28.763520506814870714
0.260000000000000120,-28.680089117908881491
0.261000000000000121,-28.588904261516869809
0.262000000000000122,-28.490385648682860165
0.263000000000000123,-28.384953386286849053
0.264000000000000123,-28.273026251554711052
0.265000000000000124,-28.155020031660303204
0.266000000000000125,-28.031345939368037534
0.267000000000000126,-27.902409113950987773
0.268000000000000127,-27.768607214991174459
0.269000000000000128,-27.630329115131964102
0.270000000000000129,-27.487953696412922966
0.271000000000000130,-27.341848753480359591
0.272000000000000131,-27.192370005733369709
0.273000000000000131,-27.039860219336276259
0.274000000000000132,-26.884648439004372733
0.275000000000000133,-26.727049328548552865
0.276000000000000134,-26.567362618342865943
0.277000000000000135,-26.405872657155317285
0.278000000000000136,-26.242848065151314074
0.279000000000000137,-26.078541484336984269
0.280000000000000138,-25.913189422251729610
0.281000000000000139,-25.747012184340682950
0.282000000000000139,-25.580213890132529997
0.283000000000000140,-25.412982568112258974
0.284000000000000141,-25.245490324005039895
0.285000000000000142,-25.077893577072906339
0.286000000000000143,-24.910333358963661965
0.287000000000000144,-24.742935669637017071
0.288000000000000145,-24.575811884922110551
0.289000000000000146,-24.409059210326461198
0.290000000000000147,-24.242761175817662433
0.291000000000000147,-24.076988166427920390
0.292000000000000148,-23.911797983687343105
0.293000000000000149,-23.747236433067698158
0.294000000000000150,-23.583337932813062565
0.295000000000000151,-23.420126139742915683
0.296000000000000152,-23.257614587833302267
0.297000000000000153,-23.095807335612075661
0.298000000000000154,-22.934699618638727969
0.299000000000000155,-22.774278503579829191
0.300000000000000155,-22.614523540632070819
0.301000000000000156,-22.455407411286238073
0.302000000000000157,-22.296896568665165006
0.303000000000000158,-22.138951867905177551
0.304000000000000159,-21.981529184282319278
0.305000000000000160,-21.824580017011037114
0.306000000000000161,-21.668052076862664990
0.307000000000000162,-21.511889855963644891
0.308000000000000163,-21.356035178337272384
0.309000000000000163,-21.200427729948952305
0.310000000000000164,-21.045005567201378938
0.311000000000000165,-20.889705603003285717
0.312000000000000166,-20.734464069703797406
0.313000000000000167,-20.579216958341728372
0.314000000000000168,-20.423900433808274357
0.315000000000000169,-20.268451225659653403
0.316000000000000170,-20.112806994445769249
0.317000000000000171,-19.956906673539940300
0.318000000000000171,-19.800690786565127155
0.319000000000000172,-19.644101740613223228
0.320000000000000173,-19.487084095545849749
0.321000000000000174,-19.329584809748755703
0.322000000000000175,-19.171553462787255029
0.323000000000000176,-19.012942455477379156
0.324000000000000177,-18.853707187947208013
0.325000000000000178,-18.693806216314985846
0.326000000000000179,-18.533201388656795672
0.327000000000000179,-18.371857960974853796
0.328000000000000180,-18.209744693910625557
0.329000000000000181,-18.046833930974521820
0.330000000000000182,-17.883101659084207569
0.331000000000000183,-17.718527552221736698
0.332000000000000184,-17.553094999030065537
0.333000000000000185,-17.386791115177775424
0.334000000000000186,-17.219606741323879362
0.335000000000000187,-17.051536427514193406
0.336000000000000187,-16.882578404837062180
0.337000000000000188,-16.712734545159253940
0.338000000000000189,-16.542010309753187869
0.339000000000000190,-16.370414687614452731
0.340000000000000191,-16.197960124253654612
0.341000000000000192,-16.024662441730942675
0.342000000000000193,-15.850540750681977542
0.343000000000000194,-15.675617355065492475
0.344000000000000195,-15.499917650340250930
0.345000000000000195,-15.323470015757610696
0.346000000000000196,-15.146305701431979074
0.347000000000000197,-14.968458710827524882
0.348000000000000198,-14.789965679274875043
0.349000000000000199,-14.610865749105826694
0.350000000000000200,-14.431200441969050274
0.351000000000000201,-14.251013528863490265
0.352000000000000202,-14.070350898400556972
0.353000000000000203,-13.889260423780461551
0.354000000000000203,-13.707791828941799039
0.355000000000000204,-13.525996554318505005
0.356000000000000205,-13.343927622612872241
0.357000000000000206,-13.161639504968320580
0.358000000000000207,-12.979187987901321222
0.359000000000000208,-12.796630041327869520
0.360000000000000209,-12.614023687996587242
0.361000000000000210,-12.431427874617465790
0.362000000000000210,-12.248902344953320309
0.363000000000000211,-12.066507515119228700
0.364000000000000212,-11.884304351314614934
0.365000000000000213,-11.702354250192156471
0.366000000000000214,-11.520718922048436283
0.367000000000000215,-11.339460277002514133
0.368000000000000216,-11.158640314310559916
0.369000000000000217,-10.978321014947411527
0.370000000000000218,-10.798564237569557633
0.371000000000000218,-10.619431617958230873
0.372000000000000219,-10.440984472026219265
0.373000000000000220,-10.263283702457957958
0.374000000000000221,-10.086389709038742879
0.375000000000000222,-9.910362302716235305
0.376000000000000223,-9.735260623425219251
0.377000000000000224,-9.561143061695313250
0.378000000000000225,-9.388067184050536085
0.379000000000000226,-9.216089662199548727
0.380000000000000226,-9.045266206006196796
0.381000000000000227,-8.875651500220866907
0.382000000000000228,-8.707299144945343627
0.383000000000000229,-8.540261599796208358
0.384000000000000230,-8.374590131724566788
0.385000000000000231,-8.210334766443953214
0.386000000000000232,-8.047544243411905995
0.387000000000000233,-7.886265974305540105
0.388000000000000234,-7.726546004926484912
0.389000000000000234,-7.568428980466268108
0.390000000000000235,-7.411958114058906588
0.391000000000000236,-7.257175158544413307
0.392000000000000237,-7.104120381363327574
0.393000000000000238,-6.952832542499978175
0.394000000000000239,-6.803348875389589878
0.395000000000000240,-6.655705070702515158
0.396000000000000241,-6.509935262917042387
0.397000000000000242,-6.366072019590903075
0.398000000000000242,-6.224146333240651252
0.399000000000000243,-6.084187615737161714
0.400000000000000244,-5.946223695124805531
0.401000000000000245,-5.810280814772188940
0.402000000000000246,-5.676383634761573482
0.403000000000000247,-5.544555235424580175
0.404000000000000248,-5.414817122932356952
0.405000000000000249,-5.287189236848525375
0.406000000000000250,-5.161689959554272455
0.407000000000000250,-5.038336127455656843
0.408000000000000251,-4.917143043884290243
0.409000000000000252,-4.798124493603822316
0.410000000000000253,-4.681292758835647660
0.411000000000000254,-4.566658636719092890
0.412000000000000255,-4.454231458122370313
0.413000000000000256,-4.344019107722592921
0.414000000000000257,-4.236028045274460752
0.415000000000000258,-4.130263327989256439
0.416000000000000258,-4.026728633947410430
0.417000000000000259,-3.925426286469827719
0.418000000000000260,-3.826357279375094400
0.419000000000000261,-3.729521303051503089
0.420000000000000262,-3.634916771275038538
0.421000000000000263,-3.542540848706247747
0.422000000000000264,-3.452389479001063854
0.423000000000000265,-3.364457413472590197
0.424000000000000266,-3.278738240243162405
0.425000000000000266,-3.195224413827605581
0.426000000000000267,-3.113907285091095822
0.427000000000000268,-3.034777131526820160
0.428000000000000269,-2.957823187800748599
0.429000000000000270,-2.883033676512835264
0.430000000000000271,-2.810395839126001327
0.431000000000000272,-2.739895967016159783
0.432000000000000273,-2.671519432598622235
0.433000000000000274,-2.605250720488061056
0.434000000000000274,-2.541073458651141870
0.435000000000000275,-2.478970449512851282
0.436000000000000276,-2.418923700979382474
0.437000000000000277,-2.360914457342164763
0.438000000000000278,-2.304923230029571002
0.439000000000000279,-2.250929828174444758
0.440000000000000280,-2.198913388967315807
0.441000000000000281,-2.148852407766867589
0.442000000000000282,-2.100724767940889581
0.443000000000000282,-2.054507770412355327
0.444000000000000283,-2.010178162887068076
0.445000000000000284,-1.967712168740622714
0.446000000000000285,-1.927085515543862870
0.447000000000000286,-1.888273463207735814
0.448000000000000287,-1.851250831729374324
0.449000000000000288,-1.815992028522960933
0.450000000000000289,-1.782471075320004372
0.451000000000000290,-1.750661634624953056
0.452000000000000290,-1.720537035713306961
0.453000000000000291,-1.692070300160535279
0.454000000000000292,-1.665234166891234491
0.455000000000000293,-1.640001116739016052
0.456000000000000294,-1.616343396508729269
0.457000000000000295,-1.594233042533497624
0.458000000000000296,-1.573641903720206736
0.459000000000000297,-1.554541664077755181
0.460000000000000298,-1.536903864723537128
0.461000000000000298,-1.520699925364182858
0.462000000000000299,-1.505901165247724993
0.463000000000000300,-1.492478823584793890
0.464000000000000301,-1.480404079437452225
0.465000000000000302,-1.469648071074840745
0.466000000000000303,-1.460181914795556590
0.467000000000000304,-1.451976723217182963
0.468000000000000305,-1.445003623034269324
0.469000000000000306,-1.439233772246311993
0.470000000000000306,-1.434638376858061282
0.471000000000000307,-1.431188707054900089
0.472000000000000308,-1.428856112856574434
0.473000000000000309,-1.427612039252928122
0.474000000000000310,-1.427428040825808875
0.475000000000000311,-1.428275795861738473
0.476000000000000312,-1.430127119960186821
0.477000000000000313,-1.432953979142776113
0.478000000000000314,-1.436728502469016844
0.479000000000000314,-1.441422994164504034
0.480000000000000315,-1.447009945267729858
0.481000000000000316,-1.453462044802036113
0.482000000000000317,-1.460752190479367219
0.483000000000000318,-1.468853498942774172
0.484000000000000319,-1.477739315554784438
0.485000000000000320,-1.487383223738997229
0.486000000000000321,-1.497759053882337765
0.487000000000000322,-1.508840891805621309
0.488000000000000322,-1.520603086810237148
0.489000000000000323,-1.533020259308752964
0.490000000000000324,-1.546067308047522904
0.491000000000000325,-1.559719416929317592
0.492000000000000326,-1.573952061444143125
0.493000000000000327,-1.588741014716462230
0.494000000000000328,-1.604062353177098998
0.495000000000000329,-1.619892461868096323
0.496000000000000330,-1.636208039388885371
0.497000000000000330,-1.652986102492066678
0.498000000000000331,-1.670203990337235878
0.499000000000000332,-1.687839368411036434
0.500000000000000333,-1.705870232121956320
0.501000000000000334,-1.724274910078044343
0.502000000000000335,-1.743032067055851453
0.503000000000000336,-1.762120706668847792
0.504000000000000337,-1.781520173743489810
0.505000000000000338,-1.801210156411073626
0.506000000000000338,-1.821170687923443499
0.507000000000000339,-1.841382148200586544
0.508000000000000340,-1.861825265118040473
0.509000000000000341,-1.882481115541937200
0.510000000000000342,-1.903331126119540695
0.511000000000000343,-1.924357073832896337
0.512000000000000344,-1.945541086323257840
0.513000000000000345,-1.966865641993723823
0.514000000000000346,-1.988313569897593114
0.515000000000000346,-2.009868049419652358
0.516000000000000347,-2.031512609757660570
0.517000000000000348,-2.053231129211109174
0.518000000000000349,-2.075007834284251729
0.519000000000000350,-2.096827298610232759
0.520000000000000351,-2.118674441703203737
0.521000000000000352,-2.140534527544892818
0.522000000000000353,-2.162393163012309216
0.523000000000000353,-2.184236296152930024
0.524000000000000354,-2.206050214313638236
0.525000000000000355,-2.227821542129659438
0.526000000000000356,-2.249537239379444387
0.527000000000000357,-2.271184598711504243
0.528000000000000358,-2.292751243249022686
0.529000000000000359,-2.314225124077776918
0.530000000000000360,-2.335594517623140742
0.531000000000000361,-2.356848022921434360
0.532000000000000361,-2.377974558791041026
0.533000000000000362,-2.398963360908403786
0.534000000000000363,-2.419803978794055954
0.535000000000000364,-2.440486272713564109
0.536000000000000365,-2.461000410498251689
0.537000000000000366,-2.481336864290399014
0.538000000000000367,-2.501486407217519581
0.539000000000000368,-2.521440110000166435
0.540000000000000369,-2.541189337497659739
0.541000000000000369,-2.560725745195910008
0.542000000000000370,-2.580041275641552723
0.543000000000000371,-2.599128154826301440
0.544000000000000372,-2.617978888525521519
0.545000000000000373,-2.636586258594701526
0.546000000000000374,-2.654943319227609511
0.547000000000000375,-2.673043393179608707
0.548000000000000376,-2.690880067959665389
0.549000000000000377,-2.708447191994347136
0.550000000000000377,-2.725738870767106192
0.551000000000000378,-2.742749462935988980
0.552000000000000379,-2.759473576432783126
0.553000000000000380,-2.775906064546613816
0.554000000000000381,-2.792042021994798784
0.555000000000000382,-2.807876780983729059
0.556000000000000383,-2.823405907262437786
0.557000000000000384,-2.838625196171422616
0.558000000000000385,-2.853530668689225447
0.559000000000000385,-2.868118567479129855
0.560000000000000386,-2.882385352938272582
0.561000000000000387,-2.896327699251426857
0.562000000000000388,-2.909942490451563391
0.563000000000000389,-2.923226816489237656
0.564000000000000390,-2.936177969312768532
0.565000000000000391,-2.948793438961138769
0.566000000000000392,-2.961070909671392748
0.567000000000000393,-2.973008256002271921
0.568000000000000393,-2.984603538975771908
0.569000000000000394,-2.995855002238223541
0.570000000000000395,-3.006761068242385981
0.571000000000000396,-3.017320334452028074
0.572000000000000397,-3.027531569570405701
0.573000000000000398,-3.037393709793911434
0.574000000000000399,-3.046905855092188364
0.575000000000000400,-3.056067265515915565
0.576000000000000401,-3.064877357533354107
0.577000000000000401,-3.073335700396778059
0.578000000000000402,-3.081442012539790110
0.579000000000000403,-3.089196158006489945
0.580000000000000404,-3.096598142913390639
0.581000000000000405,-3.103648111944974364
0.582000000000000406,-3.110346344883645919
0.583000000000000407,-3.116693253174886991
0.584000000000000408,-3.122689376528287930
0.585000000000000409,-3.128335379555108098
0.586000000000000409,-3.133632048443024676
0.587000000000000410,-3.138580287668593538
0.588000000000000411,-3.143181116747960857
0.589000000000000412,-3.147435667026329043
0.590000000000000413,-3.151345178506603339
0.591000000000000414,-3.154910996717616989
0.592000000000000415,-3.158134569622338184
0.593000000000000416,-3.161017444566335488
0.594000000000000417,-3.163561265266864986
0.595000000000000417,-3.165767768842759899
0.596000000000000418,-3.167638782885430437
0.597000000000000419,-3.169176222571115087
0.598000000000000420,-3.170382087814561878
0.599000000000000421,-3.171258460464293272
0.600000000000000422,-3.171807501539538166
0.601000000000000423,-3.172031448508909612
0.602000000000000424,-3.171932612610901536
0.603000000000000425,-3.171513376216228419
0.604000000000000425,-3.170776190231962666
0.605000000000000426,-3.169723571547514940
0.606000000000000427,-3.168358100522379317
0.607000000000000428,-3.166682418515552211
0.608000000000000429,-3.164699225456595766
0.609000000000000430,-3.162411277458173409
