# Cu001_ADENINE
# h[nm],U(h)[kJ/mol]
0.200000000000000011,117.132656466524309735
0.201000000000000012,112.825565201870830379
0.202000000000000013,109.206517754371503770
0.203000000000000014,105.994934733796554838
0.204000000000000015,103.005511241762818031
0.205000000000000016,100.121694544549697525
0.206000000000000016,97.275322180352446821
0.207000000000000017,94.431234964001859566
0.208000000000000018,91.575855711139539039
0.209000000000000019,88.708887537604340423
0.210000000000000020,85.837431991158425149
0.211000000000000021,82.971955809907768753
0.212000000000000022,80.123645895193845945
0.213000000000000023,77.302786093890986763
0.214000000000000024,74.517868039873761177
0.215000000000000024,71.775213269313212550
0.216000000000000025,69.078936824374864045
0.217000000000000026,66.431125275579688605
0.218000000000000027,63.832136096118290425
0.219000000000000028,61.280952038648862867
0.220000000000000029,58.775544863102140880
0.221000000000000030,56.313218546783353702
0.222000000000000031,53.890913923321548396
0.223000000000000032,51.505465347523298192
0.224000000000000032,49.153806140693333759
0.225000000000000033,46.833123791288784332
0.226000000000000034,44.540968623718825370
0.227000000000000035,42.275321271889353625
0.228000000000000036,40.034625098446966263
0.229000000000000037,37.817789918763857315
0.230000000000000038,35.624173202618649725
0.231000000000000039,33.453544476434778687
0.232000000000000040,31.306038040950578960
0.233000000000000040,29.182098432023373391
0.234000000000000041,27.082422342839343798
0.235000000000000042,25.007900033911912629
0.236000000000000043,22.959558609411857333
0.237000000000000044,20.938508950954577870
0.238000000000000045,18.945897581710660518
0.239000000000000046,16.982864287782895474
0.240000000000000047,15.050505949370085901
0.241000000000000048,13.149846727792169787
0.242000000000000048,11.281814510672576901
0.243000000000000049,9.447223330151988563
0.244000000000000050,7.646761331171072484
0.245000000000000051,5.880983771737805732
0.246000000000000052,4.150310478073935272
0.247000000000000053,2.455027148357824096
0.248000000000000054,0.795289893743635901
0.249000000000000055,-0.828867580697381312
0.250000000000000056,-2.417524724020653881
0.251000000000000056,-3.970863346334380761
0.252000000000000057,-5.489155768270255642
0.253000000000000058,-6.972752345991648504
0.254000000000000059,-8.422068751931785613
0.255000000000000060,-9.837573338364981268
0.256000000000000061,-11.219774858995981148
0.257000000000000062,-12.569210774110370465
0.258000000000000063,-13.886436318277350921
0.259000000000000064,-15.172014466695355139
0.260000000000000064,-16.426506897372785687
0.261000000000000065,-17.650466011616963158
0.262000000000000066,-18.844428044811230905
0.263000000000000067,-20.008907273114523662
0.264000000000000068,-21.144391299373531012
0.265000000000000069,-22.251337382977101953
0.266000000000000070,-23.330169763341430667
0.267000000000000071,-24.381277914912349303
0.268000000000000071,-25.405015662694186318
0.269000000000000072,-26.401701081059435694
0.270000000000000073,-27.371617094647547219
0.271000000000000074,-28.315012698226347254
0.272000000000000075,-29.232104712180007056
0.273000000000000076,-30.123079991531533040
0.274000000000000077,-30.988098008858411703
0.275000000000000078,-31.827293734884143817
0.276000000000000079,-32.640780744719236850
0.277000000000000079,-33.428654482497698552
0.278000000000000080,-34.190995622336792792
0.279000000000000081,-34.927873469002911122
0.280000000000000082,-35.639349347258061584
0.281000000000000083,-36.325479934491042400
0.282000000000000084,-36.986320496806051494
0.283000000000000085,-37.621927994177738697
0.284000000000000086,-38.232364025525512830
0.285000000000000087,-38.817697589554860826
0.286000000000000087,-39.378007641931667138
0.287000000000000088,-39.913385433763338028
0.288000000000000089,-40.423936620438645662
0.289000000000000090,-40.909783133622184437
0.290000000000000091,-41.371064812595285787
0.291000000000000092,-41.807940794192752776
0.292000000000000093,-42.220590663303617873
0.293000000000000094,-42.609215368296865734
0.294000000000000095,-42.974037907809631065
0.295000000000000095,-43.315303797114509621
0.296000000000000096,-43.633281323775435112
0.297000000000000097,-43.928261603531481683
0.298000000000000098,-44.200558448329203998
0.299000000000000099,-44.450508059179725251
0.300000000000000100,-44.678468557062338107
0.301000000000000101,-44.884819365454504236
0.302000000000000102,-45.069960458254811897
0.303000000000000103,-45.234311486901560784
0.304000000000000103,-45.378310800389968449
0.305000000000000104,-45.502414371674120730
0.306000000000000105,-45.607094643622872354
0.307000000000000106,-45.692839307291443163
0.308000000000000107,-45.760150024794299384
0.309000000000000108,-45.809541108525081654
0.310000000000000109,-45.841538167884181121
0.311000000000000110,-45.856676734049109712
0.312000000000000111,-45.855500872673282231
0.313000000000000111,-45.838561793727315319
0.314000000000000112,-45.806416467017683658
0.315000000000000113,-45.759626251232560890
0.316000000000000114,-45.698755543684484337
0.317000000000000115,-45.624370457245809973
0.318000000000000116,-45.537037530313327238
0.319000000000000117,-45.437322474995532673
0.320000000000000118,-45.325788968093533526
0.321000000000000119,-45.202997488847728391
0.322000000000000119,-45.069504206848534977
0.323000000000000120,-44.925859922963553572
0.324000000000000121,-44.772609065616265411
0.325000000000000122,-44.610288744263527860
0.326000000000000123,-44.439427861461759051
0.327000000000000124,-44.260546284485059232
0.328000000000000125,-44.074154077062523527
0.329000000000000126,-43.880750791436007319
0.330000000000000127,-43.680824820603575631
0.331000000000000127,-43.474852810308028950
0.332000000000000128,-43.263299130051095176
0.333000000000000129,-43.046615402164015052
0.334000000000000130,-42.825240087740624517
0.335000000000000131,-42.599598128042110545
0.336000000000000132,-42.370100639806700826
0.337000000000000133,-42.137144662747985535
0.338000000000000134,-41.901112957396165370
0.339000000000000135,-41.662373851327338059
0.340000000000000135,-41.421281131737757164
0.341000000000000136,-41.178173982248068796
0.342000000000000137,-40.933376961768246360
0.343000000000000138,-40.687200023215929434
0.344000000000000139,-40.439938569854589900
0.345000000000000140,-40.191873547009180356
0.346000000000000141,-39.943271566914987147
0.347000000000000142,-39.694385064468825419
0.348000000000000143,-39.445452481672560907
0.349000000000000143,-39.196698478589084402
0.350000000000000144,-38.948334168669532573
0.351000000000000145,-38.700557376355398276
0.352000000000000146,-38.453552914910765992
0.353000000000000147,-38.207492882496296716
0.354000000000000148,-37.962536974558233283
0.355000000000000149,-37.718832810669979949
0.356000000000000150,-37.476516274032896092
0.357000000000000151,-37.235711861913202370
0.358000000000000151,-36.996533045364486725
0.359000000000000152,-36.759082636660103560
0.360000000000000153,-36.523453162934345073
0.361000000000000154,-36.289727244607476564
0.362000000000000155,-36.057977977245215584
0.363000000000000156,-35.828269315579085230
0.364000000000000157,-35.600656458488870726
0.365000000000000158,-35.375186233823214366
0.366000000000000159,-35.151897482006667417
0.367000000000000159,-34.930821437453822398
0.368000000000000160,-34.711982106881400512
0.369000000000000161,-34.495396643677089799
0.370000000000000162,-34.281075717551019011
0.371000000000000163,-34.069023878760468449
0.372000000000000164,-33.859239916259923575
0.373000000000000165,-33.651717209190294966
0.374000000000000166,-33.446444071177808155
0.375000000000000167,-33.243404086969427169
0.376000000000000167,-33.042576440984944952
0.377000000000000168,-32.843936237416571089
0.378000000000000169,-32.647454811555419951
0.379000000000000170,-32.453100032070892667
0.380000000000000171,-32.260836594011848888
0.381000000000000172,-32.070626302341011638
0.382000000000000173,-31.882428345851753448
0.383000000000000174,-31.696199561354877261
0.384000000000000175,-31.511894688055953395
0.385000000000000175,-31.329466612077123244
0.386000000000000176,-31.148866601107567220
0.387000000000000177,-30.970044529193863525
0.388000000000000178,-30.792949091709385101
0.389000000000000179,-30.617528010564161178
0.390000000000000180,-30.443728229740361968
0.391000000000000181,-30.271496101258264844
0.392000000000000182,-30.100777561696464346
0.393000000000000183,-29.931518299407137818
0.394000000000000183,-29.763663912582718041
0.395000000000000184,-29.597160058343877864
0.396000000000000185,-29.431952593031638798
0.397000000000000186,-29.267987703896956475
0.398000000000000187,-29.105212032391271748
0.399000000000000188,-28.943572789269722989
0.400000000000000189,-28.783017861725902264
0.401000000000000190,-28.623495912783635475
0.402000000000000191,-28.464956473175810459
0.403000000000000191,-28.307350025944799654
0.404000000000000192,-28.150628084001898088
0.405000000000000193,-27.994743260885805114
0.406000000000000194,-27.839649334961308114
0.407000000000000195,-27.685301307300584028
0.408000000000000196,-27.531655453488951935
0.409000000000000197,-27.378669369596686067
0.410000000000000198,-27.226302012557493271
0.411000000000000199,-27.074513735191811037
0.412000000000000199,-26.923266316111437391
0.413000000000000200,-26.772522984739111962
0.414000000000000201,-26.622248441673441732
0.415000000000000202,-26.472408874625891428
0.416000000000000203,-26.322971970153240306
0.417000000000000204,-26.173906921403983006
0.418000000000000205,-26.025184432093368514
0.419000000000000206,-25.876776716916708665
0.420000000000000207,-25.728657498605731035
0.421000000000000207,-25.580802001827976255
0.422000000000000208,-25.433186944123434614
0.423000000000000209,-25.285790524067984109
0.424000000000000210,-25.138592406847099170
0.425000000000000211,-24.991573707418076822
0.426000000000000212,-24.844716971433552288
0.427000000000000213,-24.698006154092919218
0.428000000000000214,-24.551426597083271020
0.429000000000000214,-24.404965003765262566
0.430000000000000215,-24.258609412753802559
0.431000000000000216,-24.112349170038154256
0.432000000000000217,-23.966174899779723262
0.433000000000000218,-23.820078473920922590
0.434000000000000219,-23.674052980732653850
0.435000000000000220,-23.528092692422568177
0.436000000000000221,-23.382193031920923687
0.437000000000000222,-23.236350538955480971
0.438000000000000222,-23.090562835521904361
0.439000000000000223,-22.944828590850935512
0.440000000000000224,-22.799147485968383364
0.441000000000000225,-22.653520177939487468
0.442000000000000226,-22.507948263884401285
0.443000000000000227,-22.362434244846351561
0.444000000000000228,-22.216981489590381216
0.445000000000000229,-22.071594198405414033
0.446000000000000230,-21.926277366978371930
0.447000000000000230,-21.781036750405160518
0.448000000000000231,-21.635878827398876467
0.449000000000000232,-21.490810764751863360
0.450000000000000233,-21.345840382104690036
0.451000000000000234,-21.200976117071032689
0.452000000000000235,-21.056226990764340457
0.453000000000000236,-20.911602573768359292
0.454000000000000237,-20.767112952590881747
0.455000000000000238,-20.622768696636182284
0.456000000000000238,-20.478580825729352455
0.457000000000000239,-20.334560778222197541
0.458000000000000240,-20.190720379708164245
0.459000000000000241,-20.047071812370386823
0.460000000000000242,-19.903627584985287058
0.461000000000000243,-19.760400503600745736
0.462000000000000244,-19.617403642906559469
0.463000000000000245,-19.474650318311532260
0.464000000000000246,-19.332154058740687930
0.465000000000000246,-19.189928580162977312
0.466000000000000247,-19.047987759858749257
0.467000000000000248,-18.906345611433785336
0.468000000000000249,-18.765016260585767327
0.469000000000000250,-18.624013921626584533
0.470000000000000251,-18.483352874762996265
0.471000000000000252,-18.343047444136267643
0.472000000000000253,-18.203111976620682810
0.473000000000000254,-18.063560821378565890
0.474000000000000254,-17.924408310169337000
0.475000000000000255,-17.785668738408226375
0.476000000000000256,-17.647356346969441887
0.477000000000000257,-17.509485304728052313
0.478000000000000258,-17.372069691832962235
0.479000000000000259,-17.235123483703723934
0.480000000000000260,-17.098660535742119748
0.481000000000000261,-16.962694568749263624
0.482000000000000262,-16.827239155038324014
0.483000000000000262,-16.692307705232202863
0.484000000000000263,-16.557913455734812658
0.485000000000000264,-16.424069456864607730
0.486000000000000265,-16.290788561638070320
0.487000000000000266,-16.158083415190624521
0.488000000000000267,-16.025966444822202561
0.489000000000000268,-15.894449850654307710
0.490000000000000269,-15.763545596884927846
0.491000000000000270,-15.633265403627930823
0.492000000000000270,-15.503620739322661493
0.493000000000000271,-15.374622813700057122
0.494000000000000272,-15.246282571290871388
0.495000000000000273,-15.118610685461700172
0.496000000000000274,-14.991617552964722648
0.497000000000000275,-14.865313288986300222
0.498000000000000276,-14.739707722680467583
0.499000000000000277,-14.614810393172593450
0.500000000000000222,-14.490630546018923752
0.501000000000000334,-14.367177130107631200
0.502000000000000224,-14.244458794987229666
0.503000000000000336,-14.122483888607822777
0.504000000000000226,-14.001260455461657983
0.505000000000000338,-13.880796235108311620
0.506000000000000227,-13.761098661071494931
0.507000000000000339,-13.642174860092968203
0.508000000000000229,-13.524031651730837211
0.509000000000000341,-13.406675548288115252
0.510000000000000231,-13.290112755059279692
0.511000000000000343,-13.174349170880919502
0.512000000000000233,-13.059390388974566832
0.513000000000000345,-12.945241698068405967
0.514000000000000234,-12.831908083786430552
0.515000000000000346,-12.719394230291840131
0.516000000000000236,-12.607704522173992956
0.517000000000000348,-12.496843046566208812
0.518000000000000238,-12.386813595483946671
0.519000000000000350,-12.277619668371443140
0.520000000000000240,-12.169264474846521296
0.521000000000000352,-12.061750937632499614
0.522000000000000242,-11.955081695667114872
0.523000000000000353,-11.849259107378008693
0.524000000000000243,-11.744285254115222727
0.525000000000000355,-11.640161943730699790
0.526000000000000245,-11.536890714295902072
0.527000000000000357,-11.434472837947740942
0.528000000000000247,-11.332909324854771427
0.529000000000000359,-11.232200927294226034
0.530000000000000249,-11.132348143832178522
0.531000000000000361,-11.033351223598220514
0.532000000000000250,-10.935210170647282624
0.533000000000000362,-10.837924748400373787
0.534000000000000252,-10.741494484157515288
0.535000000000000364,-10.645918673675137001
0.536000000000000254,-10.551196385801642208
0.537000000000000366,-10.457326467163726491
0.538000000000000256,-10.364307546897942203
0.539000000000000368,-10.272138041420328491
0.540000000000000258,-10.180816159229106432
0.541000000000000369,-10.090339905733712200
0.542000000000000259,-10.000707088105585285
0.543000000000000371,-9.911915320144540686
0.544000000000000261,-9.823962027156277088
0.545000000000000373,-9.736844450835651088
0.546000000000000263,-9.650559654151424027
0.547000000000000375,-9.565104526227418802
0.548000000000000265,-9.480475787216576578
0.549000000000000377,-9.396669993162872103
0.550000000000000266,-9.313683540848000320
0.551000000000000378,-9.231512672618425341
0.552000000000000268,-9.150153481189686744
0.553000000000000380,-9.069601914424207934
0.554000000000000270,-8.989853780079700485
0.555000000000000382,-8.910904750524714757
0.556000000000000272,-8.832750367418906734
0.557000000000000384,-8.755386046354662000
0.558000000000000274,-8.678807081458209893
0.559000000000000385,-8.603008649946955799
0.560000000000000275,-8.527985816641530548
0.561000000000000387,-8.453733538429711203
0.562000000000000277,-8.380246668680612743
0.563000000000000389,-8.307519961607006564
0.564000000000000279,-8.235548076574174203
0.565000000000000391,-8.164325582353441746
0.566000000000000281,-8.093846961319027145
0.567000000000000393,-8.024106613586631909
0.568000000000000282,-7.955098861092716689
0.569000000000000394,-7.886817951612816735
0.570000000000000284,-7.819258062718384750
0.571000000000000396,-7.752413305670577515
0.572000000000000286,-7.686277729250631907
0.573000000000000398,-7.620845323525481163
0.574000000000000288,-7.556110023548390231
0.575000000000000400,-7.492065712993664306
0.576000000000000290,-7.428706227725031752
0.577000000000000401,-7.366025359297132979
0.578000000000000291,-7.304016858389881683
0.579000000000000403,-7.242674438175174423
0.580000000000000293,-7.181991777615976957
0.581000000000000405,-7.121962524697275754
0.582000000000000295,-7.062580299589195754
0.583000000000000407,-7.003838697741801234
0.584000000000000297,-6.945731292911983878
0.585000000000000409,-6.888251640122203590
0.586000000000000298,-6.831393278551506576
0.587000000000000410,-6.775149734358619114
0.588000000000000300,-6.719514523437827513
0.589000000000000412,-6.664481154107377847
0.590000000000000302,-6.610043129731229428
0.591000000000000414,-6.556193951274150500
0.592000000000000304,-6.502927119790783195
0.593000000000000416,-6.450236138848947753
0.594000000000000306,-6.398114516887860148
0.595000000000000417,-6.346555769511597944
0.596000000000000307,-6.295553421718453890
0.597000000000000419,-6.245101010066705705
0.598000000000000309,-6.195192084777515262
0.599000000000000421,-6.145820211775367525
0.600000000000000311,-6.096978974666994233
0.601000000000000423,-6.048661976659138517
0.602000000000000313,-6.000862842416253784
0.603000000000000425,-5.953575219858334933
0.604000000000000314,-5.906792781900286116
0.605000000000000426,-5.860509228132850801
0.606000000000000316,-5.814718286446579398
0.607000000000000428,-5.769413714598978338
0.608000000000000318,-5.724589301726254575
0.609000000000000430,-5.680238869799886459
0.610000000000000320,-5.636356275029369201
0.611000000000000432,-5.592935409211503561
0.612000000000000322,-5.549970201027484507
0.613000000000000433,-5.507454617288287224
0.614000000000000323,-5.465382664129477597
0.615000000000000435,-5.423748388156118594
0.616000000000000325,-5.382545877538762902
0.617000000000000437,-5.341769263061317830
0.618000000000000327,-5.301412719121735506
0.619000000000000439,-5.261470464686274440
0.620000000000000329,-5.221936764198394698
0.621000000000000441,-5.182805928442960841
0.622000000000000330,-5.144072315366812198
0.623000000000000442,-5.105730330856383503
0.624000000000000332,-5.067774429473468345
0.625000000000000444,-5.030199115149758704
0.626000000000000334,-4.992998941841257476
0.627000000000000446,-4.956168514143227455
0.628000000000000336,-4.919702487866687513
0.629000000000000448,-4.883595570577180744
0.630000000000000338,-4.847842522096845741
0.631000000000000449,-4.812438154970362092
0.632000000000000339,-4.777377334895939853
0.633000000000000451,-4.742654981121853908
0.634000000000000341,-4.708266066809634331
0.635000000000000453,-4.674205619364525610
0.636000000000000343,-4.640468720734116204
0.637000000000000455,-4.607050507675955586
0.638000000000000345,-4.573946171994927923
0.639000000000000457,-4.541150960751085819
0.640000000000000346,-4.508660176438934464
0.641000000000000458,-4.476469177138676869
0.642000000000000348,-4.444573376640420292
0.643000000000000460,-4.412968244541847440
0.644000000000000350,-4.381649306320390735
0.645000000000000462,-4.350612143380319097
0.646000000000000352,-4.319852393075744423
0.647000000000000464,-4.289365748710007864
0.648000000000000353,-4.259147959512445958
0.649000000000000465,-4.229194830592821752
0.650000000000000355,-4.199502222874593294
0.651000000000000467,-4.170066053007205120
0.652000000000000357,-4.140882293258460578
0.653000000000000469,-4.111946971387326677
0.654000000000000359,-4.083256170498072990
0.655000000000000471,-4.054806028876091872
0.656000000000000361,-4.026592739806320154
