# Cu001_ATRAZINE-AC
# h[nm],U(h)[kJ/mol]
0.200000000000000011,124.390166425315982224
0.201000000000000012,119.935465149906534066
0.202000000000000013,116.271930381118494324
0.203000000000000014,113.075987916787681797
0.204000000000000015,110.133703290191988344
0.205000000000000016,107.310453999144300496
0.206000000000000016,104.527570805127808740
0.207000000000000017,101.744628709129827371
0.208000000000000018,98.946258438187925321
0.209000000000000019,96.132527144562374133
0.210000000000000020,93.312098130127822060
0.211000000000000021,90.497521851777804613
0.212000000000000022,87.702133971511642585
0.213000000000000023,84.938141557402062176
0.214000000000000024,82.215567100219232088
0.215000000000000024,79.541793482592112241
0.216000000000000025,76.921513236954211834
0.217000000000000026,74.356934154564953587
0.218000000000000027,71.848132264273132819
0.219000000000000028,69.393473947780520916
0.220000000000000029,66.990052894351677537
0.221000000000000030,64.634105947086979427
0.222000000000000031,62.321385712311347049
0.223000000000000032,60.047477993365205862
0.224000000000000032,57.808059426794230262
0.225000000000000033,55.599095771502483387
0.226000000000000034,53.416984646785429902
0.227000000000000035,51.258648553639659440
0.228000000000000036,49.121585083373418001
0.229000000000000037,47.003881587064505254
0.230000000000000038,44.904201459831405430
0.231000000000000039,42.821748748608229107
0.232000000000000040,40.756217145706123972
0.233000000000000040,38.707728676070708218
0.234000000000000041,36.676766591891485803
0.235000000000000042,34.664106202344150631
0.236000000000000043,32.670746621531918663
0.237000000000000044,30.697845735030966807
0.238000000000000045,28.746660076711116005
0.239000000000000046,26.818490777922157520
0.240000000000000047,24.914636301089814197
0.241000000000000048,23.036352296312632149
0.242000000000000048,21.184818617498471838
0.243000000000000049,19.361113297396279620
0.244000000000000050,17.566193101342420846
0.245000000000000051,15.800880150176954686
0.246000000000000052,14.065854016290563422
0.247000000000000053,12.361648646148427844
0.248000000000000054,10.688653441463149107
0.249000000000000055,9.047117833600943015
0.250000000000000056,7.437158706602541081
0.251000000000000056,5.858770058832798000
0.252000000000000057,4.311834337828228669
0.253000000000000058,2.796134934081130563
0.254000000000000059,1.311369374521645925
0.255000000000000060,-0.142837186908166019
0.256000000000000061,-1.566918527757118929
0.257000000000000062,-2.961354255972064475
0.258000000000000063,-4.326657288353424669
0.259000000000000064,-5.663362098943703238
0.260000000000000064,-6.972013882917603489
0.261000000000000065,-8.253158740980854446
0.262000000000000066,-9.507334953129348065
0.263000000000000067,-10.735065378872693742
0.264000000000000068,-11.936850993598048021
0.265000000000000069,-13.113165547464456395
0.266000000000000070,-14.264451313834237922
0.267000000000000071,-15.391115878498757397
0.268000000000000071,-16.493529908529527717
0.269000000000000072,-17.572025830172059102
0.270000000000000073,-18.626897338475096433
0.271000000000000074,-19.658399656995705129
0.272000000000000075,-20.666750463635828794
0.273000000000000076,-21.652131398153361630
0.274000000000000077,-22.614690067878051138
0.275000000000000078,-23.554542470394544296
0.276000000000000079,-24.471775755195345425
0.277000000000000079,-25.366451250349875579
0.278000000000000080,-26.238607684882815363
0.279000000000000081,-27.088264542647454647
0.280000000000000082,-27.915425488860456937
0.281000000000000083,-28.720081816012186238
0.282000000000000084,-29.502215861465401758
0.283000000000000085,-30.261804354615840396
0.284000000000000086,-30.998821656932971536
0.285000000000000087,-31.713242863460873622
0.286000000000000087,-32.405046739393135624
0.287000000000000088,-33.074218470098827538
0.288000000000000089,-33.720752207440476411
0.289000000000000090,-34.344653399372141678
0.290000000000000091,-34.945940893619209078
0.291000000000000092,-35.524648809721803389
0.292000000000000093,-36.080828176863825263
0.293000000000000094,-36.614548337719909910
0.294000000000000095,-37.125898121037195665
0.295000000000000095,-37.614986787843250227
0.296000000000000096,-38.081944758044770083
0.297000000000000097,-38.526924125775266816
0.298000000000000098,-38.950098973175670380
0.299000000000000099,-39.351665493372443905
0.300000000000000100,-39.731841934267954741
0.301000000000000101,-40.090868375399693946
0.302000000000000102,-40.429006350574013595
0.303000000000000103,-40.746538329259053057
0.304000000000000103,-41.043767069842203910
0.305000000000000104,-41.321014857843820778
0.306000000000000105,-41.578622642043001179
0.307000000000000106,-41.816949081229225271
0.308000000000000107,-42.036369513962988265
0.309000000000000108,-42.237274863318994278
0.310000000000000109,-42.420070488114376417
0.311000000000000110,-42.585174991597575911
0.312000000000000111,-42.733018998010592782
0.313000000000000111,-42.864043906836847952
0.314000000000000112,-42.978700633929697972
0.315000000000000113,-43.077448348080622509
0.316000000000000114,-43.160753210945912883
0.317000000000000115,-43.229087127607513708
0.318000000000000116,-43.282926514406675267
0.319000000000000117,-43.322751090060627632
0.320000000000000118,-43.349042695458528840
0.321000000000000119,-43.362284146935820672
0.322000000000000119,-43.362958127249633833
0.323000000000000120,-43.351546117923462020
0.324000000000000121,-43.328527376100680613
0.325000000000000122,-43.294377958542924034
0.326000000000000123,-43.249569794933613309
0.327000000000000124,-43.194569812198892578
0.328000000000000125,-43.129839111139588681
0.329000000000000126,-43.055832196276426771
0.330000000000000127,-42.972996259448720480
0.331000000000000127,-42.881770517373283269
0.332000000000000128,-42.782585603063616020
0.333000000000000129,-42.675863010730630265
0.334000000000000130,-42.562014593533191942
0.335000000000000131,-42.441442113319851615
0.336000000000000132,-42.314536841299229764
0.337000000000000133,-42.181679208398158210
0.338000000000000134,-42.043238503908398229
0.339000000000000135,-41.899572620886772256
0.340000000000000135,-41.751027846657606801
0.341000000000000136,-41.597938696668407488
0.342000000000000137,-41.440627789869992625
0.343000000000000138,-41.279405763728455270
0.344000000000000139,-41.114571226928255498
0.345000000000000140,-40.946410747791382789
0.346000000000000141,-40.775198876416055782
0.347000000000000142,-40.601198198528805960
0.348000000000000143,-40.424659419045923414
0.349000000000000143,-40.245821473350545716
0.350000000000000144,-40.064911664312198525
0.351000000000000145,-39.882145823103584803
0.352000000000000146,-39.697728491904406667
0.353000000000000147,-39.511853126623250887
0.354000000000000148,-39.324702317815457775
0.355000000000000149,-39.136448028026315171
0.356000000000000150,-38.947251843844256314
0.357000000000000151,-38.757265241007942791
0.358000000000000151,-38.566629860972589938
0.359000000000000152,-38.375477797404556668
0.360000000000000153,-38.183931891139330617
0.361000000000000154,-37.992106032204667088
0.362000000000000155,-37.800105467577871821
0.363000000000000156,-37.608027113415310794
0.364000000000000157,-37.415959870558843647
0.365000000000000158,-37.223984942193652614
0.366000000000000159,-37.032176152597195085
0.367000000000000159,-36.840600265987028195
0.368000000000000160,-36.649317304539934526
0.369000000000000161,-36.458380864718968439
0.370000000000000162,-36.267838431107819019
0.371000000000000163,-36.077731687013155693
0.372000000000000164,-35.888096821154356064
0.373000000000000165,-35.698964829818720546
0.374000000000000166,-35.510361813914286699
0.375000000000000167,-35.322309270407416193
0.376000000000000167,-35.134824377682846830
0.377000000000000168,-34.947920274413789343
0.378000000000000169,-34.761606331576537343
0.379000000000000170,-34.575888417289853294
0.380000000000000171,-34.390769154201137781
0.381000000000000172,-34.206248169183552932
0.382000000000000173,-34.022322335145680938
0.383000000000000174,-33.838986004792744211
0.384000000000000175,-33.656231236212121871
0.385000000000000175,-33.474048010188809599
0.386000000000000176,-33.292424439186383722
0.387000000000000177,-33.111346967957615561
0.388000000000000178,-32.930800565775520283
0.389000000000000179,-32.750768910299647985
0.390000000000000180,-32.571234563115936567
0.391000000000000181,-32.392179137008909606
0.392000000000000182,-32.213583455044712878
0.393000000000000183,-32.035427701561062008
0.394000000000000183,-31.857691565176331494
0.395000000000000184,-31.680354373944862090
0.396000000000000185,-31.503395222798797448
0.397000000000000186,-31.326793093428268122
0.398000000000000187,-31.150526966763191439
0.399000000000000188,-30.974575928228386346
0.400000000000000189,-30.798919265952473978
0.401000000000000190,-30.623536562118097493
0.402000000000000191,-30.448407777646774974
0.403000000000000191,-30.273513330417067380
0.404000000000000192,-30.098834167218672775
0.405000000000000193,-29.924351829648337286
0.406000000000000194,-29.750048514156134161
0.407000000000000195,-29.575907126452200657
0.408000000000000196,-29.401911330484818308
0.409000000000000197,-29.228045592201532088
0.410000000000000198,-29.054295218304321935
0.411000000000000199,-28.880646390209058438
0.412000000000000199,-28.707086193418284381
0.413000000000000200,-28.533602642514427572
0.414000000000000201,-28.360184701978219834
0.415000000000000202,-28.186822303034411163
0.416000000000000203,-28.013506356724199975
0.417000000000000204,-27.840228763399771594
0.418000000000000205,-27.666982418833480750
0.419000000000000206,-27.493761217129701890
0.420000000000000207,-27.320560050623477366
0.421000000000000207,-27.147374806946125148
0.422000000000000208,-26.974202363432539187
0.423000000000000209,-26.801040579041483625
0.424000000000000210,-26.627888283954508353
0.425000000000000211,-26.454745267014430965
0.426000000000000212,-26.281612261159938981
0.427000000000000213,-26.108490927006947402
0.428000000000000214,-25.935383834723239715
0.429000000000000214,-25.762294444337101140
0.430000000000000215,-25.589227084615878027
0.431000000000000216,-25.416186930645711328
0.432000000000000217,-25.243179980237684390
0.433000000000000218,-25.070213029281529060
0.434000000000000219,-24.897293646162587777
0.435000000000000220,-24.724430145352844335
0.436000000000000221,-24.551631560281986566
0.437000000000000222,-24.378907615589668012
0.438000000000000222,-24.206268698855403443
0.439000000000000223,-24.033725831897932323
0.440000000000000224,-23.861290641731081053
0.441000000000000225,-23.688975331258998125
0.442000000000000226,-23.516792649789259428
0.443000000000000227,-23.344755863437544718
0.444000000000000228,-23.172878725494364005
0.445000000000000229,-23.001175446819313919
0.446000000000000230,-22.829660666324890883
0.447000000000000230,-22.658349421608185992
0.448000000000000231,-22.487257119784747061
0.449000000000000232,-22.316399508575177180
0.450000000000000233,-22.145792647692356780
0.451000000000000234,-21.975452880572660774
0.452000000000000235,-21.805396806492350237
0.453000000000000236,-21.635641253106356885
0.454000000000000237,-21.466203249444394174
0.455000000000000238,-21.297099999395697978
0.456000000000000238,-21.128348855711571730
0.457000000000000239,-20.959967294551738348
0.458000000000000240,-20.791972890598295010
0.459000000000000241,-20.624383292758267316
0.460000000000000242,-20.457216200473801848
0.461000000000000243,-20.290489340656399975
0.462000000000000244,-20.124220445259936696
0.463000000000000245,-19.958427229504291489
0.464000000000000246,-19.793127370760899453
0.465000000000000246,-19.628338488108092008
0.466000000000000247,-19.464078122563613249
0.467000000000000248,-19.300363717999246660
0.468000000000000249,-19.137212602741445977
0.469000000000000250,-18.974641971859966816
0.470000000000000251,-18.812668870145472511
0.471000000000000252,-18.651310175775300593
0.472000000000000253,-18.490582584666110932
0.473000000000000254,-18.330502595509994279
0.474000000000000254,-18.171086495490428092
0.475000000000000255,-18.012350346672846513
0.476000000000000256,-17.854309973063983819
0.477000000000000257,-17.696980948333241201
0.478000000000000258,-17.540378584188207611
0.479000000000000259,-17.384517919396238028
0.480000000000000260,-17.229413709442869873
0.481000000000000261,-17.075080416817286277
0.482000000000000262,-16.921532201914793347
0.483000000000000262,-16.768782914545305118
0.484000000000000263,-16.616846086036552776
0.485000000000000264,-16.465734921920450518
0.486000000000000265,-16.315462295190407360
0.487000000000000266,-16.166040740117090024
0.488000000000000267,-16.017482446610049607
0.489000000000000268,-15.869799255112178926
0.490000000000000269,-15.723002652013599700
0.491000000000000270,-15.577103765571930438
0.492000000000000270,-15.432113362324964001
0.493000000000000271,-15.288041843982421497
0.494000000000000272,-15.144899244782859427
0.495000000000000273,-15.002695229301787450
0.496000000000000274,-14.861439090697462717
0.497000000000000275,-14.721139749380091288
0.498000000000000276,-14.581805752090861716
0.499000000000000277,-14.443445271376887717
0.500000000000000222,-14.306066105448177694
0.501000000000000334,-14.169675678403157448
0.502000000000000224,-14.034281040809016616
0.503000000000000336,-13.899888870623247072
0.504000000000000226,-13.766505474443491153
0.505000000000000338,-13.634136789071680695
0.506000000000000227,-13.502788383380439186
0.507000000000000339,-13.372465460467736875
0.508000000000000229,-13.243172860088090914
0.509000000000000341,-13.114915061346859915
0.510000000000000231,-12.987696185646314007
0.511000000000000343,-12.861519999870193232
0.512000000000000233,-12.736389919795994885
0.513000000000000345,-12.612309013722239115
0.514000000000000234,-12.489280006300377934
0.515000000000000346,-12.367305282558840318
0.516000000000000236,-12.246386892109509148
0.517000000000000348,-12.126526553524781704
0.518000000000000238,-12.007725658875632035
0.519000000000000350,-11.889985278419583636
0.520000000000000240,-11.773306165429330505
0.521000000000000352,-11.657688761151685952
0.522000000000000242,-11.543133199887828155
0.523000000000000353,-11.429639314185099153
0.524000000000000243,-11.317206640131896478
0.525000000000000355,-11.205834422746438150
0.526000000000000245,-11.095521621451407412
0.527000000000000357,-10.986266915625646945
0.528000000000000247,-10.878068710225665683
0.529000000000000359,-10.770925141468453035
0.530000000000000249,-10.664834082568821927
0.531000000000000361,-10.559793149523448719
0.532000000000000250,-10.455799706935229310
0.533000000000000362,-10.352850873870522719
0.534000000000000252,-10.250943529743457461
0.535000000000000364,-10.150074320220436874
0.536000000000000254,-10.050239663139375779
0.537000000000000366,-9.951435754437142123
0.538000000000000256,-9.853658574080535359
0.539000000000000368,-9.756903891994413769
0.540000000000000258,-9.661167273982869119
0.541000000000000369,-9.566444087637474780
0.542000000000000259,-9.472729508228903583
0.543000000000000371,-9.380018524576501093
0.544000000000000261,-9.288305944892204735
0.545000000000000373,-9.197586402594172483
0.546000000000000263,-9.107854362086694522
0.547000000000000375,-9.019104124501991393
0.548000000000000265,-8.931329833401289164
0.549000000000000377,-8.844525480430712960
0.550000000000000266,-8.758684910929835254
0.551000000000000378,-8.673801829489065085
0.552000000000000268,-8.589869805453592022
0.553000000000000380,-8.506882278370785144
0.554000000000000270,-8.424832563378910066
0.555000000000000382,-8.343713856534341389
0.556000000000000272,-8.263519240075588357
0.557000000000000384,-8.184241687621442551
0.558000000000000274,-8.105874069302014817
0.559000000000000385,-8.028409156820071502
0.560000000000000275,-7.951839628441861763
0.561000000000000387,-7.876158073915118685
0.562000000000000277,-7.801356999313389551
0.563000000000000389,-7.727428831805110754
0.564000000000000279,-7.654365924346386407
0.565000000000000391,-7.582160560296363983
0.566000000000000281,-7.510804957954275274
0.567000000000000393,-7.440291275017242079
0.568000000000000282,-7.370611612958360759
0.569000000000000394,-7.301758021323919934
0.570000000000000284,-7.233722501949849004
0.571000000000000396,-7.166497013096309487
0.572000000000000286,-7.100073473500669863
0.573000000000000398,-7.034443766347950877
0.574000000000000288,-6.969599743159124117
0.575000000000000400,-6.905533227596714951
0.576000000000000290,-6.842236019187922125
0.577000000000000401,-6.779699896965075467
0.578000000000000291,-6.717916623023737266
0.579000000000000403,-6.656877945998303403
0.580000000000000293,-6.596575604455733988
0.581000000000000405,-6.537001330207175442
0.582000000000000295,-6.478146851538360451
0.583000000000000407,-6.420003896358638329
0.584000000000000297,-6.362564195269499123
0.585000000000000409,-6.305819484552787735
0.586000000000000298,-6.249761509079371891
0.587000000000000410,-6.194382025138549075
0.588000000000000300,-6.139672803189186290
0.589000000000000412,-6.085625630532804919
0.590000000000000302,-6.032232313909725363
0.591000000000000414,-5.979484682018715525
0.592000000000000304,-5.927374587961020680
0.593000000000000416,-5.875893911609470166
0.594000000000000306,-5.825034561903681407
0.595000000000000417,-5.774788479071909286
0.596000000000000307,-5.725147636780675064
0.597000000000000419,-5.676104044212884503
0.598000000000000309,-5.627649748075522318
0.599000000000000421,-5.579776834537599761
0.600000000000000311,-5.532477431099642295
0.601000000000000423,-5.485743708395300899
0.602000000000000313,-5.439567881926512527
0.603000000000000425,-5.393942213732652036
0.604000000000000314,-5.348859013995337364
0.605000000000000426,-5.304310642579224577
0.606000000000000316,-5.260289510510456346
0.607000000000000428,-5.216788081393212373
0.608000000000000318,-5.173798872765956958
0.609000000000000430,-5.131314457397928130
0.610000000000000320,-5.089327464527352518
0.611000000000000432,-5.047830581042070719
0.612000000000000322,-5.006816552603963189
0.613000000000000433,-4.966278184717950239
0.614000000000000323,-4.926208343746849572
0.615000000000000435,-4.886599957873012379
0.616000000000000325,-4.847446018007867785
0.617000000000000437,-4.808739578650393476
0.618000000000000327,-4.770473758695631616
0.619000000000000439,-4.732641742194182655
0.620000000000000329,-4.695236779063888477
0.621000000000000441,-4.658252185754596653
0.622000000000000330,-4.621681345867170165
0.623000000000000442,-4.585517710727636143
0.624000000000000332,-4.549754799917673509
0.625000000000000444,-4.514386201762293105
0.626000000000000334,-4.479405573775836480
0.627000000000000446,-4.444806643067235719
0.628000000000000336,-4.410583206705572579
0.629000000000000448,-4.376729132046854431
0.630000000000000338,-4.343238357023119889
0.631000000000000449,-4.310104890394646837
0.632000000000000339,-4.277322811966439708
0.633000000000000451,-4.244886272769723412
0.634000000000000341,-4.212789495209597668
0.635000000000000453,-4.181026773179603140
0.636000000000000343,-4.149592472144189692
0.637000000000000455,-4.118481029190027343
0.638000000000000345,-4.087686953046997473
0.639000000000000457,-4.057204824079692074
0.640000000000000346,-4.027029294250486835
0.641000000000000458,-3.997155087054784506
0.642000000000000348,-3.967576997429511643
0.643000000000000460,-3.938289891635490481
0.644000000000000350,-3.909288707114737971
0.645000000000000462,-3.880568452323235107
0.646000000000000352,-3.852124206540220364
0.647000000000000464,-3.823951119654536601
0.648000000000000353,-3.796044411929107021
0.649000000000000465,-3.768399373743897662
0.650000000000000355,-3.741011365318571702
0.651000000000000467,-3.713875816415113995
0.652000000000000357,-3.686988226021525428
0.653000000000000469,-3.660344162016992975
0.654000000000000359,-3.633939260819480488
0.655000000000000471,-3.607769227016176306
0.656000000000000361,-3.581829832977703632
