# Cu001_BSAI10
# h[nm],U(h)[kJ/mol]
0.149999999999999994,73.164327320894329887
0.150999999999999995,67.660199126441114004
0.151999999999999996,63.865055814077081209
0.152999999999999997,60.495854660409747794
0.153999999999999998,57.089335909850390749
0.154999999999999999,53.562203250649098152
0.156000000000000000,49.976369288845788219
0.157000000000000001,46.423762930792847214
0.158000000000000002,42.977813674618104756
0.159000000000000002,39.679751708979793534
0.160000000000000003,36.541188929543672259
0.161000000000000004,33.552718252516896769
0.162000000000000005,30.693266904422802810
0.163000000000000006,27.937851343463602660
0.164000000000000007,25.262991113948800148
0.165000000000000008,22.649857162953704659
0.166000000000000009,20.085584688146305155
0.167000000000000010,17.563277525942815771
0.168000000000000010,15.081196716146376247
0.169000000000000011,12.641534899504698330
0.170000000000000012,10.249072603618605726
0.171000000000000013,7.909913975255119745
0.172000000000000014,5.630417708300419655
0.173000000000000015,3.416376443036154509
0.174000000000000016,1.272453741733521326
0.175000000000000017,-0.798140851643588278
0.176000000000000018,-2.793774454127841977
0.177000000000000018,-4.714354146888767083
0.178000000000000019,-6.561174727868390733
0.179000000000000020,-8.336691462882280135
0.180000000000000021,-10.044252824066367324
0.181000000000000022,-11.687821607316703165
0.182000000000000023,-13.271706074810589726
0.183000000000000024,-14.800316448953989124
0.184000000000000025,-16.277956524039328912
0.185000000000000026,-17.708655519794284317
0.186000000000000026,-19.096041612851411884
0.187000000000000027,-20.443255803812490967
0.188000000000000028,-21.752902816786669149
0.189000000000000029,-23.027034468225998864
0.190000000000000030,-24.267160257699750048
0.191000000000000031,-25.474279703052953749
0.192000000000000032,-26.648931054142622088
0.193000000000000033,-27.791251374610748570
0.194000000000000034,-28.901043496693535673
0.195000000000000034,-29.977845961930587038
0.196000000000000035,-31.021002707256922548
0.197000000000000036,-32.029729900742019311
0.198000000000000037,-33.003177944821750600
0.199000000000000038,-33.940487227342750032
0.200000000000000039,-34.840836699894246919
0.201000000000000040,-35.703484792627428135
0.202000000000000041,-36.527802533605147062
0.203000000000000042,-37.313299030666769340
0.204000000000000042,-38.059639699214770303
0.205000000000000043,-38.766657786165531263
0.206000000000000044,-39.434359855377259407
0.207000000000000045,-40.062925970355820482
0.208000000000000046,-40.652705343104670987
0.209000000000000047,-41.204208220483437231
0.210000000000000048,-41.718094757735073586
0.211000000000000049,-42.195161588682431386
0.212000000000000050,-42.636326748563824651
0.213000000000000050,-43.042613542954157424
0.214000000000000051,-43.415133888415823549
0.215000000000000052,-43.755071580498125172
0.216000000000000053,-44.063665874923955812
0.217000000000000054,-44.342195700193585139
0.218000000000000055,-44.591964755852174562
0.219000000000000056,-44.814287691347026055
0.220000000000000057,-45.010477506436920692
0.221000000000000058,-45.181834265897904857
0.222000000000000058,-45.329635178965212106
0.223000000000000059,-45.455126057513659532
0.224000000000000060,-45.559514136236529680
0.225000000000000061,-45.643962212735623041
0.226000000000000062,-45.709584045112386264
0.227000000000000063,-45.757440928925696255
0.228000000000000064,-45.788539363800559556
0.229000000000000065,-45.803829712066892910
0.230000000000000066,-45.804205747111190306
0.231000000000000066,-45.790504987188100472
0.232000000000000067,-45.763509710829957555
0.233000000000000068,-45.723948552311362903
0.234000000000000069,-45.672498579500071969
0.235000000000000070,-45.609787761520173888
0.236000000000000071,-45.536397739666263362
0.237000000000000072,-45.452866821672543551
0.238000000000000073,-45.359693126526011042
0.239000000000000073,-45.257337814317963876
0.240000000000000074,-45.146228342984500159
0.241000000000000075,-45.026761701054603293
0.242000000000000076,-44.899307572585954063
0.243000000000000077,-44.764211397237303913
0.244000000000000078,-44.621797294827942437
0.245000000000000079,-44.472370829718897767
0.246000000000000080,-44.316221595882346662
0.247000000000000081,-44.153625608582885320
0.248000000000000081,-43.984847493165581511
0.249000000000000082,-43.810142465534077871
0.250000000000000111,-43.629758102512724349
0.251000000000000112,-43.443935903435473733
0.252000000000000113,-43.252912647013019409
0.253000000000000114,-43.056921549817403161
0.254000000000000115,-42.856193234622779187
0.255000000000000115,-42.650956518375792825
0.256000000000000116,-42.441439030771469731
0.257000000000000117,-42.227867675310541529
0.258000000000000118,-42.010468945341031599
0.259000000000000119,-41.789469107970305117
0.260000000000000120,-41.565094268903507668
0.261000000000000121,-41.337570331245942157
0.262000000000000122,-41.107122861127010083
0.263000000000000123,-40.873976872686839101
0.264000000000000123,-40.638356544535845671
0.265000000000000124,-40.400484879270983640
0.266000000000000125,-40.160583317034891593
0.267000000000000126,-39.918871313444633131
0.268000000000000127,-39.675565891519603667
0.269000000000000128,-39.430881176510155228
0.270000000000000129,-39.185027921785945182
0.271000000000000130,-38.938213033195246737
0.272000000000000131,-38.690639098563046616
0.273000000000000131,-38.442503928263974444
0.274000000000000132,-38.194000112093938526
0.275000000000000133,-37.945314596976217558
0.276000000000000134,-37.696628289378537602
0.277000000000000135,-37.448115685691099941
0.278000000000000136,-37.199944533224176269
0.279000000000000137,-36.952275523929657197
0.280000000000000138,-36.705262022435299230
0.281000000000000139,-36.459049829503740625
0.282000000000000139,-36.213776981591117021
0.283000000000000140,-35.969573586782232155
0.284000000000000141,-35.726561697019306507
0.285000000000000142,-35.484855216218967655
0.286000000000000143,-35.244559843586799275
0.287000000000000144,-35.005773051186608313
0.288000000000000145,-34.768584094604889856
0.289000000000000146,-34.533074055363314869
0.290000000000000147,-34.299315913576258197
0.291000000000000147,-34.067374649220617755
0.292000000000000148,-33.837307370282715624
0.293000000000000149,-33.609163465967384354
0.294000000000000150,-33.382984783097469972
0.295000000000000151,-33.158805823794679668
0.296000000000000152,-32.936653962514313321
0.297000000000000153,-32.716549680504009245
0.298000000000000154,-32.498506815769033551
0.299000000000000155,-32.282532826652776237
0.300000000000000155,-32.068629067178036962
0.301000000000000156,-31.856791072342254267
0.302000000000000157,-31.647008851615815672
0.303000000000000158,-31.439267188956051768
0.304000000000000159,-31.233545947719299818
0.305000000000000160,-31.029820378927674085
0.306000000000000161,-30.828061431426277750
0.307000000000000162,-30.628236062547891549
0.308000000000000163,-30.430307547986057415
0.309000000000000163,-30.234235789662740501
0.310000000000000164,-30.039977620462302355
0.311000000000000165,-29.847487104789518497
0.312000000000000166,-29.656715833994262255
0.313000000000000167,-29.467613215789754122
0.314000000000000168,-29.280126756873745109
0.315000000000000169,-29.094202338042386202
0.316000000000000170,-28.909784481165125669
0.317000000000000171,-28.726816607464591868
0.318000000000000171,-28.545241286618214360
0.319000000000000172,-28.365000476268694030
0.320000000000000173,-28.186035751596943300
0.321000000000000174,-28.008288524674913589
0.322000000000000175,-27.831700253375821319
0.323000000000000176,-27.656212639676567733
0.324000000000000177,-27.481767817240069007
0.325000000000000178,-27.308308528215711419
0.326000000000000179,-27.135778289242797001
0.327000000000000179,-26.964121546684896913
0.328000000000000180,-26.793283821163345948
0.329000000000000181,-26.623211841495020735
0.330000000000000182,-26.453853668172563118
0.331000000000000183,-26.285158806556893296
0.332000000000000184,-26.117078309978381867
0.333000000000000185,-25.949564872968799989
0.334000000000000186,-25.782572914867774472
0.335000000000000187,-25.616058654066836908
0.336000000000000187,-25.449980173171979914
0.337000000000000188,-25.284297475378934905
0.338000000000000189,-25.118972532369241435
0.339000000000000190,-24.953969324044365408
0.340000000000000191,-24.789253870423795689
0.341000000000000192,-24.624794256039940876
0.342000000000000193,-24.460560647166374793
0.343000000000000194,-24.296525302219940556
0.344000000000000195,-24.132662575678374139
0.345000000000000195,-23.968948915855229131
0.346000000000000196,-23.805362856873021116
0.347000000000000197,-23.641885005172952106
0.348000000000000198,-23.478498020896520160
0.349000000000000199,-23.315186594469547998
0.350000000000000200,-23.151937418714492622
0.351000000000000201,-22.988739156810446218
0.352000000000000202,-22.825582406413591485
0.353000000000000203,-22.662459660244003601
0.354000000000000203,-22.499365263435993967
0.355000000000000204,-22.336295367941623624
0.356000000000000205,-22.173247884267794916
0.357000000000000206,-22.010222430818490835
0.358000000000000207,-21.847220281103979289
0.359000000000000208,-21.684244309069875101
0.360000000000000209,-21.521298932788447189
0.361000000000000210,-21.358390056745196972
0.362000000000000210,-21.195525012943495113
0.363000000000000211,-21.032712501040247588
0.364000000000000212,-20.869962527715507861
0.365000000000000213,-20.707286345468833844
0.366000000000000214,-20.544696391025713211
0.367000000000000215,-20.382206223527060018
0.368000000000000216,-20.219830462665761672
0.369000000000000217,-20.057584726924073237
0.370000000000000218,-19.895485572056937684
0.371000000000000218,-19.733550429956785877
0.372000000000000219,-19.571797548026523828
0.373000000000000220,-19.410245929178739033
0.374000000000000221,-19.248915272570780388
0.375000000000000222,-19.087825915176779290
0.376000000000000223,-18.926998774290094474
0.377000000000000224,-18.766455291041687303
0.378000000000000225,-18.606217375012469972
0.379000000000000226,-18.446307350010677339
0.380000000000000226,-18.286747901078083345
0.381000000000000227,-18.127562022782491624
0.382000000000000228,-17.968772968847396498
0.383000000000000229,-17.810404203163678005
0.384000000000000230,-17.652479352222247400
0.385000000000000231,-17.495022159001301532
0.386000000000000232,-17.338056438336028720
0.387000000000000233,-17.181606033794096788
0.388000000000000234,-17.025694776075145143
0.389000000000000234,-16.870346442948239485
0.390000000000000235,-16.715584720736540447
0.391000000000000236,-16.561433167355158247
0.392000000000000237,-16.407915176903436816
0.393000000000000238,-16.255053945810338689
0.394000000000000239,-16.102872440527374209
0.395000000000000240,-15.951393366761127623
0.396000000000000241,-15.800639140234187252
0.397000000000000242,-15.650631858960462495
0.398000000000000242,-15.501393277018985728
0.399000000000000243,-15.352944779807184972
0.400000000000000244,-15.205307360753113954
0.401000000000000245,-15.058501599464126031
0.402000000000000246,-14.912547641287375200
0.403000000000000247,-14.767465178256173886
0.404000000000000248,-14.623273431394958166
0.405000000000000249,-14.479991134353932480
0.406000000000000250,-14.337636518343677139
0.407000000000000250,-14.196227298338666145
0.408000000000000251,-14.055780660518113478
0.409000000000000252,-13.916313250911537480
0.410000000000000253,-13.777841165215795272
0.411000000000000254,-13.640379939750086891
0.412000000000000255,-13.503944543514625920
0.413000000000000256,-13.368549371318682262
0.414000000000000257,-13.234208237943093422
0.415000000000000258,-13.100934373302683511
0.416000000000000258,-12.968740418573469597
0.417000000000000259,-12.837638423249853048
0.418000000000000260,-12.707639843097046750
0.419000000000000261,-12.578755538963864780
0.420000000000000262,-12.450995776421736494
0.421000000000000263,-12.324370226195478395
0.422000000000000264,-12.198887965352145812
0.423000000000000265,-12.074557479214323763
0.424000000000000266,-11.951386663964971291
0.425000000000000266,-11.829382829911024189
0.426000000000000267,-11.708552705373680425
0.427000000000000268,-11.588902441173853930
0.428000000000000269,-11.470437615681619903
0.429000000000000270,-11.353163240399323897
0.430000000000000271,-11.237083766048424849
0.431000000000000272,-11.122203089130909603
0.432000000000000273,-11.008524558936660043
0.433000000000000274,-10.896050984969042119
0.434000000000000274,-10.784784644761245431
0.435000000000000275,-10.674727292057099248
0.436000000000000276,-10.565880165330494123
0.437000000000000277,-10.458243996618158178
0.438000000000000278,-10.351819020641610081
0.439000000000000279,-10.246604984194558341
0.440000000000000280,-10.142601155772693389
0.441000000000000281,-10.039806335423824279
0.442000000000000282,-9.938218864796763086
0.443000000000000282,-9.837836637368193138
0.444000000000000283,-9.738657108827469600
0.445000000000000284,-9.640677307600066470
0.446000000000000285,-9.543893845490837080
0.447000000000000286,-9.448302928429443526
0.448000000000000287,-9.353900367300379770
0.449000000000000288,-9.260681588841283229
0.450000000000000289,-9.168641646593487238
0.451000000000000290,-9.077775231889628316
0.452000000000000290,-8.988076684863735011
0.453000000000000291,-8.899540005469841475
0.454000000000000292,-8.812158864495870603
0.455000000000000293,-8.725926614559989858
0.456000000000000294,-8.640836301077513326
0.457000000000000295,-8.556880673186679331
0.458000000000000296,-8.474052194622542444
0.459000000000000297,-8.392343054528572210
0.460000000000000298,-8.311745178196122907
0.461000000000000298,-8.232250237722608333
0.462000000000000299,-8.153849662579599311
0.463000000000000300,-8.076534650082576761
0.464000000000000301,-8.000296175754751715
0.465000000000000302,-7.925125003577564442
0.466000000000000303,-7.851011696121195094
0.467000000000000304,-7.777946624548664367
0.468000000000000305,-7.705919978487784761
0.469000000000000306,-7.634921775765358021
0.470000000000000306,-7.564941871998717815
0.471000000000000307,-7.495969970039810804
0.472000000000000308,-7.427995629267789113
0.473000000000000309,-7.361008274725972633
0.474000000000000310,-7.294997206099845144
0.475000000000000311,-7.229951606532776687
0.476000000000000312,-7.165860551276800550
0.477000000000000313,-7.102713016175622229
0.478000000000000314,-7.040497885977932135
0.479000000000000314,-6.979203962478939260
0.480000000000000315,-6.918819972488464032
0.481000000000000316,-6.859334575624323804
0.482000000000000317,-6.800736371929799517
0.483000000000000318,-6.743013909314330867
0.484000000000000319,-6.686155690816834252
0.485000000000000320,-6.630150181691261579
0.486000000000000321,-6.574985816314130815
0.487000000000000322,-6.520651004914102877
0.488000000000000322,-6.467134140123809161
0.489000000000000323,-6.414423603354309833
0.490000000000000324,-6.362507770992758438
0.491000000000000325,-6.311375020424057070
0.492000000000000326,-6.261013735877272168
0.493000000000000327,-6.211412314098025078
0.494000000000000328,-6.162559169847905416
0.495000000000000329,-6.114442741232297251
0.496000000000000330,-6.067051494858047178
0.497000000000000330,-6.020373930822493058
0.498000000000000331,-5.974398587535588945
0.499000000000000332,-5.929114046376850133
0.500000000000000333,-5.884508936188969308
0.501000000000000334,-5.840571937610121722
0.502000000000000335,-5.797291787246900974
0.503000000000000336,-5.754657281690112036
0.504000000000000337,-5.712657281375462581
0.505000000000000338,-5.671280714291538239
0.506000000000000338,-5.630516579537244048
0.507000000000000339,-5.590353950731138610
0.508000000000000340,-5.550781979275042133
0.509000000000000341,-5.511789897474359989
0.510000000000000342,-5.473367021517607789
0.511000000000000343,-5.435502754317649732
0.512000000000000344,-5.398186588217202875
0.513000000000000345,-5.361408107561169700
0.514000000000000346,-5.325156991138405793
0.515000000000000346,-5.289423014495502784
0.516000000000000347,-5.254196052125232441
0.517000000000000348,-5.219466079532301350
0.518000000000000349,-5.185223175178977684
0.519000000000000350,-5.151457522313320325
0.520000000000000351,-5.118159410682644683
0.521000000000000352,-5.085319238134763609
0.522000000000000353,-5.052927512109808283
0.523000000000000353,-5.020974851025074237
0.524000000000000354,-4.989451985555685809
0.525000000000000355,-4.958349759813548197
0.526000000000000356,-4.927659132427256949
0.527000000000000357,-4.897371177525531749
0.528000000000000358,-4.867477085626692457
0.529000000000000359,-4.837968164436771801
0.530000000000000360,-4.808835839558749825
0.531000000000000361,-4.780071655115412099
0.532000000000000361,-4.751667274288298159
0.533000000000000362,-4.723614479775184449
0.534000000000000363,-4.695905174168549578
0.535000000000000364,-4.668531380257326724
0.536000000000000365,-4.641485241254428296
0.537000000000000366,-4.614759020952250879
0.538000000000000367,-4.588345103808527448
0.539000000000000368,-4.562235994964791708
0.540000000000000369,-4.536424320199637705
0.541000000000000369,-4.510902825819036011
0.542000000000000370,-4.485664378485846093
0.543000000000000371,-4.460701964990620105
0.544000000000000372,-4.436008691965871442
0.545000000000000373,-4.411577785545794050
0.546000000000000374,-4.387402590973499272
0.547000000000000375,-4.363476572157724220
0.548000000000000376,-4.339793311181024293
0.549000000000000377,-4.316346507761306128
0.550000000000000377,-4.293129978668567048
0.551000000000000378,-4.270137657098765693
0.552000000000000379,-4.247363592006540678
0.553000000000000380,-4.224801947398590052
0.554000000000000381,-4.202447001589424858
0.555000000000000382,-4.180293146421215411
0.556000000000000383,-4.158334886449332579
0.557000000000000384,-4.136566838095265375
0.558000000000000385,-4.114983728768469184
0.559000000000000385,-4.093580395958681173
0.560000000000000386,-4.072351786300218990
0.561000000000000387,-4.051292954609767349
0.562000000000000388,-4.030399062899062912
0.563000000000000389,-4.009665379363848814
0.564000000000000390,-3.989087277350550576
0.565000000000000391,-3.968660234301931045
0.566000000000000392,-3.948379830683065528
0.567000000000000393,-3.928241748888878337
0.568000000000000393,-3.908241772134490422
0.569000000000000394,-3.888375783329558910
0.570000000000000395,-3.868639763937799181
0.571000000000000396,-3.849029792822781015
0.572000000000000397,-3.829542045081142820
0.573000000000000398,-3.810172790864270187
0.574000000000000399,-3.790918394189473073
0.575000000000000400,-3.771775311741681236
0.576000000000000401,-3.752740091666620259
0.577000000000000401,-3.733809372356438949
0.578000000000000402,-3.714979881228674063
0.579000000000000403,-3.696248433499461861
0.580000000000000404,-3.677611930951854013
0.581000000000000405,-3.659067360700081650
0.582000000000000406,-3.640611793950511377
0.583000000000000407,-3.622242384760190781
0.584000000000000408,-3.603956368793598930
0.585000000000000409,-3.585751062078429641
0.586000000000000409,-3.567623859761053673
0.587000000000000410,-3.549572234862365949
0.588000000000000411,-3.531593737034647518
0.589000000000000412,-3.513685991320071533
0.590000000000000413,-3.495846696911472318
0.591000000000000414,-3.478073625915952594
0.592000000000000415,-3.460364622121873790
0.593000000000000416,-3.442717599769772985
0.594000000000000417,-3.425130542327742056
0.595000000000000417,-3.407601501271741107
0.596000000000000418,-3.390128594871290257
0.597000000000000419,-3.372710006981090025
0.598000000000000420,-3.355343985838879828
0.599000000000000421,-3.338028842870052415
0.600000000000000422,-3.320762951499355076
0.601000000000000423,-3.303544745970095509
0.602000000000000424,-3.286372720171184092
0.603000000000000425,-3.269245426472370930
0.604000000000000425,-3.252161474568005417
0.605000000000000426,-3.235119530329618076
0.606000000000000427,-3.218118314667627544
0.607000000000000428,-3.201156602402438267
