# Cu001_BSAI26
# h[nm],U(h)[kJ/mol]
0.149999999999999994,67.153023126382976216
0.150999999999999995,62.734522243123493013
0.151999999999999996,59.149450089906608241
0.152999999999999997,55.717727188922765436
0.153999999999999998,52.220322815140647776
0.154999999999999999,48.643981250653403947
0.156000000000000000,45.047341687110026953
0.157000000000000001,41.497111050958167766
0.158000000000000002,38.042758255624917751
0.159000000000000002,34.710897879614130090
0.160000000000000003,31.508531017618707892
0.161000000000000004,28.429240166716908789
0.162000000000000005,25.459385927722841814
0.163000000000000006,22.583051698443817656
0.164000000000000007,19.785405079747246049
0.165000000000000008,17.054600296691241113
0.166000000000000009,14.382531401982504349
0.167000000000000010,11.764784191615339282
0.168000000000000010,9.200100143160877764
0.169000000000000011,6.689601797204829836
0.170000000000000012,4.235959836707509751
0.171000000000000013,1.842619706521501755
0.172000000000000014,-0.486845092375337074
0.173000000000000015,-2.749223920719988001
0.174000000000000016,-4.942001413432622670
0.175000000000000017,-7.063545384598422849
0.176000000000000018,-9.113173424016316915
0.177000000000000018,-11.091125106291883640
0.178000000000000019,-12.998466717039423912
0.179000000000000020,-14.836953041437183742
0.180000000000000021,-16.608867117793959522
0.181000000000000022,-18.316854696680323400
0.182000000000000023,-19.963765983739072851
0.183000000000000024,-21.552513408450536758
0.184000000000000025,-23.085950834233077700
0.185000000000000026,-24.566776885675317033
0.186000000000000026,-25.997462923762917342
0.187000000000000027,-27.380204611636333567
0.188000000000000028,-28.716894917524065534
0.189000000000000029,-30.009115721605251537
0.190000000000000030,-31.258144850562633366
0.191000000000000031,-32.464975281949683961
0.192000000000000032,-33.630343371968351107
0.193000000000000033,-34.754763205804053428
0.194000000000000034,-35.838564500094527432
0.195000000000000034,-36.881931862881188522
0.196000000000000035,-37.884943606852075959
0.197000000000000036,-38.847608694085607794
0.198000000000000037,-39.769900748812844427
0.199000000000000038,-40.651788398486743858
0.200000000000000039,-41.493261486700205865
0.201000000000000040,-42.294352941733642126
0.202000000000000041,-43.055156281845732735
0.203000000000000042,-43.775838894822399538
0.204000000000000042,-44.456651348007774516
0.205000000000000043,-45.097933070054565974
0.206000000000000044,-45.700114801342529347
0.207000000000000045,-46.263718240897794942
0.208000000000000046,-46.789353328068628457
0.209000000000000047,-47.277713591269048266
0.210000000000000048,-47.729569977525663660
0.211000000000000049,-48.145763548675944321
0.212000000000000050,-48.527197395750718556
0.213000000000000050,-48.874828084776105186
0.214000000000000051,-49.189656906980168571
0.215000000000000052,-49.472721165827543643
0.216000000000000053,-49.725085693716060575
0.217000000000000054,-49.947834753530727880
0.218000000000000055,-50.142064445262420236
0.219000000000000056,-50.308875706032218034
0.220000000000000057,-50.449367963398103143
0.221000000000000058,-50.564633476873211748
0.222000000000000058,-50.655752381153646979
0.223000000000000059,-50.723788426529758055
0.224000000000000060,-50.769785397163829543
0.225000000000000061,-50.794764176130605904
0.226000000000000062,-50.799720417070176381
0.227000000000000063,-50.785622775715935973
0.228000000000000064,-50.753411650141863731
0.229000000000000065,-50.703998376038377671
0.230000000000000066,-50.638264822391832354
0.231000000000000066,-50.557063333350804157
0.232000000000000067,-50.461216963561653870
0.233000000000000068,-50.351519956626290764
0.234000000000000069,-50.228738419368553991
0.235000000000000070,-50.093611148118036169
0.236000000000000071,-49.946850567066839233
0.237000000000000072,-49.789143742795083369
0.238000000000000073,-49.621153443176361009
0.239000000000000073,-49.443519212968176646
0.240000000000000074,-49.256858442387532193
0.241000000000000075,-49.061767408804797697
0.242000000000000076,-48.858822275310117789
0.243000000000000077,-48.648580033282293300
0.244000000000000078,-48.431579379194957369
0.245000000000000079,-48.208341518712046536
0.246000000000000080,-47.979370893650532537
0.247000000000000081,-47.745155829619335464
0.248000000000000081,-47.506169104087220489
0.249000000000000082,-47.262868436297040375
0.250000000000000111,-47.015696901843867295
0.251000000000000112,-46.765083275884549607
0.252000000000000113,-46.511442309865131506
0.253000000000000114,-46.255174947357787119
0.254000000000000115,-45.996668485111577240
0.255000000000000115,-45.736296685759533887
0.256000000000000116,-45.474419848809041866
0.257000000000000117,-45.211384846591933240
0.258000000000000118,-44.947525131782718688
0.259000000000000119,-44.683160722926778874
0.260000000000000120,-44.418598174170249138
0.261000000000000121,-44.154130535064687990
0.262000000000000122,-43.890037305948631285
0.263000000000000123,-43.626584393993745437
0.264000000000000123,-43.364024074561555722
0.265000000000000124,-43.102594962052606320
0.266000000000000125,-42.842521993958769144
0.267000000000000126,-42.584016431352338827
0.268000000000000127,-42.327275878575655099
0.269000000000000128,-42.072484324433176539
0.270000000000000129,-41.819812206742739136
0.271000000000000130,-41.569416501675654274
0.272000000000000131,-41.321440838910916682
0.273000000000000131,-41.076015643249313314
0.274000000000000132,-40.833258302980091514
0.275000000000000133,-40.593273364967885186
0.276000000000000134,-40.356152756131429271
0.277000000000000135,-40.121976030717831918
0.278000000000000136,-39.890810642538077957
0.279000000000000137,-39.662712241118939005
0.280000000000000138,-39.437724990544900550
0.281000000000000139,-39.215881909607219313
0.282000000000000139,-38.997205231748566234
0.283000000000000140,-38.781706783185462939
0.284000000000000141,-38.569388377508822430
0.285000000000000142,-38.360242225002117777
0.286000000000000143,-38.154251354875583502
0.287000000000000144,-37.951390048592848814
0.288000000000000145,-37.751624282460866766
0.289000000000000146,-37.554912177663688055
0.290000000000000147,-37.361204455944445613
0.291000000000000147,-37.170444899175755893
0.292000000000000148,-36.982570811105453856
0.293000000000000149,-36.797513479621045462
0.294000000000000150,-36.615198637939862181
0.295000000000000151,-36.435546923204150005
0.296000000000000152,-36.258474331035912996
0.297000000000000153,-36.083892664688931973
0.298000000000000154,-35.911709977519301162
0.299000000000000155,-35.741831007583996893
0.300000000000000155,-35.574157603266122862
0.301000000000000156,-35.408589138915246508
0.302000000000000157,-35.245022919582183363
0.303000000000000158,-35.083354574016865968
0.304000000000000159,-34.923478435187440994
0.305000000000000160,-34.765287907665332057
0.306000000000000161,-34.608675821306889020
0.307000000000000162,-34.453534770744866478
0.308000000000000163,-34.299757440283087817
0.309000000000000163,-34.147236913865008034
0.310000000000000164,-33.995866969860763618
0.311000000000000165,-33.845542360487442579
0.312000000000000166,-33.696159075744915867
0.313000000000000167,-33.547614591811921514
0.314000000000000168,-33.399808103907254520
0.315000000000000169,-33.252640743676153079
0.316000000000000170,-33.106015781214082949
0.317000000000000171,-32.959838811887799181
0.318000000000000171,-32.814017928158392579
0.319000000000000172,-32.668463876650953637
0.320000000000000173,-32.523090200753060230
0.321000000000000174,-32.377813369057285797
0.322000000000000175,-32.232552889992817313
0.323000000000000176,-32.087231413018493242
0.324000000000000177,-31.941774816772323220
0.325000000000000178,-31.796112284593156971
0.326000000000000179,-31.650176367848018799
0.327000000000000179,-31.503903037512365870
0.328000000000000180,-31.357231724463396461
0.329000000000000181,-31.210105348955540450
0.330000000000000182,-31.062470339754167270
0.331000000000000183,-30.914276643409284162
0.332000000000000184,-30.765477724152482608
0.333000000000000185,-30.616030554902749827
0.334000000000000186,-30.465895599864644794
0.335000000000000187,-30.315036789200338063
0.336000000000000187,-30.163421486253174209
0.337000000000000188,-30.011020447794066968
0.338000000000000189,-29.857807777756327994
0.339000000000000190,-29.703760874915978718
0.340000000000000191,-29.548860374965677522
0.341000000000000192,-29.393090087421207102
0.342000000000000193,-29.236436927787917028
0.343000000000000194,-29.078890845403869037
0.344000000000000195,-28.920444747364022930
0.345000000000000195,-28.761094418917792837
0.346000000000000196,-28.600838440718643341
0.347000000000000197,-28.439678103291790023
0.348000000000000198,-28.277617319072184898
0.349000000000000199,-28.114662532351029967
0.350000000000000200,-27.950822627455444547
0.351000000000000201,-27.786108835471555523
0.352000000000000202,-27.620534639807392097
0.353000000000000203,-27.454115680877940520
0.354000000000000203,-27.286869660180560260
0.355000000000000204,-27.118816244015000905
0.356000000000000205,-26.949976967089106950
0.357000000000000206,-26.780375136236973077
0.358000000000000207,-26.610035734463288293
0.359000000000000208,-26.438985325514874347
0.360000000000000209,-26.267251959166980413
0.361000000000000210,-26.094865077399770570
0.362000000000000210,-25.921855421628077210
0.363000000000000211,-25.748254941135648721
0.364000000000000212,-25.574096702853530871
0.365000000000000213,-25.399414802611030240
0.366000000000000214,-25.224244277976904272
0.367000000000000215,-25.048621022797895819
0.368000000000000216,-24.872581703531757569
0.369000000000000217,-24.696163677462035224
0.370000000000000218,-24.519404912872868607
0.371000000000000218,-24.342343911252630306
0.372000000000000219,-24.165019631587203008
0.373000000000000220,-23.987471416795280277
0.374000000000000221,-23.809738922350220491
0.375000000000000222,-23.631862047125672177
0.376000000000000223,-23.453880866495190105
0.377000000000000224,-23.275835567709332707
0.378000000000000225,-23.097766387567343571
0.379000000000000226,-22.919713552394604505
0.380000000000000226,-22.741717220331644000
0.381000000000000227,-22.563817425934669103
0.382000000000000228,-22.386054027083293505
0.383000000000000229,-22.208466654185937017
0.384000000000000230,-22.031094661669293089
0.385000000000000231,-21.853977081734306864
0.386000000000000232,-21.677152580357191169
0.387000000000000233,-21.500659415510501304
0.388000000000000234,-21.324535397576376283
0.389000000000000234,-21.148817851920952648
0.390000000000000235,-20.973543583595947837
0.391000000000000236,-20.798748844131864644
0.392000000000000237,-20.624469300383829307
0.393000000000000238,-20.450740005390322551
0.394000000000000239,-20.277595371202213670
0.395000000000000240,-20.105069143638711893
0.396000000000000241,-19.933194378925083612
0.397000000000000242,-19.762003422165637545
0.398000000000000242,-19.591527887604993197
0.399000000000000243,-19.421798640629159394
0.400000000000000244,-19.252845781457502028
0.401000000000000245,-19.084698630476331971
0.402000000000000246,-18.917385715163945292
0.403000000000000247,-18.750934758556962123
0.404000000000000248,-18.585372669207561813
0.405000000000000249,-18.420725532581151640
0.406000000000000250,-18.257018603843953031
0.407000000000000250,-18.094276301990319666
0.408000000000000251,-17.932522205259513015
0.409000000000000252,-17.771779047792470863
0.410000000000000253,-17.612068717478894797
0.411000000000000254,-17.453412254946091053
0.412000000000000255,-17.295829853640992013
0.413000000000000256,-17.139340860957769763
0.414000000000000257,-16.983963780363897200
0.415000000000000258,-16.829716274478315086
0.416000000000000258,-16.676615169056226762
0.417000000000000259,-16.524676457835521859
0.418000000000000260,-16.373915308201151930
0.419000000000000261,-16.224346067624047407
0.420000000000000262,-16.075982270832820831
0.421000000000000263,-15.928836647676742899
0.422000000000000264,-15.782921131639806589
0.423000000000000265,-15.638246868966541925
0.424000000000000266,-15.494824228361441243
0.425000000000000266,-15.352662811224472961
0.426000000000000267,-15.211771462386540321
0.427000000000000268,-15.072158281309549821
0.428000000000000269,-14.933830633716885572
0.429000000000000270,-14.796795163621130342
0.430000000000000271,-14.661057805716684044
0.431000000000000272,-14.526623798106324870
0.432000000000000273,-14.393497695331408437
0.433000000000000274,-14.261683381676766302
0.434000000000000274,-14.131184084722002936
0.435000000000000275,-14.002002389112274017
0.436000000000000276,-13.874140250522376761
0.437000000000000277,-13.747599009788896041
0.438000000000000278,-13.622379407186517852
0.439000000000000279,-13.498481596825095963
0.440000000000000280,-13.375905161145269062
0.441000000000000281,-13.254649125491340556
0.442000000000000282,-13.134711972740996444
0.443000000000000282,-13.016091657972253870
0.444000000000000283,-12.898785623149114699
0.445000000000000284,-12.782790811808064646
0.446000000000000285,-12.668103683728393349
0.447000000000000286,-12.554720229570445866
0.448000000000000287,-12.442635985466152349
0.449000000000000288,-12.331846047547612599
0.450000000000000289,-12.222345086399730718
0.451000000000000290,-12.114127361423966178
0.452000000000000290,-12.007186735100892960
0.453000000000000291,-11.901516687139908512
0.454000000000000292,-11.797110328505281629
0.455000000000000293,-11.693960415308104928
0.456000000000000294,-11.592059362554746116
0.457000000000000295,-11.491399257742655138
0.458000000000000296,-11.391971874295231615
0.459000000000000297,-11.293768684827933058
0.460000000000000298,-11.196780874238386971
0.461000000000000298,-11.100999352613841964
0.462000000000000299,-11.006414767949832978
0.463000000000000300,-10.913017518674310580
0.464000000000000301,-10.820797765972233861
0.465000000000000302,-10.729745445905862766
0.466000000000000303,-10.639850281326525661
0.467000000000000304,-10.551101793574080290
0.468000000000000305,-10.463489313960772975
0.469000000000000306,-10.377001995036406967
0.470000000000000306,-10.291628821632420099
0.471000000000000307,-10.207358621682438127
0.472000000000000308,-10.124180076817749452
0.473000000000000309,-10.042081732735903543
0.474000000000000310,-9.961052009341425872
0.475000000000000311,-9.881079210657727430
0.476000000000000312,-9.802151534509695452
0.477000000000000313,-9.724257081976466210
0.478000000000000314,-9.647383866614598347
0.479000000000000314,-9.571519823451732023
0.480000000000000315,-9.496652817751183306
0.481000000000000316,-9.422770653548267816
0.482000000000000317,-9.349861081959147668
0.483000000000000318,-9.277911809263400755
0.484000000000000319,-9.206910504761546932
0.485000000000000320,-9.136844808409104957
0.486000000000000321,-9.067702338228757597
0.487000000000000322,-8.999470697502474081
0.488000000000000322,-8.932137481745561658
0.489000000000000323,-8.865690285464756570
0.490000000000000324,-8.800116708702592661
0.491000000000000325,-8.735404363370438574
0.492000000000000326,-8.671540879372567900
0.493000000000000327,-8.608513910524029811
0.494000000000000328,-8.546311140264815975
0.495000000000000329,-8.484920287173224551
0.496000000000000330,-8.424329110281185251
0.497000000000000330,-8.364525414194504904
0.498000000000000331,-8.305497054021028447
0.499000000000000332,-8.247231940109749360
0.500000000000000333,-8.189718042603997716
0.501000000000000334,-8.132943395811807363
0.502000000000000335,-8.076896102396720067
0.503000000000000336,-8.021564337392280919
0.504000000000000337,-7.966936352043338943
0.505000000000000338,-7.913000477477662109
0.506000000000000338,-7.859745128210986032
0.507000000000000339,-7.807158805488936260
0.508000000000000340,-7.755230100469153953
0.509000000000000341,-7.703947697246924520
0.510000000000000342,-7.653300375727729588
0.511000000000000343,-7.603277014350020124
0.512000000000000344,-7.553866592661597323
0.513000000000000345,-7.505058193752930151
0.514000000000000346,-7.456841006550793516
0.515000000000000346,-7.409204327975442261
0.516000000000000347,-7.362137564964733372
0.517000000000000348,-7.315630236368486194
0.518000000000000349,-7.269671974716223062
0.519000000000000350,-7.224252527861696471
0.520000000000000351,-7.179361760507330992
0.521000000000000352,-7.134989655611784443
0.522000000000000353,-7.091126315683808912
0.523000000000000353,-7.047761963965504250
0.524000000000000354,-7.004886945508158824
0.525000000000000355,-6.962491728143577419
0.526000000000000356,-6.920566903354108845
0.527000000000000357,-6.879103187044234069
0.528000000000000358,-6.838091420216713345
0.529000000000000359,-6.797522569556190497
0.530000000000000360,-6.757387727923173770
0.531000000000000361,-6.717678114761133301
0.532000000000000361,-6.678385076419599109
0.533000000000000362,-6.639500086395924150
0.534000000000000363,-6.601014745498490655
0.535000000000000364,-6.562920781933920367
0.536000000000000365,-6.525210051320998517
0.537000000000000366,-6.487874536633808198
0.538000000000000367,-6.450906348076621555
0.539000000000000368,-6.414297722893022247
0.540000000000000369,-6.378041025111684803
0.541000000000000369,-6.342128745231160991
0.542000000000000370,-6.306553499846105026
0.543000000000000371,-6.271308031217067480
0.544000000000000372,-6.236385206786268398
0.545000000000000373,-6.201778018641412871
0.546000000000000374,-6.167479582929777493
0.547000000000000375,-6.133483139224618519
0.548000000000000376,-6.099782049846000476
0.549000000000000377,-6.066369799138042751
0.550000000000000377,-6.033239992704501731
0.551000000000000378,-6.000386356604683336
0.552000000000000379,-5.967802736511499617
0.553000000000000380,-5.935483096833543470
0.554000000000000381,-5.903421519802897421
0.555000000000000382,-5.871612204530535450
0.556000000000000383,-5.840049466030851733
0.557000000000000384,-5.808727734217138838
0.558000000000000385,-5.777641552869480890
0.559000000000000385,-5.746785578576758091
0.560000000000000386,-5.716154579654154411
0.561000000000000387,-5.685743435037798221
0.562000000000000388,-5.655547133157867279
0.563000000000000389,-5.625560770791600440
0.564000000000000390,-5.595779551897613224
0.565000000000000391,-5.566198786432792645
0.566000000000000392,-5.536813889153092916
0.567000000000000393,-5.507620378399474603
0.568000000000000393,-5.478613874870182698
0.569000000000000394,-5.449790100380560887
0.570000000000000395,-5.421144876611558416
0.571000000000000396,-5.392674123847960743
0.572000000000000397,-5.364373859707524339
0.573000000000000398,-5.336240197861934931
0.574000000000000399,-5.308269346750700279
0.575000000000000400,-5.280457608288863014
0.576000000000000401,-5.252801376569498082
0.577000000000000401,-5.225297136561937172
0.578000000000000402,-5.197941462806535462
0.579000000000000403,-5.170731018106849319
0.580000000000000404,-5.143662552220064299
0.581000000000000405,-5.116732900546415053
0.582000000000000406,-5.089938982818384083
0.583000000000000407,-5.063277801790384558
0.584000000000000408,-5.036746441929665252
0.585000000000000409,-5.010342068109054914
0.586000000000000409,-4.984061924302255697
0.587000000000000410,-4.957903332282268316
0.588000000000000411,-4.931863690323553762
0.589000000000000412,-4.905940471908516898
0.590000000000000413,-4.880131224438838622
0.591000000000000414,-4.854433567952218809
0.592000000000000415,-4.828845193845003436
0.593000000000000416,-4.803363863601166628
0.594000000000000417,-4.777987407528155650
0.595000000000000417,-4.752713723500001208
0.596000000000000418,-4.727540775708091836
0.597000000000000419,-4.702466593420093766
0.598000000000000420,-4.677489269747271194
0.599000000000000421,-4.652606960420691884
0.600000000000000422,-4.627817882576567676
0.601000000000000423,-4.603120313551114506
0.602000000000000424,-4.578512589685194811
0.603000000000000425,-4.553993105139046982
0.604000000000000425,-4.529560310717394955
0.605000000000000426,-4.505212712705167988
0.606000000000000427,-4.480948871714089066
