# Cu001_BSAI28
# h[nm],U(h)[kJ/mol]
0.149999999999999994,93.942594910056357094
0.150999999999999995,87.353111997141922984
0.151999999999999996,83.113656918577063948
0.152999999999999997,79.375492132063214967
0.153999999999999998,75.483905051013806542
0.154999999999999999,71.337544758986709326
0.156000000000000000,67.045095050451507745
0.157000000000000001,62.756141669312228260
0.158000000000000002,58.589710352638931568
0.159000000000000002,54.614130844836225265
0.160000000000000003,50.851102429299331220
0.161000000000000004,47.288831522467283719
0.162000000000000005,43.896404303792721180
0.163000000000000006,40.635837439309582919
0.164000000000000007,37.470638465354710434
0.165000000000000008,34.370938337923327310
0.166000000000000009,31.315805488517078459
0.167000000000000010,28.293513109723186005
0.168000000000000010,25.300494355201429642
0.169000000000000011,22.339594195327542536
0.170000000000000012,19.418074745872537790
0.171000000000000013,16.545686199165505315
0.172000000000000014,13.732993267953673922
0.173000000000000015,10.990052113249291210
0.174000000000000016,8.325464237037937920
0.175000000000000017,5.745788239791958851
0.176000000000000018,3.255263161232992530
0.177000000000000018,0.855783828285816339
0.178000000000000019,-1.452934798810447514
0.179000000000000020,-3.673064201286774022
0.180000000000000021,-5.808292721804853009
0.181000000000000022,-7.863423807173161251
0.182000000000000023,-9.843976535796063132
0.183000000000000024,-11.755813728059424150
0.184000000000000025,-13.604814687961342301
0.185000000000000026,-15.396602583509746864
0.186000000000000026,-17.136330747086539361
0.187000000000000027,-18.828527742345265494
0.188000000000000028,-20.476997798096011394
0.189000000000000029,-22.084771004054452703
0.190000000000000030,-23.654096331063666270
0.191000000000000031,-25.186469910488085588
0.192000000000000032,-26.682690924603594596
0.193000000000000033,-28.142937778955865014
0.194000000000000034,-29.566857825434720297
0.195000000000000034,-30.953664678428406631
0.196000000000000035,-32.302238033053747301
0.197000000000000036,-33.611221789701161811
0.198000000000000037,-34.879117164866983103
0.199000000000000038,-36.104368290301948718
0.200000000000000039,-37.285438548317003438
0.201000000000000040,-38.420876547458718164
0.202000000000000041,-39.509371203845702780
0.203000000000000042,-40.549795858960173689
0.204000000000000042,-41.541241738385380700
0.205000000000000043,-42.483041344422829866
0.206000000000000044,-43.374782587034822257
0.207000000000000045,-44.216314601405620976
0.208000000000000046,-45.007746286198653252
0.209000000000000047,-45.749438633772612661
0.210000000000000048,-46.441991921202912863
0.211000000000000049,-47.086228797246938882
0.212000000000000050,-47.683174242884199145
0.213000000000000050,-48.234033308348031710
0.214000000000000051,-48.740167443344141418
0.215000000000000052,-49.203070144228298943
0.216000000000000053,-49.624342546266021259
0.217000000000000054,-50.005669493926333757
0.218000000000000055,-50.348796529978066872
0.219000000000000056,-50.655508156856058122
0.220000000000000057,-50.927607642713724090
0.221000000000000058,-51.166898570678682745
0.222000000000000058,-51.375168263619613640
0.223000000000000059,-51.554173158423807877
0.224000000000000060,-51.705626153348838159
0.225000000000000061,-51.831185909224110731
0.226000000000000062,-51.932448049757212516
0.227000000000000063,-52.010938177476347732
0.228000000000000064,-52.068106599352880437
0.229000000000000065,-52.105324639313742807
0.230000000000000066,-52.123882403050025403
0.231000000000000066,-52.124987853153484707
0.232000000000000067,-52.109767049063165700
0.233000000000000068,-52.079265406012574147
0.234000000000000069,-52.034449829596880477
0.235000000000000070,-51.976211587232697298
0.236000000000000071,-51.905369784205447559
0.237000000000000072,-51.822675319785147963
0.238000000000000073,-51.728815207673918053
0.239000000000000073,-51.624417154509117722
0.240000000000000074,-51.510054300009528561
0.241000000000000075,-51.386250032378356423
0.242000000000000076,-51.253482802568825605
0.243000000000000077,-51.112190870810913168
0.244000000000000078,-50.962776928257959241
0.245000000000000079,-50.805612545632797605
0.246000000000000080,-50.641042409257593704
0.247000000000000081,-50.469388312779770445
0.248000000000000081,-50.290952880221311716
0.249000000000000082,-50.106023002655682319
0.250000000000000111,-49.914872976852464603
0.251000000000000112,-49.717767339621858014
0.252000000000000113,-49.514963396360315073
0.253000000000000114,-49.306713446457216321
0.254000000000000115,-49.093266711807167724
0.255000000000000115,-48.874870977706379449
0.256000000000000116,-48.651773957935901649
0.257000000000000117,-48.424224397884003679
0.258000000000000118,-48.192472931171138839
0.259000000000000119,-47.956772706458352218
0.260000000000000120,-47.717379801975923215
0.261000000000000121,-47.474553445844989596
0.262000000000000122,-47.228556060518357640
0.263000000000000123,-46.979653149668124001
0.264000000000000123,-46.728113045637229561
0.265000000000000124,-46.474206535173735233
0.266000000000000125,-46.218206380615846740
0.267000000000000126,-45.960386753014383032
0.268000000000000127,-45.701022592896748620
0.269000000000000128,-45.440388913510744828
0.270000000000000129,-45.178760060461428338
0.271000000000000130,-44.916408940686466167
0.272000000000000131,-44.653606232720740365
0.273000000000000131,-44.390619589195011940
0.274000000000000132,-44.127712841507261032
0.275000000000000133,-43.865145215610823470
0.276000000000000134,-43.603170566888934445
0.277000000000000135,-43.342036641138754760
0.278000000000000136,-43.081984367775966405
0.279000000000000137,-42.823247190498122450
0.280000000000000138,-42.566050439816351059
0.281000000000000139,-42.310610751081675573
0.282000000000000139,-42.057135530898776210
0.283000000000000140,-41.805822474135993616
0.284000000000000141,-41.556859133106954118
0.285000000000000142,-41.310422539917240670
0.286000000000000143,-41.066678882436960407
0.287000000000000144,-40.825783233877700695
0.288000000000000145,-40.587879335518174173
0.289000000000000146,-40.353099431734754887
0.290000000000000147,-40.121564156150370195
0.291000000000000147,-39.893382467415264614
0.292000000000000148,-39.668651632873547896
0.293000000000000149,-39.447457258149100312
0.294000000000000150,-39.229873360498331181
0.295000000000000151,-39.015962483627831148
0.296000000000000152,-38.805775851553462985
0.297000000000000153,-38.599353558988063639
0.298000000000000154,-38.396724795679304520
0.299000000000000155,-38.197908102080518233
0.300000000000000155,-38.002911653718570051
0.301000000000000156,-37.811733571625346428
0.302000000000000157,-37.624362256219384903
0.303000000000000158,-37.440776742059668436
0.304000000000000159,-37.260947070943913673
0.305000000000000160,-37.084834680885528257
0.306000000000000161,-36.912392808575930303
0.307000000000000162,-36.743566903021260828
0.308000000000000163,-36.578295048130819112
0.309000000000000163,-36.416508392131177629
0.310000000000000164,-36.258131581779331043
0.311000000000000165,-36.103083199453166685
0.312000000000000166,-35.951276201304473545
0.313000000000000167,-35.802618354768178222
0.314000000000000168,-35.657012673831921745
0.315000000000000169,-35.514357850579422404
0.316000000000000170,-35.374548681630884062
0.317000000000000171,-35.237476488212038817
0.318000000000000171,-35.103029528689425831
0.319000000000000172,-34.971093402514732418
0.320000000000000173,-34.841551444622133715
0.321000000000000174,-34.714285109421787467
0.322000000000000175,-34.589174343628002362
0.323000000000000176,-34.466097947253025779
0.324000000000000177,-34.344933922185468589
0.325000000000000178,-34.225559807857109718
0.326000000000000179,-34.107853003582484064
0.327000000000000179,-33.991691077231806162
0.328000000000000180,-33.876952059970754760
0.329000000000000181,-33.763514726868564253
0.330000000000000182,-33.651258863239739583
0.331000000000000183,-33.540065516645853450
0.332000000000000184,-33.429817234538326431
0.333000000000000185,-33.320398287576743712
0.334000000000000186,-33.211694878704214773
0.335000000000000187,-33.103595338106089230
0.336000000000000187,-32.995990304219233735
0.337000000000000188,-32.888772890995461751
0.338000000000000189,-32.781838841657247485
0.339000000000000190,-32.675086669213158075
0.340000000000000191,-32.568417784028170558
0.341000000000000192,-32.461736608768319456
0.342000000000000193,-32.354950681059420958
0.343000000000000194,-32.247970744218903860
0.344000000000000195,-32.140710826434954583
0.345000000000000195,-32.033088308781088926
0.346000000000000196,-31.925023982464409755
0.347000000000000197,-31.816442095715597560
0.348000000000000198,-31.707270390734681342
0.349000000000000199,-31.597440131111589778
0.350000000000000200,-31.486886120144106371
0.351000000000000201,-31.375546710476214685
0.352000000000000202,-31.263363805480718582
0.353000000000000203,-31.150282852807883671
0.354000000000000203,-31.036252830518993306
0.355000000000000204,-30.921226226219935995
0.356000000000000205,-30.805159009604846432
0.357000000000000206,-30.688010598813491470
0.358000000000000207,-30.569743820999189410
0.359000000000000208,-30.450324867496760817
0.360000000000000209,-30.329723243970828861
0.361000000000000210,-30.207911715916520023
0.362000000000000210,-30.084866249874369970
0.363000000000000211,-29.960565950711735894
0.364000000000000212,-29.834992995312347830
0.365000000000000213,-29.708132563004717497
0.366000000000000214,-29.579972763049642737
0.367000000000000215,-29.450504559495197299
0.368000000000000216,-29.319721693696770615
0.369000000000000217,-29.187620604787845480
0.370000000000000218,-29.054200348375974983
0.371000000000000218,-28.919462513726688968
0.372000000000000219,-28.783411139686556623
0.373000000000000220,-28.646052629585323501
0.374000000000000221,-28.507395665345455882
0.375000000000000222,-28.367451121016252102
0.376000000000000223,-28.226231975938652852
0.377000000000000224,-28.083753227735865465
0.378000000000000225,-27.940031805314077928
0.379000000000000226,-27.795086482047036469
0.380000000000000226,-27.648937789308384083
0.381000000000000227,-27.501607930504469834
0.382000000000000228,-27.353120695752021874
0.383000000000000229,-27.203501377334088573
0.384000000000000230,-27.052776686059292643
0.385000000000000231,-26.900974668640145637
0.386000000000000232,-26.748124626197256504
0.387000000000000233,-26.594257033988192518
0.388000000000000234,-26.439403462451206650
0.389000000000000234,-26.283596499646755262
0.390000000000000235,-26.126869675171310092
0.391000000000000236,-25.969257385611843603
0.392000000000000237,-25.810794821601245275
0.393000000000000238,-25.651517896529259843
0.394000000000000239,-25.491463176956330017
0.395000000000000240,-25.330667814772326096
0.396000000000000241,-25.169169481135824640
0.397000000000000242,-25.007006302224318972
0.398000000000000242,-24.844216796820539628
0.399000000000000243,-24.680839815754872291
0.400000000000000244,-24.516914483219160559
0.401000000000000245,-24.352480139963041950
0.402000000000000246,-24.187576288379382561
0.403000000000000247,-24.022242539481304391
0.404000000000000248,-23.856518561770208464
0.405000000000000249,-23.690444031989891016
0.406000000000000250,-23.524058587759192562
0.407000000000000250,-23.357401782072130914
0.408000000000000251,-23.190513039651840188
0.409000000000000252,-23.023431615142051498
0.410000000000000253,-22.856196553116998160
0.411000000000000254,-22.688846649888908757
0.412000000000000255,-22.521420417089618837
0.413000000000000256,-22.353956047001410923
0.414000000000000257,-22.186491379609861951
0.415000000000000258,-22.019063871350553541
0.416000000000000258,-21.851710565519503859
0.417000000000000259,-21.684468064316028801
0.418000000000000260,-21.517372502485862640
0.419000000000000261,-21.350459522530819356
0.420000000000000262,-21.183764251450941885
0.421000000000000263,-21.017321278983807531
0.422000000000000264,-20.851164637305327432
0.423000000000000265,-20.685327782155503940
0.424000000000000266,-20.519843575352705756
0.425000000000000266,-20.354744268658809148
0.426000000000000267,-20.190061488958075842
0.427000000000000268,-20.025826224711988033
0.428000000000000269,-19.862068813652278720
0.429000000000000270,-19.698818931674473731
0.430000000000000271,-19.536105582893988242
0.431000000000000272,-19.373957090827293115
0.432000000000000273,-19.212401090660570446
0.433000000000000274,-19.051464522568657856
0.434000000000000274,-18.891173626047088163
0.435000000000000275,-18.731553935220841112
0.436000000000000276,-18.572630275093246155
0.437000000000000277,-18.414426758699214304
0.438000000000000278,-18.256966785127335839
0.439000000000000279,-18.100273038376048618
0.440000000000000280,-17.944367487009003526
0.441000000000000281,-17.789271384576196056
0.442000000000000282,-17.635005270767194929
0.443000000000000282,-17.481588973263900044
0.444000000000000283,-17.329041610260549788
0.445000000000000284,-17.177381593619728051
0.446000000000000285,-17.026626632633114156
0.447000000000000286,-16.876793738357353192
0.448000000000000287,-16.727899228494965911
0.449000000000000288,-16.579958732791943987
0.450000000000000289,-16.432987198923608929
0.451000000000000290,-16.286998898841421379
0.452000000000000290,-16.142007435554056372
0.453000000000000291,-15.998025750316596572
0.454000000000000292,-15.855066130202791541
0.455000000000000293,-15.713140216035384356
0.456000000000000294,-15.572259010651114508
0.457000000000000295,-15.432432887476792871
0.458000000000000296,-15.293671599394205174
0.459000000000000297,-15.155984287872040994
0.460000000000000298,-15.019379492343711391
0.461000000000000298,-14.883865159810653722
0.462000000000000299,-14.749448654651567736
0.463000000000000300,-14.616136768618279262
0.464000000000000301,-14.483935731000096681
0.465000000000000302,-14.352851218938884159
0.466000000000000303,-14.222888367877677851
0.467000000000000304,-14.094051782126538086
0.468000000000000305,-13.966345545529785355
0.469000000000000306,-13.839773232219425125
0.470000000000000306,-13.714337917440257542
0.471000000000000307,-13.590042188432462922
0.472000000000000308,-13.466888155358628154
0.473000000000000309,-13.344877462261965917
0.474000000000000310,-13.224011298043768292
0.475000000000000311,-13.104290407448113243
0.476000000000000312,-12.985715102042950875
0.477000000000000313,-12.868285271186433505
0.478000000000000314,-12.752000392968735554
0.479000000000000314,-12.636859545119463633
0.480000000000000315,-12.522861415871497925
0.481000000000000316,-12.410004314772601575
0.482000000000000317,-12.298286183436420771
0.483000000000000318,-12.187704606225166160
0.484000000000000319,-12.078256820856459797
0.485000000000000320,-11.969939728927528222
0.486000000000000321,-11.862749906349998597
0.487000000000000322,-11.756683613689292045
0.488000000000000322,-11.651736806402627877
0.489000000000000323,-11.547905144970451730
0.490000000000000324,-11.445184004916010068
0.491000000000000325,-11.343568486708539567
0.492000000000000326,-11.243053425545438628
0.493000000000000327,-11.143633401009710227
0.494000000000000328,-11.045302746598554933
0.495000000000000329,-10.948055559119991287
0.496000000000000330,-10.851885707954105342
0.497000000000000330,-10.756786844176197349
0.498000000000000331,-10.662752409539148601
0.499000000000000332,-10.569775645312720513
0.500000000000000333,-10.477849600977586775
0.501000000000000334,-10.386967142772359551
0.502000000000000335,-10.297120962091838692
0.503000000000000336,-10.208303583735238718
0.504000000000000337,-10.120507374003043566
0.505000000000000338,-10.033724548641549390
0.506000000000000338,-9.947947180634312048
0.507000000000000339,-9.863167207839818929
0.508000000000000340,-9.779376440474994325
0.509000000000000341,-9.696566568444252354
0.510000000000000342,-9.614729168513933999
0.511000000000000343,-9.533855711332218874
0.512000000000000344,-9.453937568294653815
0.513000000000000345,-9.374966018255650013
0.514000000000000346,-9.296932254086376801
0.515000000000000346,-9.219827389079629398
0.516000000000000347,-9.143642463202343862
0.517000000000000348,-9.068368449196682946
0.518000000000000349,-8.993996258530323473
0.519000000000000350,-8.920516747197307694
0.520000000000000351,-8.847920721370286401
0.521000000000000352,-8.776198942905477196
0.522000000000000353,-8.705342134701583134
0.523000000000000353,-8.635340985913925849
0.524000000000000354,-8.566186157025452275
0.525000000000000355,-8.497868284775782044
0.526000000000000356,-8.430377986950135849
0.527000000000000357,-8.363705867029588958
0.528000000000000358,-8.297842518704328540
0.529000000000000359,-8.232778530251682270
0.530000000000000360,-8.168504488780643058
0.531000000000000361,-8.105010984344685809
0.532000000000000361,-8.042288613924721830
0.533000000000000362,-7.980327985284020542
0.534000000000000363,-7.919119720697132436
0.535000000000000364,-7.858654460554535426
0.536000000000000365,-7.798922866845134472
0.537000000000000366,-7.739915626518526715
0.538000000000000367,-7.681623454728996769
0.539000000000000368,-7.624037097963319631
0.540000000000000369,-7.567147337054301204
0.541000000000000369,-7.510944990082184525
0.542000000000000370,-7.455420915165921869
0.543000000000000371,-7.400566013146319122
0.544000000000000372,-7.346371230163188493
0.545000000000000373,-7.292827560128500863
0.546000000000000374,-7.239926047097587691
0.547000000000000375,-7.187657787540452148
0.548000000000000376,-7.136013932515308689
0.549000000000000377,-7.084985689746268633
0.550000000000000377,-7.034564325607234991
0.551000000000000378,-6.984741167014130170
0.552000000000000379,-6.935507603227343054
0.553000000000000380,-6.886855087566464029
0.554000000000000381,-6.838775139039273476
0.555000000000000382,-6.791259343887007915
0.556000000000000383,-6.744299357047748522
0.557000000000000384,-6.697886903540028136
0.558000000000000385,-6.652013779768449986
0.559000000000000385,-6.606671854753320972
0.560000000000000386,-6.561853071286099848
0.561000000000000387,-6.517549447012631170
0.562000000000000388,-6.473753075445939587
0.563000000000000389,-6.430456126910408798
0.564000000000000390,-6.387650849419213905
0.565000000000000391,-6.345329569486723109
0.566000000000000392,-6.303484692877675322
0.567000000000000393,-6.262108705294848754
0.568000000000000393,-6.221194173006930228
0.569000000000000394,-6.180733743418272752
0.570000000000000395,-6.140720145582258205
0.571000000000000396,-6.101146190659789248
0.572000000000000397,-6.062004772324675272
0.573000000000000398,-6.023288867117339684
0.574000000000000399,-5.984991534748578701
0.575000000000000400,-5.947105918354750109
0.576000000000000401,-5.909625244706015579
0.577000000000000401,-5.872542824369086034
0.578000000000000402,-5.835852051825917819
0.579000000000000403,-5.799546405549786954
0.580000000000000404,-5.763619448040202542
0.581000000000000405,-5.728064825817988037
0.582000000000000406,-5.692876269381867971
0.583000000000000407,-5.658047593127984776
0.584000000000000408,-5.623572695233525209
0.585000000000000409,-5.589445557505842821
0.586000000000000409,-5.555660245198241753
0.587000000000000410,-5.522210906793720397
0.588000000000000411,-5.489091773757813542
0.589000000000000412,-5.456297160261753376
0.590000000000000413,-5.423821462877072896
0.591000000000000414,-5.391659160242790350
0.592000000000000415,-5.359804812706274291
0.593000000000000416,-5.328253061938847068
0.594000000000000417,-5.296998630527203211
0.595000000000000417,-5.266036321541677445
0.596000000000000418,-5.235361018082286044
0.597000000000000419,-5.204967682803685491
0.598000000000000420,-5.174851357419781195
0.599000000000000421,-5.145007162189147110
0.600000000000000422,-5.115430295381996117
0.601000000000000423,-5.086116032729679937
0.602000000000000424,-5.057059726857570325
0.603000000000000425,-5.028256806702106729
0.604000000000000425,-4.999702776912946511
0.605000000000000426,-4.971393217240903439
