# Cu001_BSAIV5
# h[nm],U(h)[kJ/mol]
0.149999999999999994,126.982744502769691053
0.150999999999999995,123.898816141409525926
0.151999999999999996,119.919981893784694194
0.152999999999999997,115.739271043290344210
0.153999999999999998,111.655036319016105040
0.154999999999999999,107.759287545340868064
0.156000000000000000,104.047959321819206480
0.157000000000000001,100.482022001148365575
0.158000000000000002,97.018560252485883666
0.159000000000000002,93.624241467035986375
0.160000000000000003,90.279059790536422270
0.161000000000000004,86.975214056346857205
0.162000000000000005,83.713992073399694505
0.163000000000000006,80.502259197155481729
0.164000000000000007,77.349353973302953591
0.165000000000000008,74.264716496314647998
0.166000000000000009,71.256304752765601052
0.167000000000000010,68.329714885188892026
0.168000000000000010,65.487862170620914526
0.169000000000000011,62.731067023221022794
0.170000000000000012,60.057402878676121816
0.171000000000000013,57.463186870513240478
0.172000000000000014,54.943521652616183815
0.173000000000000015,52.492823000709066150
0.174000000000000016,50.105290655561063318
0.175000000000000017,47.775298375370695680
0.176000000000000018,45.497693293422372562
0.177000000000000018,43.268004825839113892
0.178000000000000019,41.082570145147087715
0.179000000000000020,38.938587288967966060
0.180000000000000021,36.834108943530281977
0.181000000000000022,34.767990392095939001
0.182000000000000023,32.739804522776019269
0.183000000000000024,30.749735530247939153
0.184000000000000025,28.798461316989993009
0.185000000000000026,26.887032821353994194
0.186000000000000026,25.016756727890044232
0.187000000000000027,23.189086353992383494
0.188000000000000028,21.405524019911641886
0.189000000000000029,19.667536929655405231
0.190000000000000030,17.976487529138491794
0.191000000000000031,16.333578460445639990
0.192000000000000032,14.739811582314953142
0.193000000000000033,13.195960055913364073
0.194000000000000034,11.702552177614075291
0.195000000000000034,10.259865451934462754
0.196000000000000035,8.867929313926682156
0.197000000000000036,7.526534908721481898
0.198000000000000037,6.235250396513166038
0.199000000000000038,4.993440356543247027
0.200000000000000039,3.800287998760757624
0.201000000000000040,2.654819044557738206
0.202000000000000041,1.555926298455630130
0.203000000000000042,0.502394093173742395
0.204000000000000042,-0.507078054634493847
0.205000000000000043,-1.473853095681856518
0.206000000000000044,-2.399335791710818899
0.207000000000000045,-3.284954018759639105
0.208000000000000046,-4.132142194247516720
0.209000000000000047,-4.942326904208554694
0.210000000000000048,-5.716914733803147186
0.211000000000000049,-6.457282244889386291
0.212000000000000050,-7.164767997862389493
0.213000000000000050,-7.840666479915125997
0.214000000000000051,-8.486223777021336900
0.215000000000000052,-9.102634810942612731
0.216000000000000053,-9.691041954105013900
0.217000000000000054,-10.252534833025393368
0.218000000000000055,-10.788151133928320036
0.219000000000000056,-11.298878231217296175
0.220000000000000057,-11.785655469599593204
0.221000000000000058,-12.249376943063470691
0.222000000000000058,-12.690894627851978527
0.223000000000000059,-13.111021741434706556
0.224000000000000060,-13.510536214735470395
0.225000000000000061,-13.890184180097639555
0.226000000000000062,-14.250683392316171094
0.227000000000000063,-14.592726514269546811
0.228000000000000064,-14.916984212042597946
0.229000000000000065,-15.224108016801233489
0.230000000000000066,-15.514732921964519363
0.231000000000000066,-15.789479694370314178
0.232000000000000067,-16.048956887125932269
0.233000000000000068,-16.293762549687908603
0.234000000000000069,-16.524485637456649556
0.235000000000000070,-16.741707128851757602
0.236000000000000071,-16.946000862515997909
0.237000000000000072,-17.137934111051684738
0.238000000000000073,-17.318067910599872050
0.239000000000000073,-17.486957167710215799
0.240000000000000074,-17.645150566401831327
0.241000000000000075,-17.793190299160254852
0.242000000000000076,-17.931611645932541421
0.243000000000000077,-18.060942425047244342
0.244000000000000078,-18.181702339467360474
0.245000000000000079,-18.294402240948876681
0.246000000000000080,-18.399543333585707927
0.247000000000000081,-18.497616336929560532
0.248000000000000081,-18.589100627428361889
0.249000000000000082,-18.674463375375701446
0.250000000000000111,-18.754158692944777442
0.251000000000000112,-18.828626807226491735
0.252000000000000113,-18.898293270535482691
0.253000000000000114,-18.963568218609132998
0.254000000000000115,-19.024845685731371248
0.255000000000000115,-19.082502984275301117
0.256000000000000116,-19.136900154695140941
0.257000000000000117,-19.188379490617265333
0.258000000000000118,-19.237265142389126993
0.259000000000000119,-19.283862801251999031
0.260000000000000120,-19.328459465209441248
0.261000000000000121,-19.371323286670154573
0.262000000000000122,-19.412703501053236721
0.263000000000000123,-19.452830434751469113
0.264000000000000123,-19.491915590154228255
0.265000000000000124,-19.530151804830971685
0.266000000000000125,-19.567713481465450087
0.267000000000000126,-19.604756884704876541
0.268000000000000127,-19.641420500742935218
0.269000000000000128,-19.677825455183608483
0.270000000000000129,-19.714075984531042707
0.271000000000000130,-19.750259956511673209
0.272000000000000131,-19.786449434353578170
0.273000000000000131,-19.822701280119176204
0.274000000000000132,-19.859057792204833248
0.275000000000000133,-19.895547372180679702
0.276000000000000134,-19.932185216239073355
0.277000000000000135,-19.968974026647373421
0.278000000000000136,-20.005904738755511119
0.279000000000000137,-20.042957259285426375
0.280000000000000138,-20.080101211825400753
0.281000000000000139,-20.117296685663763611
0.282000000000000139,-20.154494984318798600
0.283000000000000140,-20.191639370353385630
0.284000000000000141,-20.228665803299968218
0.285000000000000142,-20.265503667762061468
0.286000000000000143,-20.302076488999968973
0.287000000000000144,-20.338302633548526188
0.288000000000000145,-20.374095992652932807
0.289000000000000146,-20.409366646540952672
0.290000000000000147,-20.444021507778181501
0.291000000000000147,-20.477964942172786067
0.292000000000000148,-20.511099365909494452
0.293000000000000149,-20.543325817796134203
0.294000000000000150,-20.574544505700977481
0.295000000000000151,-20.604655326444309082
0.296000000000000152,-20.633558358582089198
0.297000000000000153,-20.661154327684435827
0.298000000000000154,-20.687345043865335015
0.299000000000000155,-20.712033811463630428
0.300000000000000155,-20.735125810908002109
0.301000000000000156,-20.756528452921177319
0.302000000000000157,-20.776151705330978103
0.303000000000000158,-20.793908392857822776
0.304000000000000159,-20.809714470341031500
0.305000000000000160,-20.823489269949064351
0.306000000000000161,-20.835155722993171423
0.307000000000000162,-20.844640557029020300
0.308000000000000163,-20.851874468987961819
0.309000000000000163,-20.856792275128604786
0.310000000000000164,-20.859333038641260316
0.311000000000000165,-20.859440175772036241
0.312000000000000166,-20.857061541361591850
0.313000000000000167,-20.852149494715234823
0.314000000000000168,-20.844660946736780716
0.315000000000000169,-20.834557389269516392
0.316000000000000170,-20.821804907592913025
0.317000000000000171,-20.806374177025027450
0.318000000000000171,-20.788240444577020583
0.319000000000000172,-20.767383496599812531
0.320000000000000173,-20.743787613351805987
0.321000000000000174,-20.717441511403663412
0.322000000000000175,-20.688338274779347614
0.323000000000000176,-20.656475275714196727
0.324000000000000177,-20.621854085889506081
0.325000000000000178,-20.584480378980352100
0.326000000000000179,-20.544363825328971984
0.327000000000000179,-20.501517979529811697
0.328000000000000180,-20.455960161685474930
0.329000000000000181,-20.407711333064941783
0.330000000000000182,-20.356795966866016556
0.331000000000000183,-20.303241914755645325
0.332000000000000184,-20.247080269830988186
0.333000000000000185,-20.188345226614934802
0.334000000000000186,-20.127073938669475694
0.335000000000000187,-20.063306374380125874
0.336000000000000187,-19.997085171435504236
0.337000000000000188,-19.928455490495572633
0.338000000000000189,-19.857464868514064449
0.339000000000000190,-19.784163072151052631
0.340000000000000191,-19.708601951683750286
0.341000000000000192,-19.630835295796408957
0.342000000000000193,-19.550918687602660384
0.343000000000000194,-19.468909362228139059
0.344000000000000195,-19.384866066255188599
0.345000000000000195,-19.298848919307513228
0.346000000000000196,-19.210919278028274704
0.347000000000000197,-19.121139602682426073
0.348000000000000198,-19.029573326592164051
0.349000000000000199,-18.936284728592863047
0.350000000000000200,-18.841338808676852068
0.351000000000000201,-18.744801166972724360
0.352000000000000202,-18.646737886189576727
0.353000000000000203,-18.547215417637790580
0.354000000000000203,-18.446300470921347170
0.355000000000000204,-18.344059907380447783
0.356000000000000205,-18.240560637348792739
0.357000000000000206,-18.135869521275125749
0.358000000000000207,-18.030053274745405645
0.359000000000000208,-17.923178377429866970
0.360000000000000209,-17.815310985966689827
0.361000000000000210,-17.706516850783888373
0.362000000000000210,-17.596861236849932197
0.363000000000000211,-17.486408848334818344
0.364000000000000212,-17.375223757154017790
0.365000000000000213,-17.263369335359708856
0.366000000000000214,-17.150908191336373676
0.367000000000000215,-17.037902109750525881
0.368000000000000216,-16.924411995198749281
0.369000000000000217,-16.810497819491697413
0.370000000000000218,-16.696218572507312672
0.371000000000000218,-16.581632216541329683
0.372000000000000219,-16.466795644079294192
0.373000000000000220,-16.351764638910697869
0.374000000000000221,-16.236593840502358432
0.375000000000000222,-16.121336711545680487
0.376000000000000223,-16.006045508589895832
0.377000000000000224,-15.890771255671495510
0.378000000000000225,-15.775563720848330362
0.379000000000000226,-15.660471395545561890
0.380000000000000226,-15.545541476619948895
0.381000000000000227,-15.430819851047633762
0.382000000000000228,-15.316351083141139355
0.383000000000000229,-15.202178404200125783
0.384000000000000230,-15.088343704501307130
0.385000000000000231,-14.974887527532985132
0.386000000000000232,-14.861849066380093731
0.387000000000000233,-14.749266162166488670
0.388000000000000234,-14.637175304462104464
0.389000000000000234,-14.525611633563730862
0.390000000000000235,-14.414608944559045511
0.391000000000000236,-14.304199693085383416
0.392000000000000237,-14.194415002695597749
0.393000000000000238,-14.085284673745604778
0.394000000000000239,-13.976837193719045871
0.395000000000000240,-13.869099748907107283
0.396000000000000241,-13.762098237362689446
0.397000000000000242,-13.655857283050304218
0.398000000000000242,-13.550400251115089389
0.399000000000000243,-13.445749264196113160
0.400000000000000244,-13.341925219711157524
0.401000000000000245,-13.238947808042670573
0.402000000000000246,-13.136835531555984602
0.403000000000000247,-13.035605724383534820
0.404000000000000248,-12.935274572910728352
0.405000000000000249,-12.835857136901234199
0.406000000000000250,-12.737367371201631983
0.407000000000000250,-12.639818147967435635
0.408000000000000251,-12.543221279354593634
0.409000000000000252,-12.447587540622874869
0.410000000000000253,-12.352926693599226127
0.411000000000000254,-12.259247510451682928
0.412000000000000255,-12.166557797726140322
0.413000000000000256,-12.074864420600487591
0.414000000000000257,-11.984173327312378277
0.415000000000000258,-11.894489573719189579
0.416000000000000258,-11.805817347950247509
0.417000000000000259,-11.718159995113529348
0.418000000000000260,-11.631520042020934369
0.419000000000000261,-11.545899221897624187
0.420000000000000262,-11.461298499043262922
0.421000000000000263,-11.377718093414337375
0.422000000000000264,-11.295157505098300632
0.423000000000000265,-11.213615538652311088
0.424000000000000266,-11.133090327280722676
0.425000000000000266,-11.053579356826833902
0.426000000000000267,-10.975079489556282653
0.427000000000000268,-10.897586987710596418
0.428000000000000269,-10.821097536811041806
0.429000000000000270,-10.745606268694164243
0.430000000000000271,-10.671107784261710805
0.431000000000000272,-10.597596175929036022
0.432000000000000273,-10.525065049757124314
0.433000000000000274,-10.453507547254808685
0.434000000000000274,-10.382916366838557565
0.435000000000000275,-10.313283784938711563
0.436000000000000276,-10.244601676741757146
0.437000000000000277,-10.176861536559421495
0.438000000000000278,-10.110054497816330255
0.439000000000000279,-10.044171352648916695
0.440000000000000280,-9.979202571108997333
0.441000000000000281,-9.915138319966592562
0.442000000000000282,-9.851968481107114428
0.443000000000000282,-9.789682669518965596
0.444000000000000283,-9.728270250868252589
0.445000000000000284,-9.667720358658193902
0.446000000000000285,-9.608021910971162427
0.447000000000000286,-9.549163626792413595
0.448000000000000287,-9.491134041914543573
0.449000000000000288,-9.433921524423004357
0.450000000000000289,-9.377514289762883593
0.451000000000000290,-9.321900415388125083
0.452000000000000290,-9.267067854994710530
0.453000000000000291,-9.213004452339657036
0.454000000000000292,-9.159697954648384766
0.455000000000000293,-9.107136025613081998
0.456000000000000294,-9.055306257985430207
0.457000000000000295,-9.004196185767060712
0.458000000000000296,-8.953793296001752111
0.459000000000000297,-8.904085040173439936
0.460000000000000298,-8.855058845214529128
0.461000000000000298,-8.806702124129264675
0.462000000000000299,-8.759002286237102197
0.463000000000000300,-8.711946747041224626
0.464000000000000301,-8.665522937727699215
0.465000000000000302,-8.619718314300779838
0.466000000000000303,-8.574520366360136592
0.467000000000000304,-8.529916625525908458
0.468000000000000305,-8.485894673517634601
0.469000000000000306,-8.442442149893206960
0.470000000000000306,-8.399546759454171507
0.471000000000000307,-8.357196279323627408
0.472000000000000308,-8.315378565703358760
0.473000000000000309,-8.274081560316485451
0.474000000000000310,-8.233293296542388617
0.475000000000000311,-8.193001905250419270
0.476000000000000312,-8.153195620339127814
0.477000000000000313,-8.113862783987549676
0.478000000000000314,-8.074991851625375361
0.479000000000000314,-8.036571396628623631
0.480000000000000315,-7.998590114747466728
0.481000000000000316,-7.961036828273018173
0.482000000000000317,-7.923900489949533998
0.483000000000000318,-7.887170186638867264
0.484000000000000319,-7.850835142743581407
0.485000000000000320,-7.814884723395422839
0.486000000000000321,-7.779308437415562771
0.487000000000000322,-7.744095940053114191
0.488000000000000322,-7.709237035508259339
0.489000000000000323,-7.674721679246412798
0.490000000000000324,-7.640539980109615215
0.491000000000000325,-7.606682202231397127
0.492000000000000326,-7.573138766761187135
0.493000000000000327,-7.539900253404381303
0.494000000000000328,-7.506957401783973971
0.495000000000000329,-7.474301112629690991
0.496000000000000330,-7.441922448800319501
0.497000000000000330,-7.409812636145110432
0.498000000000000331,-7.377963064209642319
0.499000000000000332,-7.346365286791902705
0.500000000000000333,-7.315011022353814951
0.501000000000000334,-7.283892154293676313
0.502000000000000335,-7.253000731084641828
0.503000000000000336,-7.222328966284488949
0.504000000000000337,-7.191869238421595867
0.505000000000000338,-7.161614090762124185
0.506000000000000338,-7.131556230963241205
0.507000000000000339,-7.101688530617070505
0.508000000000000340,-7.072004024690047963
0.509000000000000341,-7.042495910862197839
0.510000000000000342,-7.013157548770723615
0.511000000000000343,-6.983982459162286105
0.512000000000000344,-6.954964322958150369
0.513000000000000345,-6.926096980236353673
0.514000000000000346,-6.897374429134903728
0.515000000000000346,-6.868790824679938289
0.516000000000000347,-6.840340477542623532
0.517000000000000348,-6.812017852728617484
0.518000000000000349,-6.783817568203589943
0.519000000000000350,-6.755734393458437737
0.520000000000000351,-6.727763248017585518
0.521000000000000352,-6.699899199893700086
0.522000000000000353,-6.672137463992089401
0.523000000000000353,-6.644473400467894919
0.524000000000000354,-6.616902513039218725
0.525000000000000355,-6.589420447259053404
0.526000000000000356,-6.562022988748955399
0.527000000000000357,-6.534706061397280052
0.528000000000000358,-6.507465725524596678
0.529000000000000359,-6.480298176018985501
0.530000000000000360,-6.453199740443726462
0.531000000000000361,-6.426166877119821486
0.532000000000000361,-6.399196173185748293
0.533000000000000362,-6.372284342636705290
0.534000000000000363,-6.345428224345619483
0.535000000000000364,-6.318624780068011759
0.536000000000000365,-6.291871092432764101
0.537000000000000366,-6.265164362920884855
0.538000000000000367,-6.238501909834029746
0.539000000000000368,-6.211881166254807241
0.540000000000000369,-6.185299678000477641
0.541000000000000369,-6.158755101571890656
0.542000000000000370,-6.132245202099231740
0.543000000000000371,-6.105767851286161729
0.544000000000000372,-6.079321025353918273
0.545000000000000373,-6.052902802986786845
0.546000000000000374,-6.026511363280325995
0.547000000000000375,-6.000144983693731504
0.548000000000000376,-5.973802038007588244
0.549000000000000377,-5.947480994288257605
0.550000000000000377,-5.921180412859998299
0.551000000000000378,-5.894898944286021347
0.552000000000000379,-5.868635327359529086
0.553000000000000380,-5.842388387105676095
0.554000000000000381,-5.816157032795493009
0.555000000000000382,-5.789940255972700456
0.556000000000000383,-5.763737128494169859
0.557000000000000384,-5.737546800585024087
0.558000000000000385,-5.711368498908973024
0.559000000000000385,-5.685201524654805993
0.560000000000000386,-5.659045251639572172
0.561000000000000387,-5.632899124429235016
0.562000000000000388,-5.606762656477333628
0.563000000000000389,-5.580635428282267441
0.564000000000000390,-5.554517085563749568
0.565000000000000391,-5.528407337458904003
0.566000000000000392,-5.502305954738533345
0.567000000000000393,-5.476212768043962065
0.568000000000000393,-5.450127666144834571
0.569000000000000394,-5.424050594218304155
0.570000000000000395,-5.397981552149966333
0.571000000000000396,-5.371920592856733734
0.572000000000000397,-5.345867820632124179
0.573000000000000398,-5.319823389514065859
0.574000000000000399,-5.293787501675550899
0.575000000000000400,-5.267760405838307847
0.576000000000000401,-5.241742395709658275
0.577000000000000401,-5.215733808442839958
0.578000000000000402,-5.189735023120737978
0.579000000000000403,-5.163746459263320432
0.580000000000000404,-5.137768575358807155
0.581000000000000405,-5.111801867418625633
0.582000000000000406,-5.085846867556269579
0.583000000000000407,-5.059904142590034404
0.584000000000000408,-5.033974292669732620
0.585000000000000409,-5.008057949927311014
0.586000000000000409,-4.982155777151410447
0.587000000000000410,-4.956268466485850510
0.588000000000000411,-4.930396738151940461
0.589000000000000412,-4.904541339194629757
0.590000000000000413,-4.878703042252360511
0.591000000000000414,-4.852882644350616559
0.592000000000000415,-4.827080965719003025
0.593000000000000416,-4.801298848631770255
0.594000000000000417,-4.775537156271699502
0.595000000000000417,-4.749796771617207369
0.596000000000000418,-4.724078596352440762
0.597000000000000419,-4.698383549800403181
0.598000000000000420,-4.672712567878733125
0.599000000000000421,-4.647066602078156805
0.600000000000000422,-4.621446618463316725
0.601000000000000423,-4.595853596695852694
0.602000000000000424,-4.570288529079532758
0.603000000000000425,-4.544752419627231532
0.604000000000000425,-4.519246283149548127
0.605000000000000426,-4.493771144364878012
0.606000000000000427,-4.468328037030718569
0.607000000000000428,-4.442918003095927659
0.608000000000000429,-4.417542091873841059
