# Cu001_BSAIV6
# h[nm],U(h)[kJ/mol]
0.149999999999999994,73.933896085729685410
0.150999999999999995,68.278037373365336293
0.151999999999999996,64.654765471700699209
0.152999999999999997,61.481493515452292797
0.153999999999999998,58.193269579015478143
0.154999999999999999,54.696958840369141797
0.156000000000000000,51.079252132519435747
0.157000000000000001,47.463036074650005958
0.158000000000000002,43.946740761954515619
0.159000000000000002,40.587168943986611680
0.160000000000000003,37.402758192820627414
0.161000000000000004,34.384464492772295330
0.162000000000000005,31.507660303784643219
0.163000000000000006,28.742068683318013456
0.164000000000000007,26.058770814616060818
0.165000000000000008,23.434356539377311890
0.166000000000000009,20.852740962583190765
0.167000000000000010,18.305300198947723089
0.168000000000000010,15.789942911927202118
0.169000000000000011,13.309624814412671867
0.170000000000000012,10.870683575027324963
0.171000000000000013,8.481249224524155750
0.172000000000000014,6.149882624600360614
0.173000000000000015,3.884515552235770830
0.174000000000000016,1.691709488973010878
0.175000000000000017,-0.423786896730374174
0.176000000000000018,-2.459223258751372931
0.177000000000000018,-4.413827884317830019
0.178000000000000019,-6.288636624613152648
0.179000000000000020,-8.086220974063401457
0.180000000000000021,-9.810359437613339395
0.181000000000000022,-11.465688457958741253
0.182000000000000023,-13.057360967782210892
0.183000000000000024,-14.590732832644084382
0.184000000000000025,-16.071090504512984154
0.185000000000000026,-17.503427338249558431
0.186000000000000026,-18.892271301628056790
0.187000000000000027,-20.241563197566438959
0.188000000000000028,-21.554581915028833805
0.189000000000000029,-22.833911498106079563
0.190000000000000030,-24.081443823343935406
0.191000000000000031,-25.298410256746286962
0.192000000000000032,-26.485435687369118796
0.193000000000000033,-27.642608682626899963
0.194000000000000034,-28.769562077577678139
0.195000000000000034,-29.865559010890230240
0.196000000000000035,-30.929580185591635910
0.197000000000000036,-31.960408910511226566
0.198000000000000037,-32.956711229865433666
0.199000000000000038,-33.917109146703069200
0.200000000000000039,-34.840245573659181844
0.201000000000000040,-35.724840192097374825
0.202000000000000041,-36.569735864705691597
0.203000000000000042,-37.373935627894084632
0.204000000000000042,-38.136630593079772211
0.205000000000000043,-38.857219316450958502
0.206000000000000044,-39.535319362700818147
0.207000000000000045,-40.170771897782422855
0.208000000000000046,-40.763640207370926305
0.209000000000000047,-41.314203059605432600
0.210000000000000048,-41.822943820518631242
0.211000000000000049,-42.290536195380028062
0.212000000000000050,-42.717827415271294456
0.213000000000000050,-43.105819621064320302
0.214000000000000051,-43.455650121288712739
0.215000000000000052,-43.768571120085496773
0.216000000000000053,-44.045929429765209306
0.217000000000000054,-44.289146601988605312
0.218000000000000055,-44.499699834245099339
0.219000000000000056,-44.679103935589090213
0.220000000000000057,-44.828894568538260046
0.221000000000000058,-44.950612923293185474
0.222000000000000058,-45.045791926362554136
0.223000000000000059,-45.115944038361810442
0.224000000000000060,-45.162550655106642239
0.225000000000000061,-45.187053091888301992
0.226000000000000062,-45.190845102637446473
0.227000000000000063,-45.175266863111360749
0.228000000000000064,-45.141600329787159751
0.229000000000000065,-45.091065873288876276
0.230000000000000066,-45.024820076392991552
0.231000000000000066,-44.943954581423632533
0.232000000000000067,-44.849495869661716085
0.233000000000000068,-44.742405855775203349
0.234000000000000069,-44.623583182786433099
0.235000000000000070,-44.493865107317468244
0.236000000000000071,-44.354029870427176263
0.237000000000000072,-44.204799455942456632
0.238000000000000073,-44.046842645499381774
0.239000000000000073,-43.880778287291619222
0.240000000000000074,-43.707178703557872268
0.241000000000000075,-43.526573169938437502
0.242000000000000076,-43.339451407842020103
0.243000000000000077,-43.146267038760264256
0.244000000000000078,-42.947440956950188706
0.245000000000000079,-42.743364583994384986
0.246000000000000080,-42.534402975391415680
0.247000000000000081,-42.320897755481702518
0.248000000000000081,-42.103169862653921030
0.249000000000000082,-41.881522091892726678
0.250000000000000111,-41.656241426318587173
0.251000000000000112,-41.427601153441727888
0.252000000000000113,-41.195862765423314045
0.253000000000000114,-40.961277645724145202
0.254000000000000115,-40.724088547153677098
0.255000000000000115,-40.484530868536140247
0.256000000000000116,-40.242833739016575123
0.257000000000000117,-39.999220920471302065
0.258000000000000118,-39.753911539593545399
0.259000000000000119,-39.507120662032320979
0.260000000000000120,-39.259059721499241391
0.261000000000000121,-39.009936817055724134
0.262000000000000122,-38.759956891883028618
0.263000000000000123,-38.509321806744551964
0.264000000000000123,-38.258230321103710025
0.265000000000000124,-38.006877994482202610
0.266000000000000125,-37.755457020159632009
0.267000000000000126,-37.504156002741787290
0.268000000000000127,-37.253159690485645683
0.269000000000000128,-37.002648672576732736
0.270000000000000129,-36.752799050827469785
0.271000000000000130,-36.503782094514505729
0.272000000000000131,-36.255763886312863065
0.273000000000000131,-36.008904966523296309
0.274000000000000132,-35.763359982036583062
0.275000000000000133,-35.519277345742374052
0.276000000000000134,-35.276798911375358614
0.277000000000000135,-35.036059668105060894
0.278000000000000136,-34.797187458520397740
0.279000000000000137,-34.560302723039043826
0.280000000000000138,-34.325518273189111085
0.281000000000000139,-34.092939095665521165
0.282000000000000139,-33.862662188558836363
0.283000000000000140,-33.634776430689996118
0.284000000000000141,-33.409362484559380846
0.285000000000000142,-33.186492733034711478
0.286000000000000143,-32.966231249555541183
0.287000000000000144,-32.748633801324210424
0.288000000000000145,-32.533747884681460505
0.289000000000000146,-32.321612791626954220
0.290000000000000147,-32.112259706241715662
0.291000000000000147,-31.905711829595485796
0.292000000000000148,-31.701984531579249449
0.293000000000000149,-31.501085527986333545
0.294000000000000150,-31.303015081074409665
0.295000000000000151,-31.107766221773420767
0.296000000000000152,-30.915324991658089004
0.297000000000000153,-30.725670702777279075
0.298000000000000154,-30.538776213423226125
0.299000000000000155,-30.354608217930767466
0.300000000000000155,-30.173127548617930671
0.301000000000000156,-29.994289488012565670
0.302000000000000157,-29.818044089554426535
0.303000000000000158,-29.644336505016223526
0.304000000000000159,-29.473107316949047174
0.305000000000000160,-29.304292874526758794
0.306000000000000161,-29.137825631238360558
0.307000000000000162,-28.973634482956253322
0.308000000000000163,-28.811645104991036703
0.309000000000000163,-28.651780286828220312
0.310000000000000164,-28.493960263329164206
0.311000000000000165,-28.338103041265817694
0.312000000000000166,-28.184124720147060827
0.313000000000000167,-28.031939806381394931
0.314000000000000168,-27.881461519907311697
0.315000000000000169,-27.732602092507704583
0.316000000000000170,-27.585273057107674077
0.317000000000000171,-27.439385527435973700
0.318000000000000171,-27.294850467508485536
0.319000000000000172,-27.151578950467893492
0.320000000000000173,-27.009482406385984632
0.321000000000000174,-26.868472858704201656
0.322000000000000175,-26.728463149054256576
0.323000000000000176,-26.589367150262962269
0.324000000000000177,-26.451099967404434921
0.325000000000000178,-26.313578126818345737
0.326000000000000179,-26.176719753065064822
0.327000000000000179,-26.040444733836487501
0.328000000000000180,-25.904674872886726433
0.329000000000000181,-25.769334031088305892
0.330000000000000182,-25.634348255757096524
0.331000000000000183,-25.499645898424972756
0.332000000000000184,-25.365157721269845581
0.333000000000000185,-25.230816992442093749
0.334000000000000186,-25.096559570551271179
0.335000000000000187,-24.962323978600256424
0.336000000000000187,-24.828051467673532215
0.337000000000000188,-24.693686070703765978
0.338000000000000189,-24.559174646655723251
0.339000000000000190,-24.424466915478987517
0.340000000000000191,-24.289515484190999928
0.341000000000000192,-24.154275864460615253
0.342000000000000193,-24.018706482067656793
0.343000000000000194,-23.882768678619392233
0.344000000000000195,-23.746426705906266363
0.345000000000000195,-23.609647713281198378
0.346000000000000196,-23.472401728445866809
0.347000000000000197,-23.334661632025447631
0.348000000000000198,-23.196403126310617182
0.349000000000000199,-23.057604698540966837
0.350000000000000200,-22.918247579099169542
0.351000000000000201,-22.778315694978761741
0.352000000000000202,-22.637795618881476400
0.353000000000000203,-22.496676514292399673
0.354000000000000203,-22.354950076872846410
0.355000000000000204,-22.212610472501488346
0.356000000000000205,-22.069654272285440300
0.357000000000000206,-21.926080384852546956
0.358000000000000207,-21.781889986225976941
0.359000000000000208,-21.637086447572009718
0.360000000000000209,-21.491675261100617433
0.361000000000000210,-21.345663964387902922
0.362000000000000210,-21.199062063378114829
0.363000000000000211,-21.051880954311926075
0.364000000000000212,-20.904133844816534804
0.365000000000000213,-20.755835674381863498
0.366000000000000214,-20.607003034435983579
0.367000000000000215,-20.457654088222135158
0.368000000000000216,-20.307808490668428192
0.369000000000000217,-20.157487308430802386
0.370000000000000218,-20.006712940279136603
0.371000000000000218,-19.855509037985996201
0.372000000000000219,-19.703900427867161227
0.373000000000000220,-19.551913033113567764
0.374000000000000221,-19.399573797043899503
0.375000000000000222,-19.246910607398227455
0.376000000000000223,-19.093952221783506928
0.377000000000000224,-18.940728194372976390
0.378000000000000225,-18.787268803952997587
0.379000000000000226,-18.633604983402086930
0.380000000000000226,-18.479768250679644126
0.381000000000000227,-18.325790641393162161
0.382000000000000228,-18.171704643006258095
0.383000000000000229,-18.017543130741977109
0.384000000000000230,-17.863339305229338549
0.385000000000000231,-17.709126631934722695
0.386000000000000232,-17.554938782412996545
0.387000000000000233,-17.400809577407905238
0.388000000000000234,-17.246772931825052666
0.389000000000000234,-17.092862801596247380
0.390000000000000235,-16.939113132447808141
0.391000000000000236,-16.785557810581913429
0.392000000000000237,-16.632230615274437469
0.393000000000000238,-16.479165173389347387
0.394000000000000239,-16.326394915805138908
0.395000000000000240,-16.173953035745405771
0.396000000000000241,-16.021872449002106720
0.397000000000000242,-15.870185756036647717
0.398000000000000242,-15.718925205941193468
0.399000000000000243,-15.568122662239579412
0.400000000000000244,-15.417809570504564576
0.401000000000000245,-15.268016927766273838
0.402000000000000246,-15.118775253683883975
0.403000000000000247,-14.970114563450831469
0.404000000000000248,-14.822064342402436310
0.405000000000000249,-14.674653522292539165
0.406000000000000250,-14.527910459204793625
0.407000000000000250,-14.381862913062747111
0.408000000000000251,-14.236538028701710701
0.409000000000000252,-14.091962318464567261
0.410000000000000253,-13.948161646282551729
0.411000000000000254,-13.805161213201595061
0.412000000000000255,-13.662985544314020459
0.413000000000000256,-13.521658477055026992
0.414000000000000257,-13.381203150822832626
0.415000000000000258,-13.241641997881369974
0.416000000000000258,-13.102996735504081727
0.417000000000000259,-12.965288359317128197
0.418000000000000260,-12.828537137800827495
0.419000000000000261,-12.692762607907578598
0.420000000000000262,-12.557983571755343633
0.421000000000000263,-12.424218094355499176
0.422000000000000264,-12.291483502334454414
0.423000000000000265,-12.159796383608641790
0.424000000000000266,-12.029172587973111064
0.425000000000000266,-11.899627228564185089
0.426000000000000267,-11.771174684157298174
0.427000000000000268,-11.643828602261695693
0.428000000000000269,-11.517601902974268668
0.429000000000000270,-11.392506783555433003
0.430000000000000271,-11.268554723690524355
0.431000000000000272,-11.145756491401158428
0.432000000000000273,-11.024122149571397244
0.433000000000000274,-10.903661063054592262
0.434000000000000274,-10.784381906327297429
0.435000000000000275,-10.666292671657652491
0.436000000000000276,-10.549400677756334943
0.437000000000000277,-10.433712578878870048
0.438000000000000278,-10.319234374349122163
0.439000000000000279,-10.205971418474588219
0.440000000000000280,-10.093928430824650633
0.441000000000000281,-9.983109506844256131
0.442000000000000282,-9.873518128775899072
0.443000000000000282,-9.765157176863898059
0.444000000000000283,-9.658028940815611918
0.445000000000000284,-9.552135131495266052
0.446000000000000285,-9.447476892826530914
0.447000000000000286,-9.344054813881440325
0.448000000000000287,-9.241868941133182247
0.449000000000000288,-9.140918790852017750
0.450000000000000289,-9.041203361623621149
0.451000000000000290,-8.942721146970436408
0.452000000000000290,-8.845470148057081872
0.453000000000000291,-8.749447886461840795
0.454000000000000292,-8.654651416996898661
0.455000000000000293,-8.561077340560622417
0.456000000000000294,-8.468721817006294117
0.457000000000000295,-8.377580578011823320
0.458000000000000296,-8.287648939936300252
0.459000000000000297,-8.198921816649413330
0.460000000000000298,-8.111393732320701488
0.461000000000000298,-8.025058834156222787
0.462000000000000299,-7.939910905070772351
0.463000000000000300,-7.855943376284486135
0.464000000000000301,-7.773149339833219429
0.465000000000000302,-7.691521560982771177
0.466000000000000303,-7.611052490537417725
0.467000000000000304,-7.531734277033914182
0.468000000000000305,-7.453558778812748642
0.469000000000000306,-7.376517575958665418
0.470000000000000306,-7.300601982103316345
0.471000000000000307,-7.225803056083085707
0.472000000000000308,-7.152111613445950589
0.473000000000000309,-7.079518237801323721
0.474000000000000310,-7.008013292007579942
0.475000000000000311,-6.937586929192223195
0.476000000000000312,-6.868229103600244301
0.477000000000000313,-6.799929581266257017
0.478000000000000314,-6.732677950506896991
0.479000000000000314,-6.666463632229953085
0.480000000000000315,-6.601275890057126894
0.481000000000000316,-6.537103840257867837
0.482000000000000317,-6.473936461491772043
0.483000000000000318,-6.411762604357574169
0.484000000000000319,-6.350571000746909611
0.485000000000000320,-6.290350273001513948
0.486000000000000321,-6.231088942872532677
0.487000000000000322,-6.172775440281120574
0.488000000000000322,-6.115398111879638776
0.489000000000000323,-6.058945229413083666
0.490000000000000324,-6.003404997880487315
0.491000000000000325,-5.948765563496431596
0.492000000000000326,-5.895015021452796766
0.493000000000000327,-5.842141423481323592
0.494000000000000328,-5.790132785217554812
0.495000000000000329,-5.738977093366975701
0.496000000000000330,-5.688662312674392929
0.497000000000000330,-5.639176392697597073
0.498000000000000331,-5.590507274386760983
0.499000000000000332,-5.542642896470868052
0.500000000000000333,-5.495571201652824200
0.501000000000000334,-5.449280142614965072
0.502000000000000335,-5.403757687836708179
0.503000000000000336,-5.358991827226381233
0.504000000000000337,-5.314970577569152255
0.505000000000000338,-5.271681987793273017
0.506000000000000338,-5.229114144056822511
0.507000000000000339,-5.187255174657200207
0.508000000000000340,-5.146093254765849778
0.509000000000000341,-5.105616610990547422
0.510000000000000342,-5.065813525767840275
0.511000000000000343,-5.026672341588129811
0.512000000000000344,-4.988181465056081620
0.513000000000000345,-4.950329370788970174
0.514000000000000346,-4.913104605155692362
0.515000000000000346,-4.876495789859188967
0.516000000000000347,-4.840491625365005213
0.517000000000000348,-4.805080894178884954
0.518000000000000349,-4.770252463976085266
0.519000000000000350,-4.735995290585369943
0.520000000000000351,-4.702298420830513415
0.521000000000000352,-4.669150995232120849
0.522000000000000353,-4.636542250572743384
0.523000000000000353,-4.604461522328058720
0.524000000000000354,-4.572898246967126212
0.525000000000000355,-4.541841964124482267
0.526000000000000356,-4.511282318647027445
0.527000000000000357,-4.481209062518564323
0.528000000000000358,-4.451612056664822070
0.529000000000000359,-4.422481272641837435
0.530000000000000360,-4.393806794210543210
0.531000000000000361,-4.365578818800353034
0.532000000000000361,-4.337787658864550977
0.533000000000000362,-4.310423743130280982
0.534000000000000363,-4.283477617745903743
0.535000000000000364,-4.256939947328397089
0.536000000000000365,-4.230801515913572786
0.537000000000000366,-4.205053227811782257
0.538000000000000367,-4.179686108371713615
0.539000000000000368,-4.154691304654975603
0.540000000000000369,-4.130060086024011312
0.541000000000000369,-4.105783844645905845
0.542000000000000370,-4.081854095914662750
0.543000000000000371,-4.058262478794373962
0.544000000000000372,-4.035000756085812768
0.545000000000000373,-4.012060814618815918
0.546000000000000374,-3.989434665372891153
0.547000000000000375,-3.967114443528342527
0.548000000000000376,-3.945092408450328492
0.549000000000000377,-3.923360943608035001
0.550000000000000377,-3.901912556431201384
0.551000000000000378,-3.880739878106310492
0.552000000000000379,-3.859835663314475251
0.553000000000000380,-3.839192789913217663
0.554000000000000381,-3.818804258564205689
0.555000000000000382,-3.798663192309011727
0.556000000000000383,-3.778762836094837319
0.557000000000000384,-3.759096556252267796
0.558000000000000385,-3.739657839926889604
0.559000000000000385,-3.720440294466727860
0.560000000000000386,-3.701437646767285372
0.561000000000000387,-3.682643742576067858
0.562000000000000388,-3.664052545758316626
0.563000000000000389,-3.645658137525659814
0.564000000000000390,-3.627454715629448323
0.565000000000000391,-3.609436593520346293
0.566000000000000392,-3.591598199475860120
0.567000000000000393,-3.573934075697340340
0.568000000000000393,-3.556438877378000463
0.569000000000000394,-3.539107371743476449
0.570000000000000395,-3.521934437066391865
0.571000000000000396,-3.504915061656305397
0.572000000000000397,-3.488044342826523092
0.573000000000000398,-3.471317485839033878
0.574000000000000399,-3.454729802828973906
0.575000000000000400,-3.438276711709852940
0.576000000000000401,-3.421953735060807134
0.577000000000000401,-3.405756498997102089
0.578000000000000402,-3.389680732025077248
0.579000000000000403,-3.373722263882646732
0.580000000000000404,-3.357877024366517471
0.581000000000000405,-3.342141042147198426
0.582000000000000406,-3.326510443572801456
0.583000000000000407,-3.310981451462767122
0.584000000000000408,-3.295550383892385859
0.585000000000000409,-3.280213652969155902
0.586000000000000409,-3.264967763601875017
0.587000000000000410,-3.249809312263388428
0.588000000000000411,-3.234734985747841129
0.589000000000000412,-3.219741559923304575
0.590000000000000413,-3.204825898480562874
0.591000000000000414,-3.189984951678914715
0.592000000000000415,-3.175215755089650038
0.593000000000000416,-3.160515428338042998
0.594000000000000417,-3.145881173844512713
0.595000000000000417,-3.131310275565657886
0.596000000000000418,-3.116800097735807018
0.597000000000000419,-3.102348083609769880
0.598000000000000420,-3.087951754207339139
0.599000000000000421,-3.073608707060189182
0.600000000000000422,-3.059316614961713920
0.601000000000000423,-3.045073224720348470
0.602000000000000424,-3.030876355916912068
0.603000000000000425,-3.016723899666468700
0.604000000000000425,-3.002613817385188177
0.605000000000000426,-2.988544139562670843
0.606000000000000427,-2.974512964540195092
0.607000000000000428,-2.960518457295270078
