# Cu001_HIP-AC
# h[nm],U(h)[kJ/mol]
0.149999999999999994,78.916636719992354188
0.150999999999999995,72.028846706504054964
0.151999999999999996,68.109570590683560454
0.152999999999999997,64.892256672933456230
0.153999999999999998,61.536950553092367500
0.154999999999999999,57.878396985203679037
0.156000000000000000,54.018467201484156703
0.157000000000000001,50.121820958517382394
0.158000000000000002,46.326654390761333957
0.159000000000000002,42.716797870884562371
0.160000000000000003,39.323450111860196898
0.161000000000000004,36.138656335557499233
0.162000000000000005,33.131100204999327730
0.163000000000000006,30.259790910931723573
0.164000000000000007,27.484059235512585673
0.165000000000000008,24.769765473751206741
0.166000000000000009,22.092309642662979030
0.167000000000000010,19.437265433488306599
0.168000000000000010,16.799448469398136297
0.169000000000000011,14.181106044299422564
0.170000000000000012,11.589754336873237861
0.171000000000000013,9.036030405418022937
0.172000000000000014,6.531789331364043605
0.173000000000000015,4.088568602149512898
0.174000000000000016,1.716462292458985406
0.175000000000000017,-0.576606497614360558
0.176000000000000018,-2.785259820714274692
0.177000000000000018,-4.906747958428262280
0.178000000000000019,-6.940809582609396955
0.179000000000000020,-8.889375318055380504
0.180000000000000021,-10.756174341476937073
0.181000000000000022,-12.546294404249637822
0.182000000000000023,-14.265735468615137194
0.183000000000000024,-15.920987097188936232
0.184000000000000025,-17.518650525555461428
0.185000000000000026,-19.065118362415400810
0.186000000000000026,-20.566318264583319575
0.187000000000000027,-22.027521735972804606
0.188000000000000028,-23.453215312975320472
0.189000000000000029,-24.847028678160533843
0.190000000000000030,-26.211712516993593169
0.191000000000000031,-27.549158018215592847
0.192000000000000032,-28.860449644335083974
0.193000000000000033,-30.145943006181973089
0.194000000000000034,-31.405360226251616496
0.195000000000000034,-32.637895952694734092
0.196000000000000035,-33.842328093724674432
0.197000000000000036,-35.017128305411915790
0.198000000000000037,-36.160568226810681836
0.199000000000000038,-37.270818373248573607
0.200000000000000039,-38.346037442704201226
0.201000000000000040,-39.384450543587306015
0.202000000000000041,-40.384415505582452965
0.203000000000000042,-41.344476985808668701
0.204000000000000042,-42.263408532591355993
0.205000000000000043,-43.140243124344365810
0.206000000000000044,-43.974292969446096890
0.207000000000000045,-44.765159543965943101
0.208000000000000046,-45.512734967704624012
0.209000000000000047,-46.217195885381897824
0.210000000000000048,-46.878991038745553510
0.211000000000000049,-47.498823696077529632
0.212000000000000050,-48.077630056447375750
0.213000000000000050,-48.616554674603712272
0.214000000000000051,-49.116923865174598518
0.215000000000000052,-49.580217947484293006
0.216000000000000053,-50.008043089509271795
0.217000000000000054,-50.402103405164538685
0.218000000000000055,-50.764173856333222545
0.219000000000000056,-51.096074412234713691
0.220000000000000057,-51.399645825674248556
0.221000000000000058,-51.676727299694164230
0.222000000000000058,-51.929136239993681556
0.223000000000000059,-52.158650218642947038
0.224000000000000060,-52.366991213248788029
0.225000000000000061,-52.555812132739433196
0.226000000000000062,-52.726685596042102588
0.227000000000000063,-52.881094892715040601
0.228000000000000064,-53.020427024536409988
0.229000000000000065,-53.145967703563414375
0.230000000000000066,-53.258898164623360572
0.231000000000000066,-53.360293637947243894
0.232000000000000067,-53.451123320059863886
0.233000000000000068,-53.532251677480516605
0.234000000000000069,-53.604440917668718214
0.235000000000000070,-53.668354464410676030
0.236000000000000071,-53.724561279968781946
0.237000000000000072,-53.773540883334916884
0.238000000000000073,-53.815688922411879958
0.239000000000000073,-53.851323167514728141
0.240000000000000074,-53.880689803902370727
0.241000000000000075,-53.903969911825221573
0.242000000000000076,-53.921286033557656481
0.243000000000000077,-53.932708737864061277
0.244000000000000078,-53.938263103147150446
0.245000000000000079,-53.937935051001673514
0.246000000000000080,-53.931677471935202561
0.247000000000000081,-53.919416094528536121
0.248000000000000081,-53.901055058227029804
0.249000000000000082,-53.876482158236683517
0.250000000000000111,-53.845573738616472781
0.251000000000000112,-53.808199216597678571
0.252000000000000113,-53.764225227424596198
0.253000000000000114,-53.713519384602520290
0.254000000000000115,-53.655953655385836498
0.255000000000000115,-53.591407355656869527
0.256000000000000116,-53.519769772072969261
0.257000000000000117,-53.440942422524756239
0.258000000000000118,-53.354840968590039552
0.259000000000000119,-53.261396795826271955
0.260000000000000120,-53.160558279456516573
0.261000000000000121,-53.052291754309337080
0.262000000000000122,-52.936582208813391048
0.263000000000000123,-52.813433723456547852
0.264000000000000123,-52.682869674438755681
0.265000000000000124,-52.544932723306942535
0.266000000000000125,-52.399684613199084993
0.267000000000000126,-52.247205791966720767
0.268000000000000127,-52.087594881926705170
0.269000000000000128,-51.920968015335724033
0.270000000000000129,-51.747458053912666287
0.271000000000000130,-51.567213709875616701
0.272000000000000131,-51.380398585032502012
0.273000000000000131,-51.187190143486922977
0.274000000000000132,-50.987778632507108512
0.275000000000000133,-50.782365965074333758
0.276000000000000134,-50.571164576587520401
0.277000000000000135,-50.354396267164808876
0.278000000000000136,-50.132291039961785373
0.279000000000000137,-49.905085944925204444
0.280000000000000138,-49.673023936430148240
0.281000000000000139,-49.436352752310526171
0.282000000000000139,-49.195323820894685696
0.283000000000000140,-48.950191201801089846
0.284000000000000141,-48.701210565437378364
0.285000000000000142,-48.448638215382061389
0.286000000000000143,-48.192730157110517553
0.287000000000000144,-47.933741215859043905
0.288000000000000145,-47.671924205801630592
0.289000000000000146,-47.407529152142110718
0.290000000000000147,-47.140802567200651652
0.291000000000000147,-46.871986781095827723
0.292000000000000148,-46.601319327191149000
0.293000000000000149,-46.329032382084449182
0.294000000000000150,-46.055352259571563422
0.295000000000000151,-45.780498957706313945
0.296000000000000152,-45.504685757808438495
0.297000000000000153,-45.228118874034990426
0.298000000000000154,-44.950997151928554274
0.299000000000000155,-44.673511814184323043
0.300000000000000155,-44.395846251735846977
0.301000000000000156,-44.118175858143374057
0.302000000000000157,-43.840667905178477781
0.303000000000000158,-43.563481457430029309
0.304000000000000159,-43.286767323709895550
0.305000000000000160,-43.010668043007662220
0.306000000000000161,-42.735317902732560924
0.307000000000000162,-42.460842986984815184
0.308000000000000163,-42.187361252615588114
0.309000000000000163,-41.914982630864933810
0.310000000000000164,-41.643809152406909391
0.311000000000000165,-41.373935093680778152
0.312000000000000166,-41.105447142444582198
0.313000000000000167,-40.838424580551659915
0.314000000000000168,-40.572939482020373703
0.315000000000000169,-40.309056924542140621
0.316000000000000170,-40.046835212651032521
0.317000000000000171,-39.786326110859128846
0.318000000000000171,-39.527575085145187472
0.319000000000000172,-39.270621551268639848
0.320000000000000173,-39.015499128466196055
0.321000000000000174,-38.762235897173496824
0.322000000000000175,-38.510854659499685226
0.323000000000000176,-38.261373201266465571
0.324000000000000177,-38.013804554506478439
0.325000000000000178,-37.768157259396922143
0.326000000000000179,-37.524435624684208790
0.327000000000000179,-37.282639985732245691
0.328000000000000180,-37.042766959402186444
0.329000000000000181,-36.804809695044298223
0.330000000000000182,-36.568758120951130763
0.331000000000000183,-36.334599185689867795
0.332000000000000184,-36.102317093793907077
0.333000000000000185,-35.871893535356150551
0.334000000000000186,-35.643307909124217758
0.335000000000000187,-35.416537538752194791
0.336000000000000187,-35.191557881916907036
0.337000000000000188,-34.968342732054253474
0.338000000000000189,-34.746864412518846166
0.339000000000000190,-34.527093963011900257
0.340000000000000191,-34.309001318163737437
0.341000000000000192,-34.092555478194533691
0.342000000000000193,-33.877724671611410656
0.343000000000000194,-33.664476509932896420
0.344000000000000195,-33.452778134460423587
0.345000000000000195,-33.242596355145153098
0.346000000000000196,-33.033897781621718082
0.347000000000000197,-32.826648946504235482
0.348000000000000198,-32.620816421059686263
0.349000000000000199,-32.416366923392430976
0.350000000000000200,-32.213267419289834947
0.351000000000000201,-32.011485215893593193
0.352000000000000202,-31.810988048373967985
0.353000000000000203,-31.611744159795517106
0.354000000000000203,-31.413722374372024859
0.355000000000000204,-31.216892164316597302
0.356000000000000205,-31.021223710499715054
0.357000000000000206,-30.826687957132996587
0.358000000000000207,-30.633256660700840968
0.359000000000000208,-30.440902433365380375
0.360000000000000209,-30.249598781071576070
0.361000000000000210,-30.059320136581128224
0.362000000000000210,-29.870041887663290936
0.363000000000000211,-29.681740400670708624
0.364000000000000212,-29.494393039726624295
0.365000000000000213,-29.307978181747824209
0.366000000000000214,-29.122475227525331576
0.367000000000000215,-28.937864609081209721
0.368000000000000216,-28.754127793516659040
0.369000000000000217,-28.571247283562058783
0.370000000000000218,-28.389206615035398329
0.371000000000000218,-28.207990351410529684
0.372000000000000219,-28.027584075691645893
0.373000000000000220,-27.847974379784925958
0.374000000000000221,-27.669148851552950674
0.375000000000000222,-27.491096059731198409
0.376000000000000223,-27.313805536880600755
0.377000000000000224,-27.137267760543853257
0.378000000000000225,-26.961474132767040857
0.379000000000000226,-26.786416958142002187
0.380000000000000226,-26.612089420518998395
0.381000000000000227,-26.438485558532409669
0.382000000000000228,-26.265600240076832250
0.383000000000000229,-26.093429135864198543
0.384000000000000230,-25.921968692186528216
0.385000000000000231,-25.751216103003532254
0.386000000000000232,-25.581169281467413867
0.387000000000000233,-25.411826830992087167
0.388000000000000234,-25.243188015968097915
0.389000000000000234,-25.075252732218920926
0.390000000000000235,-24.908021477288574630
0.391000000000000236,-24.741495320645839229
0.392000000000000237,-24.575675873884144096
0.393000000000000238,-24.410565260992203918
0.394000000000000239,-24.246166088764521618
0.395000000000000240,-24.082481417416975233
0.396000000000000241,-23.919514731467572233
0.397000000000000242,-23.757269910938077828
0.398000000000000242,-23.595751202928145318
0.399000000000000243,-23.434963193609096521
0.400000000000000244,-23.274910780680816202
0.401000000000000245,-23.115599146331170743
0.402000000000000246,-22.957033730733979127
0.403000000000000247,-22.799220206117492893
0.404000000000000248,-22.642164451432766015
0.405000000000000249,-22.485872527647504882
0.406000000000000250,-22.330350653687936813
0.407000000000000250,-22.175605183048851643
0.408000000000000251,-22.021642581088467949
0.409000000000000252,-21.868469403022970710
0.410000000000000253,-21.716092272632145921
0.411000000000000254,-21.564517861686191225
0.412000000000000255,-21.413752870100736914
0.413000000000000256,-21.263804006825630211
0.414000000000000257,-21.114677971470449336
0.415000000000000258,-20.966381436668662275
0.416000000000000258,-20.818921031179911552
0.417000000000000259,-20.672303323728588254
0.418000000000000260,-20.526534807575533392
0.419000000000000261,-20.381621885817835960
0.420000000000000262,-20.237570857410968728
0.421000000000000263,-20.094387903905847281
0.422000000000000264,-19.952079076892431431
0.423000000000000265,-19.810650286140692344
0.424000000000000266,-19.670107288428450687
0.425000000000000266,-19.530455677045161167
0.426000000000000267,-19.391700871959393737
0.427000000000000268,-19.253848110637893143
0.428000000000000269,-19.116902439502542421
0.429000000000000270,-18.980868706011730040
0.430000000000000271,-18.845751551351771269
0.431000000000000272,-18.711555403723615143
0.432000000000000273,-18.578284472209968925
0.433000000000000274,-18.445942741207257853
0.434000000000000274,-18.314533965406859295
0.435000000000000275,-18.184061665309847911
0.436000000000000276,-18.054529123259079881
0.437000000000000277,-17.925939379972540166
0.438000000000000278,-17.798295231561738206
0.439000000000000279,-17.671599227018948142
0.440000000000000280,-17.545853666156766337
0.441000000000000281,-17.421060597984066476
0.442000000000000282,-17.297221819501920947
0.443000000000000282,-17.174338874903408936
0.444000000000000283,-17.052413055161402156
0.445000000000000284,-16.931445397988415635
0.446000000000000285,-16.811436688152678443
0.447000000000000286,-16.692387458135279132
0.448000000000000287,-16.574297989112501739
0.449000000000000288,-16.457168312248860786
0.450000000000000289,-16.340998210285476944
0.451000000000000290,-16.225787219409383511
0.452000000000000290,-16.111534631389481831
0.453000000000000291,-15.998239495964821089
0.454000000000000292,-15.885900623471632898
0.455000000000000293,-15.774516587695449843
0.456000000000000294,-15.664085728935202013
0.457000000000000295,-15.554606157266306354
0.458000000000000296,-15.446075755990232636
0.459000000000000297,-15.338492185258255418
0.460000000000000298,-15.231852885857346536
0.461000000000000298,-15.126155083146780811
0.462000000000000299,-15.021395791133986819
0.463000000000000300,-14.917571816678725227
0.464000000000000301,-14.814679763815002289
0.465000000000000302,-14.712716038180364109
0.466000000000000303,-14.611676851542615196
0.467000000000000304,-14.511558226414233985
0.468000000000000305,-14.412356000745338847
0.469000000000000306,-14.314065832685930246
0.470000000000000306,-14.216683205409086810
0.471000000000000307,-14.120203431986283249
0.472000000000000308,-14.024621660307335702
0.473000000000000309,-13.929932878036694888
0.474000000000000310,-13.836131917599050922
0.475000000000000311,-13.743213461186865487
0.476000000000000312,-13.651172045783244613
0.477000000000000313,-13.560002068193304225
0.478000000000000314,-13.469697790078001276
0.479000000000000314,-13.380253342984422815
0.480000000000000315,-13.291662733366720772
0.481000000000000316,-13.203919847592406001
0.482000000000000317,-13.117018456928718706
0.483000000000000318,-13.030952222504268434
0.484000000000000319,-12.945714700241120809
0.485000000000000320,-12.861299345753229417
0.486000000000000321,-12.777699519206681344
0.487000000000000322,-12.694908490138061552
0.488000000000000322,-12.612919442227134681
0.489000000000000323,-12.531725478020398157
0.490000000000000324,-12.451319623602181252
0.491000000000000325,-12.371694833210312936
0.492000000000000326,-12.292843993793331592
0.493000000000000327,-12.214759929506801228
0.494000000000000328,-12.137435406146025230
0.495000000000000329,-12.060863135513065103
0.496000000000000330,-11.985035779715776272
0.497000000000000330,-11.909945955397057915
0.498000000000000331,-11.835586237892433914
0.499000000000000332,-11.761949165314439014
0.500000000000000333,-11.689027242562271880
0.501000000000000334,-11.616812945255436063
0.502000000000000335,-11.545298723590178724
0.503000000000000336,-11.474477006117766109
0.504000000000000337,-11.404340203443556589
0.505000000000000338,-11.334880711846237133
0.506000000000000338,-11.266090916816478895
0.507000000000000339,-11.197963196514509221
0.508000000000000340,-11.130489925146175523
0.509000000000000341,-11.063663476257207918
0.510000000000000342,-10.997476225945394646
0.511000000000000343,-10.931920555990624067
0.512000000000000344,-10.866988856902723981
0.513000000000000345,-10.802673530887179965
0.514000000000000346,-10.738966994728915694
0.515000000000000346,-10.675861682594252500
0.516000000000000347,-10.613350048751490462
0.517000000000000348,-10.551424570210393483
0.518000000000000349,-10.490077749281045527
0.519000000000000350,-10.429302116052582505
0.520000000000000351,-10.369090230792419760
0.521000000000000352,-10.309434686266502723
0.522000000000000353,-10.250328109981367675
0.523000000000000353,-10.191763166348609460
0.524000000000000354,-10.133732558772742038
0.525000000000000355,-10.076229031663025637
0.526000000000000356,-10.019245372370310321
0.527000000000000357,-9.962774413049748645
0.528000000000000358,-9.906809032450235364
0.529000000000000359,-9.851342157631670204
0.530000000000000360,-9.796366765610967420
0.531000000000000361,-9.741875884937856611
0.532000000000000361,-9.687862597201517545
0.533000000000000362,-9.634320038469153857
0.534000000000000363,-9.581241400657617646
0.535000000000000364,-9.528619932839106355
0.536000000000000365,-9.476448942482196713
0.537000000000000366,-9.424721796629276227
0.538000000000000367,-9.373431923011564137
0.539000000000000368,-9.322572811102897816
0.540000000000000369,-9.272138013113430333
0.541000000000000369,-9.222121144924496861
0.542000000000000370,-9.172515886965808107
0.543000000000000371,-9.123315985036120068
0.544000000000000372,-9.074515251068692834
0.545000000000000373,-9.026107563842673542
0.546000000000000374,-8.978086869641602519
0.547000000000000375,-8.930447182860255850
0.548000000000000376,-8.883182586561122918
0.549000000000000377,-8.836287232981565154
0.550000000000000377,-8.789755343992919023
0.551000000000000378,-8.743581211512806206
0.552000000000000379,-8.697759197871727466
0.553000000000000380,-8.652283736135174763
0.554000000000000381,-8.607149330382421581
0.555000000000000382,-8.562350555943181618
0.556000000000000383,-8.517882059593230082
0.557000000000000384,-8.473738559710188412
0.558000000000000385,-8.429914846390568428
0.559000000000000385,-8.386405781529246539
0.560000000000000386,-8.343206298862394732
0.561000000000000387,-8.300311403975044300
0.562000000000000388,-8.257716174274367660
0.563000000000000389,-8.215415758929648149
0.564000000000000390,-8.173405378780156383
0.565000000000000391,-8.131680326211801813
0.566000000000000392,-8.090235965003774510
0.567000000000000393,-8.049067730146019173
0.568000000000000393,-8.008171127628651575
0.569000000000000394,-7.967541734204251824
0.570000000000000395,-7.927175197124064709
0.571000000000000396,-7.887067233848952696
0.572000000000000397,-7.847213631736164707
0.573000000000000398,-7.807610247702733375
0.574000000000000399,-7.768253007866500859
0.575000000000000400,-7.729137907165570809
0.576000000000000401,-7.690261008957132383
0.577000000000000401,-7.651618444596498314
0.578000000000000402,-7.613206412997135075
0.579000000000000403,-7.575021180172617719
0.580000000000000404,-7.537059078761214614
0.581000000000000405,-7.499316507533957399
0.582000000000000406,-7.461789930886936872
0.583000000000000407,-7.424475878318586020
0.584000000000000408,-7.387370943892731745
0.585000000000000409,-7.350471785688069914
0.586000000000000409,-7.313775125234816876
0.587000000000000410,-7.277277746939249781
0.588000000000000411,-7.240976497496736108
0.589000000000000412,-7.204868285294031338
0.590000000000000413,-7.168950079801321706
0.591000000000000414,-7.133218910954835401
0.592000000000000415,-7.097671868530484929
0.593000000000000416,-7.062306101509186362
0.594000000000000417,-7.027118817434464759
0.595000000000000417,-6.992107281762900861
0.596000000000000418,-6.957268817207901357
0.597000000000000419,-6.922600803077481935
0.598000000000000420,-6.888100674606397078
0.599000000000000421,-6.853765922283296064
0.600000000000000422,-6.819594091173269312
0.601000000000000423,-6.785582780236373068
0.602000000000000424,-6.751729641642493895
0.603000000000000425,-6.718032380083089450
0.604000000000000425,-6.684488752080190110
0.605000000000000426,-6.651096565293133089
