# Cu001_ACETALDEHYDE-AC
# h[nm],U(h)[kJ/mol]
0.149999999999999994,97.767575433372442717
0.150999999999999995,96.440314482817541375
0.151999999999999996,93.188480116028785005
0.152999999999999997,89.535077980020020050
0.153999999999999998,86.091218451468918715
0.154999999999999999,83.009054896596055073
0.156000000000000000,80.240112123879157480
0.157000000000000001,77.673615431956761768
0.158000000000000002,75.203283676481319731
0.159000000000000002,72.753439481973543934
0.160000000000000003,70.283580036797928869
0.161000000000000004,67.782885971344128961
0.162000000000000005,65.261223358645224835
0.163000000000000006,62.740110538225636105
0.164000000000000007,60.245253196995939504
0.165000000000000008,57.801171280838254063
0.166000000000000009,55.427861333761470064
0.167000000000000010,53.139165234630091561
0.168000000000000010,50.942424636066320431
0.169000000000000011,48.839008448537285290
0.170000000000000012,46.825357625785343885
0.171000000000000013,44.894266685541325046
0.172000000000000014,43.036197422971447679
0.173000000000000015,41.240488128686891400
0.174000000000000016,39.496377478030169073
0.175000000000000017,37.793805336553958796
0.176000000000000018,36.123983921330861335
0.177000000000000018,34.479753759180610473
0.178000000000000019,32.855751646699602020
0.179000000000000020,31.248424258264890341
0.180000000000000021,29.655922881405547997
0.181000000000000022,28.077913428939979212
0.182000000000000023,26.515332545361552263
0.183000000000000024,24.970116185750931947
0.184000000000000025,23.444922159351893498
0.185000000000000026,21.942863261137905084
0.186000000000000026,20.467263069721859381
0.187000000000000027,19.021442452840041426
0.188000000000000028,17.608541384614731840
0.189000000000000029,16.231377868027227152
0.190000000000000030,14.892343552326954281
0.191000000000000031,13.593333990204669703
0.192000000000000032,12.335710328500253397
0.193000000000000033,11.120288496430619674
0.194000000000000034,9.947351573107344080
0.195000000000000034,8.816680910965768447
0.196000000000000035,7.727601699116220857
0.197000000000000036,6.679038913488194673
0.198000000000000037,5.669579970026514815
0.199000000000000038,4.697540832304563096
0.200000000000000039,3.761032792663364432
0.201000000000000040,2.858027620365625410
0.202000000000000041,1.986419231544080288
0.203000000000000042,1.144080469621730822
0.204000000000000042,0.328913981651168696
0.205000000000000043,-0.461103470307148711
0.206000000000000044,-1.227883616031244074
0.207000000000000045,-1.973196294502554959
0.208000000000000046,-2.698645958579819926
0.209000000000000047,-3.405654771254296609
0.210000000000000048,-4.095451864869343872
0.211000000000000049,-4.769068237515396547
0.212000000000000050,-5.427336695171049996
0.213000000000000050,-6.070896209783769315
0.214000000000000051,-6.700200048195614322
0.215000000000000052,-7.315527030636218342
0.216000000000000053,-7.916995296725973574
0.217000000000000054,-8.504577988183836368
0.218000000000000055,-9.078120297697889640
0.219000000000000056,-9.637357380040814547
0.220000000000000057,-10.181932672209427437
0.221000000000000058,-10.711416222188557157
0.222000000000000058,-11.225322679277004667
0.223000000000000059,-11.723128651442211279
0.224000000000000060,-12.204289185852957189
0.225000000000000061,-12.668253176771369084
0.226000000000000062,-13.114477549777092236
0.227000000000000063,-13.542440112444177558
0.228000000000000064,-13.951650998843405205
0.229000000000000065,-14.341662668484758569
0.230000000000000066,-14.712078449532862479
0.231000000000000066,-15.062559641402504695
0.232000000000000067,-15.392831213314064343
0.233000000000000068,-15.702686153258900603
0.234000000000000069,-15.991988536324850401
0.235000000000000070,-16.260675392723737076
0.236000000000000071,-16.508757464419552718
0.237000000000000072,-16.736318945262212310
0.238000000000000073,-16.943516303267124101
0.239000000000000073,-17.130576285422073113
0.240000000000000074,-17.297793205418415141
0.241000000000000075,-17.445525613242558904
0.242000000000000076,-17.574192442866568342
0.243000000000000077,-17.684268730561885974
0.244000000000000078,-17.776280991830102352
0.245000000000000079,-17.850802339781701278
0.246000000000000080,-17.908447422163288110
0.247000000000000081,-17.949867248281812238
0.248000000000000081,-17.975743970928935056
0.249000000000000082,-17.986785682182439672
0.250000000000000111,-17.983721275750443880
0.251000000000000112,-17.967295422408504635
0.252000000000000113,-17.938263699129326056
0.253000000000000114,-17.897387906771797361
0.254000000000000115,-17.845431605728443003
0.255000000000000115,-17.783155893758241461
0.256000000000000116,-17.711315445383394973
0.257000000000000117,-17.630654827718693411
0.258000000000000118,-17.541905103442303471
0.259000000000000119,-17.445780727810365818
0.260000000000000120,-17.342976743164907560
0.261000000000000121,-17.234166271278525073
0.262000000000000122,-17.119998301113177774
0.263000000000000123,-17.001095767130610881
0.264000000000000123,-16.878053911166631451
0.265000000000000124,-16.751438919052411336
0.266000000000000125,-16.621786821619046748
0.267000000000000126,-16.489602648435706556
0.268000000000000127,-16.355359821591129332
0.269000000000000128,-16.219499776012106906
0.270000000000000129,-16.082431792203909282
0.271000000000000130,-15.944533026876069215
0.272000000000000131,-15.806148726666545912
0.273000000000000131,-15.667592610078447279
0.274000000000000132,-15.529147402781225296
0.275000000000000133,-15.391065511585221515
0.276000000000000134,-15.253569822660050903
0.277000000000000135,-15.116854609919453623
0.278000000000000136,-14.981086539923987644
0.279000000000000137,-14.846405760146092589
0.280000000000000138,-14.712927057988864021
0.281000000000000139,-14.580741078538050459
0.282000000000000139,-14.449915589648933079
0.283000000000000140,-14.320496783615038083
0.284000000000000141,-14.192510605327521844
0.285000000000000142,-14.065964097504988217
0.286000000000000143,-13.940846754247147032
0.287000000000000144,-13.817131874836206862
0.288000000000000145,-13.694777910373513663
0.289000000000000146,-13.573729796489718780
0.290000000000000147,-13.453920266002493022
0.291000000000000147,-13.335271136012840643
0.292000000000000148,-13.217694564526775380
0.293000000000000149,-13.101094272261557094
0.294000000000000150,-12.985366725843192626
0.295000000000000151,-12.870402279123274170
0.296000000000000152,-12.756086269836966807
0.297000000000000153,-12.642300069290753228
0.298000000000000154,-12.528922083206079918
0.299000000000000155,-12.415828702255542026
0.300000000000000155,-12.302895201209754106
0.301000000000000156,-12.189996585967291409
0.302000000000000157,-12.077008388066920119
0.303000000000000158,-11.963807406581423720
0.304000000000000159,-11.850272397566923743
0.305000000000000160,-11.736284711490325705
0.306000000000000161,-11.621728879283125480
0.307000000000000162,-11.506493147871568183
0.308000000000000163,-11.390469966212879882
0.309000000000000163,-11.273556423026445117
0.310000000000000164,-11.155654637547410601
0.311000000000000165,-11.036672104750334000
0.312000000000000166,-10.916521996592964072
0.313000000000000167,-10.795123420915789580
0.314000000000000168,-10.672401639703336329
0.315000000000000169,-10.548288248468811190
0.316000000000000170,-10.422721318566258830
0.317000000000000171,-10.295645504264300030
0.318000000000000171,-10.167012116434065661
0.319000000000000172,-10.036779164712367418
0.320000000000000173,-9.904911369999723547
0.321000000000000174,-9.771380149142988358
0.322000000000000175,-9.636163573634716428
0.323000000000000176,-9.499246304136809371
0.324000000000000177,-9.360619502605034725
0.325000000000000178,-9.220280723754735064
0.326000000000000179,-9.078233787567072000
0.327000000000000179,-8.934488634489575531
0.328000000000000180,-8.789061164935880299
0.329000000000000181,-8.641973064638136748
0.330000000000000182,-8.493251617350143334
0.331000000000000183,-8.342929506343875090
0.332000000000000184,-8.191044606083195845
0.333000000000000185,-8.037639765399786640
0.334000000000000186,-7.882762583436074166
0.335000000000000187,-7.726465179559449226
0.336000000000000187,-7.568803958391552733
0.337000000000000188,-7.409839371035644717
0.338000000000000189,-7.249635673525189006
0.339000000000000190,-7.088260683457133560
0.340000000000000191,-6.925785535714517493
0.341000000000000192,-6.762284438125867325
0.342000000000000193,-6.597834427851507755
0.343000000000000194,-6.432515129232498907
0.344000000000000195,-6.266408513783454204
0.345000000000000195,-6.099598662958610085
0.346000000000000196,-5.932171534269675917
0.347000000000000197,-5.764214731284870830
0.348000000000000198,-5.595817277991671723
0.349000000000000199,-5.427069397959742858
0.350000000000000200,-5.258062298697490533
0.351000000000000201,-5.088887961553226091
0.352000000000000202,-4.919638937472382345
0.353000000000000203,-4.750408148883932036
0.354000000000000203,-4.581288697952671463
0.355000000000000204,-4.412373681399885506
0.356000000000000205,-4.243756012062013916
0.357000000000000206,-4.075528247326138498
0.358000000000000207,-3.907782424551910161
0.359000000000000208,-3.740609903562319261
0.360000000000000209,-3.574101216259744973
0.361000000000000210,-3.408345923399862532
0.362000000000000210,-3.243432478533300412
0.363000000000000211,-3.079448099104189485
0.364000000000000212,-2.916478644675222665
0.365000000000000213,-2.754608502230797118
0.366000000000000214,-2.593920478493384252
0.367000000000000215,-2.434495699172882333
0.368000000000000216,-2.276413515054843906
0.369000000000000217,-2.119751414820755464
0.370000000000000218,-1.964584944481990947
0.371000000000000218,-1.810987633298696498
0.372000000000000219,-1.659030926045587107
0.373000000000000220,-1.508784121478246698
0.374000000000000221,-1.360314316846436888
0.375000000000000222,-1.213686358294295609
0.376000000000000223,-1.068962796981949515
0.377000000000000224,-0.926203850758380631
0.378000000000000225,-0.785467371211494791
0.379000000000000226,-0.646808815918128555
0.380000000000000226,-0.510281225714354636
0.381000000000000227,-0.375935206804512423
0.382000000000000228,-0.243818917526275047
0.383000000000000229,-0.113978059588412048
0.384000000000000230,0.013544126402434853
0.385000000000000231,0.138706861308914853
0.386000000000000232,0.261471823906586187
0.387000000000000233,0.381803143585094928
0.388000000000000234,0.499667389486469993
0.389000000000000234,0.615033556258072212
0.390000000000000235,0.727873046595704065
0.391000000000000236,0.838159650749412677
0.392000000000000237,0.945869523162243375
0.393000000000000238,1.050981156408610229
0.394000000000000239,1.153475352596097903
0.395000000000000240,1.253335192390843345
0.396000000000000241,1.350546001823094810
0.397000000000000242,1.445095317025802961
0.398000000000000242,1.536972847055178004
0.399000000000000243,1.626170434938150722
0.400000000000000244,1.712682017087847175
0.401000000000000245,1.796503581223471979
0.402000000000000246,1.877633122927476750
0.403000000000000247,1.956070600968233375
0.404000000000000248,2.031817891512219365
0.405000000000000249,2.104878741345541648
0.406000000000000250,2.175258720220293096
0.407000000000000250,2.242965172436907739
0.408000000000000251,2.308007167769579038
0.409000000000000252,2.370395451837278067
0.410000000000000253,2.430142396019123296
0.411000000000000254,2.487261947008263974
0.412000000000000255,2.541769576094676353
0.413000000000000256,2.593682228262990552
0.414000000000000257,2.643018271187658641
0.415000000000000258,2.689797444203664956
0.416000000000000258,2.734040807327301259
0.417000000000000259,2.775770690397639129
0.418000000000000260,2.815010642405650909
0.419000000000000261,2.851785381074420478
0.420000000000000262,2.886120742750145407
0.421000000000000263,2.918043632660398234
0.422000000000000264,2.947581975592632908
0.423000000000000265,2.974764667042754329
0.424000000000000266,2.999621524880202283
0.425000000000000266,3.022183241573198842
0.426000000000000267,3.042481337014604659
0.427000000000000268,3.060548111985991415
0.428000000000000269,3.076416602294777203
0.429000000000000270,3.090120533616562248
0.430000000000000271,3.101694277072061023
0.431000000000000272,3.111172805565744159
0.432000000000000273,3.118591650910611079
0.433000000000000274,3.123986861761401279
0.434000000000000274,3.127394962376090604
0.435000000000000275,3.128852912223591964
0.436000000000000276,3.128398066453291104
0.437000000000000277,3.126068137240193945
0.438000000000000278,3.121901156017533818
0.439000000000000279,3.115935436606832365
0.440000000000000280,3.108209539253698583
0.441000000000000281,3.098762235576052237
0.442000000000000282,3.087632474429706786
0.443000000000000282,3.074859348695005323
0.444000000000000283,3.060482062986489282
0.445000000000000284,3.044539902286458322
0.446000000000000285,3.027072201501905369
0.447000000000000286,3.008118315943026477
0.448000000000000287,2.987717592720503745
0.449000000000000288,2.965909343057580472
0.450000000000000289,2.942732815511900579
0.451000000000000290,2.918227170101244106
0.452000000000000290,2.892431453326304691
0.453000000000000291,2.865384574082792124
0.454000000000000292,2.837125280454448450
0.455000000000000293,2.807692137377740593
0.456000000000000294,2.777123505168375139
0.457000000000000295,2.745457518899142801
0.458000000000000296,2.712732068617926373
0.459000000000000297,2.678984780394366716
0.460000000000000298,2.644252998182891723
0.461000000000000298,2.608573766489761248
0.462000000000000299,2.571983813830894583
0.463000000000000300,2.534519536967330566
0.464000000000000301,2.496216985904504249
0.465000000000000302,2.457111849641469004
0.466000000000000303,2.417239442655653825
0.467000000000000304,2.376634692108895219
0.468000000000000305,2.335332125759860933
0.469000000000000306,2.293365860568147951
0.470000000000000306,2.250769591975065875
0.471000000000000307,2.207576583845928031
0.472000000000000308,2.163819659058741962
0.473000000000000309,2.119531190724018632
0.474000000000000310,2.074743094020455647
0.475000000000000311,2.029486818631043299
0.476000000000000312,1.983793341764552354
0.477000000000000313,1.937693161746814940
0.478000000000000314,1.891216292166805646
0.479000000000000314,1.844392256562183530
0.480000000000000315,1.797250083629269302
0.481000000000000316,1.749818302942379944
0.482000000000000317,1.702124941167653560
0.483000000000000318,1.654197518756510776
0.484000000000000319,1.606063047104139496
0.485000000000000320,1.557748026158414900
0.486000000000000321,1.509278442464915937
0.487000000000000322,1.460679767633816795
0.488000000000000322,1.411976957214561290
0.489000000000000323,1.363194449964560295
0.490000000000000324,1.314356167498104133
0.491000000000000325,1.265485514302103542
0.492000000000000326,1.216605378105315438
0.493000000000000327,1.167738130588042766
0.494000000000000328,1.118905628419361253
0.495000000000000329,1.070129214609306878
0.496000000000000330,1.021429720163534061
0.497000000000000330,0.972827466028299503
0.498000000000000331,0.924342265313706890
0.499000000000000332,0.875993425783641144
0.500000000000000333,0.827799752600673067
0.501000000000000334,0.779779551314790376
0.502000000000000335,0.731950631084893777
0.503000000000000336,0.684330308122248043
0.504000000000000337,0.636935409345296022
0.505000000000000338,0.589782276235558234
0.506000000000000338,0.542886768884503490
0.507000000000000339,0.496264270221523696
0.508000000000000340,0.449929690413421457
0.509000000000000341,0.403897471426069299
0.510000000000000342,0.358181591739012206
0.511000000000000343,0.312795571204192491
0.512000000000000344,0.267752476040063747
0.513000000000000345,0.223064923952718541
0.514000000000000346,0.178745089375721616
0.515000000000000346,0.134804708820766839
0.516000000000000347,0.091255086331328117
0.517000000000000348,0.048107099031795816
0.518000000000000349,0.005371202764753480
0.519000000000000350,-0.036942562190630010
0.520000000000000351,-0.078824565326110763
0.521000000000000352,-0.120265580044308026
0.522000000000000353,-0.161256777737621981
0.523000000000000353,-0.201789721812406203
0.524000000000000354,-0.241856361664348263
0.525000000000000355,-0.281449026611051201
0.526000000000000356,-0.320560419787349837
0.527000000000000357,-0.359183612008888875
0.528000000000000358,-0.397312035609309389
0.529000000000000359,-0.434939478255930545
0.530000000000000360,-0.472060076749082735
0.531000000000000361,-0.508668310809629043
0.532000000000000361,-0.544758996859355138
0.533000000000000362,-0.580327281798502792
0.534000000000000363,-0.615368636784761280
0.535000000000000364,-0.649878851017687942
0.536000000000000365,-0.683854025532484977
0.537000000000000366,-0.717290567006836688
0.538000000000000367,-0.750185181584403837
0.539000000000000368,-0.782534868718372523
0.540000000000000369,-0.814336915038362585
0.541000000000000369,-0.845588888243787196
0.542000000000000370,-0.876288631026694631
0.543000000000000371,-0.906434255026917213
0.544000000000000372,-0.936024134822265319
0.545000000000000373,-0.965056901956329538
0.546000000000000374,-0.993531439006402062
0.547000000000000375,-1.021446873693794721
0.548000000000000376,-1.048802573038833286
0.549000000000000377,-1.075598137562570056
0.550000000000000377,-1.101833395537263227
0.551000000000000378,-1.127508397287452446
0.552000000000000379,-1.152623409543422239
0.553000000000000380,-1.177178909848717092
0.554000000000000381,-1.201175581023270045
0.555000000000000382,-1.224614305683615179
0.556000000000000383,-1.247496160821541356
0.557000000000000384,-1.269822412442481951
0.558000000000000385,-1.291594510264814533
0.559000000000000385,-1.312814082481195799
0.560000000000000386,-1.333482930582896797
0.561000000000000387,-1.353603024248149378
0.562000000000000388,-1.373176496295289484
0.563000000000000389,-1.392205637701537047
0.564000000000000390,-1.410692892688059752
0.565000000000000391,-1.428640853872024774
0.566000000000000392,-1.446052257486152737
0.567000000000000393,-1.462929978666297481
0.568000000000000393,-1.479277026807479301
0.569000000000000394,-1.495096540988781753
0.570000000000000395,-1.510391785467374737
0.571000000000000396,-1.525166145241957372
0.572000000000000397,-1.539423121685833840
0.573000000000000398,-1.553166328249758088
0.574000000000000399,-1.566399486234626437
0.575000000000000400,-1.579126420634139771
0.576000000000000401,-1.591351056047351387
0.577000000000000401,-1.603077412661139123
0.578000000000000402,-1.614309602302478996
0.579000000000000403,-1.625051824560400870
0.580000000000000404,-1.635308362977470953
0.581000000000000405,-1.645083581310602838
0.582000000000000406,-1.654381919860949735
0.583000000000000407,-1.663207891872608091
0.584000000000000408,-1.671566079999856402
0.585000000000000409,-1.679461132842531956
0.586000000000000409,-1.686897761549254415
0.587000000000000410,-1.693880736488055261
0.588000000000000411,-1.700414883983993430
0.589000000000000412,-1.706505083123348587
0.590000000000000413,-1.712156262623868441
0.591000000000000414,-1.717373397770624921
0.592000000000000415,-1.722161507416938964
0.593000000000000416,-1.726525651049835020
0.594000000000000417,-1.730470925919500802
0.595000000000000417,-1.734002464232136331
0.596000000000000418,-1.737125430405638271
0.597000000000000419,-1.739845018387507380
0.598000000000000420,-1.742166449034333597
0.599000000000000421,-1.744094967552265896
0.600000000000000422,-1.745635840997785904
0.601000000000000423,-1.746794355838131363
0.602000000000000424,-1.747575815570716617
0.603000000000000425,-1.747985538400874450
0.604000000000000425,-1.748028854977172530
0.605000000000000426,-1.747711106183689633
0.606000000000000427,-1.747037640988486684
0.607000000000000428,-1.746013814347572524
0.608000000000000429,-1.744644985163668505
0.609000000000000430,-1.742936514299008977
0.610000000000000431,-1.740893762641492426
0.611000000000000432,-1.738522089223400569
0.612000000000000433,-1.735826849391991500
0.613000000000000433,-1.732813393031215510
0.614000000000000434,-1.729487062833789723
