# Cu001_SULFAMIDHYD-AC
# h[nm],U(h)[kJ/mol]
0.149999999999999994,102.416435279821513404
0.150999999999999995,99.895211291430896949
0.151999999999999996,96.416326226770891594
0.152999999999999997,92.716302529808586996
0.153999999999999998,89.128656118424999022
0.154999999999999999,85.763009660573587212
0.156000000000000000,82.617066199073263988
0.157000000000000001,79.643124032105674814
0.158000000000000002,76.784744629323796516
0.159000000000000002,73.994562509649568938
0.160000000000000003,71.240779777638607584
0.161000000000000004,68.507372518004913786
0.162000000000000005,65.791239650774087977
0.163000000000000006,63.098271733049912768
0.164000000000000007,60.439466601285857905
0.165000000000000008,57.827660182874105033
0.166000000000000009,55.275089501871704556
0.167000000000000010,52.791797126165889154
0.168000000000000010,50.384775063401868067
0.169000000000000011,48.057697462795353260
0.170000000000000012,45.811081427929956078
0.171000000000000013,43.642727259104546533
0.172000000000000014,41.548312473840852022
0.173000000000000015,39.522040904511996473
0.174000000000000016,37.557274733853589055
0.175000000000000017,35.647101109729220525
0.176000000000000018,33.784804863785673490
0.177000000000000018,31.964234544073907074
0.178000000000000019,30.180060649580127574
0.179000000000000020,28.427933082491357197
0.180000000000000021,26.704549988007009631
0.181000000000000022,25.007652931117064554
0.182000000000000023,23.335964330859514604
0.183000000000000024,21.689082736403157980
0.184000000000000025,20.067350309105318473
0.185000000000000026,18.471705113440581414
0.186000000000000026,16.903528784659904716
0.187000000000000027,15.364498032052361864
0.188000000000000028,13.856446396016284694
0.189000000000000029,12.381240799710695910
0.190000000000000030,10.940675779049708893
0.191000000000000031,9.536386866408719243
0.192000000000000032,8.169783450308930384
0.193000000000000033,6.842000526975558827
0.194000000000000034,5.553868081327095751
0.195000000000000034,4.305896359802249052
0.196000000000000035,3.098274997576639045
0.197000000000000036,1.930883809466156675
0.198000000000000037,0.803313019291154617
0.199000000000000038,-0.285109239281035431
0.200000000000000039,-1.335284189787474096
0.201000000000000040,-2.348306310795015950
0.202000000000000041,-3.325425519466931767
0.203000000000000042,-4.268009070998552978
0.204000000000000042,-5.177504373991439479
0.205000000000000043,-6.055403695710944945
0.206000000000000044,-6.903211515884462024
0.207000000000000045,-7.722415088178159692
0.208000000000000046,-8.514458588019818919
0.209000000000000047,-9.280721065911608392
0.210000000000000048,-10.022498287590201116
0.211000000000000049,-10.740988426251483645
0.212000000000000050,-11.437281476814098014
0.213000000000000050,-12.112352186602397097
0.214000000000000051,-12.767056239315277111
0.215000000000000052,-13.402129387923668702
0.216000000000000053,-14.018189205316431867
0.217000000000000054,-14.615739107176391798
0.218000000000000055,-15.195174297835013277
0.219000000000000056,-15.756789294931639489
0.220000000000000057,-16.300786700916422234
0.221000000000000058,-16.827286907241280289
0.222000000000000058,-17.336338439104309828
0.223000000000000059,-17.827928673612305488
0.224000000000000060,-18.301994691141423743
0.225000000000000061,-18.758434047586241888
0.226000000000000062,-19.197115283322354173
0.227000000000000063,-19.617888012431162537
0.228000000000000064,-20.020592462534331446
0.229000000000000065,-20.405068361061740490
0.230000000000000066,-20.771163087626405286
0.231000000000000066,-21.118739034193104942
0.232000000000000067,-21.447680134762904913
0.233000000000000068,-21.757897544282329250
0.234000000000000069,-22.049334462401361634
0.235000000000000070,-22.321970111574245266
0.236000000000000071,-22.575822890879457816
0.237000000000000072,-22.810952736919531958
0.238000000000000073,-23.027462731354269465
0.239000000000000073,-23.225500001145743312
0.240000000000000074,-23.405255962586625884
0.241000000000000075,-23.566965963779779258
0.242000000000000076,-23.710908382581116882
0.243000000000000077,-23.837403238248498383
0.244000000000000078,-23.946810375294191431
0.245000000000000079,-24.039527277448325293
0.246000000000000080,-24.115986568331646112
0.247000000000000081,-24.176653253525337561
0.248000000000000081,-24.222021756321545638
0.249000000000000082,-24.252612796642118553
0.250000000000000111,-24.268970159515454554
0.251000000000000112,-24.271657396183968558
0.252000000000000113,-24.261254497452508616
0.253000000000000114,-24.238354575342789587
0.254000000000000115,-24.203560585550533801
0.255000000000000115,-24.157482119656087605
0.256000000000000116,-24.100732292559275294
0.257000000000000117,-24.033924747228947894
0.258000000000000118,-23.957670795605199743
0.259000000000000119,-23.872576711391094051
0.260000000000000120,-23.779241187538733726
0.261000000000000121,-23.678252968483114671
0.262000000000000122,-23.570188664617820251
0.263000000000000123,-23.455610754142799834
0.264000000000000123,-23.335065775249496767
0.265000000000000124,-23.209082709641815967
0.266000000000000125,-23.078171556620539207
0.267000000000000126,-22.942822095378485159
0.268000000000000127,-22.803502831759125513
0.269000000000000128,-22.660660124513661628
0.270000000000000129,-22.514717485043675538
0.271000000000000130,-22.366075043728031346
0.272000000000000131,-22.215109175195255631
0.273000000000000131,-22.062172274304806763
0.274000000000000132,-21.907592674133233857
0.275000000000000133,-21.751674696913600116
0.276000000000000134,-21.594698828638048127
0.277000000000000135,-21.436922007894899878
0.278000000000000136,-21.278578019462347726
0.279000000000000137,-21.119877983212056449
0.280000000000000138,-20.961010928978460299
0.281000000000000139,-20.802144448214111350
0.282000000000000139,-20.643425413471113927
0.283000000000000140,-20.484980757014231045
0.284000000000000141,-20.326918300176853194
0.285000000000000142,-20.169327625409444238
0.286000000000000143,-20.012280983334491680
0.287000000000000144,-19.855834227508122325
0.288000000000000145,-19.700027769989901572
0.289000000000000146,-19.544887551234712220
0.290000000000000147,-19.390426018239903527
0.291000000000000147,-19.236643105302700718
0.292000000000000148,-19.083527212164661080
0.293000000000000149,-18.931056174737584286
0.294000000000000150,-18.779198224016873553
0.295000000000000151,-18.627912929191833058
0.296000000000000152,-18.477152121354425418
0.297000000000000153,-18.326860794589059367
0.298000000000000154,-18.176977981592049360
0.299000000000000155,-18.027437601322155558
0.300000000000000155,-17.878169276519589204
0.301000000000000156,-17.729099119251287675
0.302000000000000157,-17.580150482943253110
0.303000000000000158,-17.431244679647353024
0.304000000000000159,-17.282301661558534533
0.305000000000000160,-17.133240666049914580
0.306000000000000161,-16.983980823727858223
0.307000000000000162,-16.834441729226128359
0.308000000000000163,-16.684543974658790688
0.309000000000000163,-16.534209645836032365
0.310000000000000164,-16.383362781515010909
0.311000000000000165,-16.231929796110982522
0.312000000000000166,-16.079839866432074302
0.313000000000000167,-15.927025283124677912
0.314000000000000168,-15.773421767626837564
0.315000000000000169,-15.618968755524011982
0.316000000000000170,-15.463609647286620685
0.317000000000000171,-15.307292027441770088
0.318000000000000171,-15.149967853293839326
0.319000000000000172,-14.991593614360336773
0.320000000000000173,-14.832130463731667547
0.321000000000000174,-14.671544322596355769
0.322000000000000175,-14.509805959198214254
0.323000000000000176,-14.346891043508708918
0.324000000000000177,-14.182780178907503199
0.325000000000000178,-14.017458912167445106
0.326000000000000179,-13.850917723037431628
0.327000000000000179,-13.683151994708135035
0.328000000000000180,-13.514161966432254758
0.329000000000000181,-13.343952669553809542
0.330000000000000182,-13.172533848178114013
0.331000000000000183,-12.999919865690250376
0.332000000000000184,-12.826129598300221701
0.333000000000000185,-12.651186316762681017
0.334000000000000186,-12.475117557385459577
0.335000000000000187,-12.297954983405528395
0.336000000000000187,-12.119734237774320462
0.337000000000000188,-11.940494788355497491
0.338000000000000189,-11.760279766499134979
0.339000000000000190,-11.579135799915718508
0.340000000000000191,-11.397112840732384953
0.341000000000000192,-11.214263989573190372
0.342000000000000193,-11.030645316462884153
0.343000000000000194,-10.846315679313295988
0.344000000000000195,-10.661336540709621445
0.345000000000000195,-10.475771783673579307
0.346000000000000196,-10.289687527039969694
0.347000000000000197,-10.103151941043474693
0.348000000000000198,-9.916235063674028183
0.349000000000000199,-9.729008618320364121
0.350000000000000200,-9.541545833184970959
0.351000000000000201,-9.353921262916802704
0.352000000000000202,-9.166210612873438635
0.353000000000000203,-8.978490566390153305
0.354000000000000203,-8.790838615400417666
0.355000000000000204,-8.603332894720699286
0.356000000000000205,-8.416052020281941992
0.357000000000000206,-8.229074931560592887
0.358000000000000207,-8.042480738434035104
0.359000000000000208,-7.856348572658591323
0.360000000000000209,-7.670757444142251913
0.361000000000000210,-7.485786102160235878
0.362000000000000210,-7.301512901638025355
0.363000000000000211,-7.118015674604720289
0.364000000000000212,-6.935371606898674379
0.365000000000000213,-6.753657120187725127
0.366000000000000214,-6.572947759347895769
0.367000000000000215,-6.393318085227095438
0.368000000000000216,-6.214841572804037817
0.369000000000000217,-6.037590514737447123
0.370000000000000218,-5.861635930286442253
0.371000000000000218,-5.687047479569814712
0.372000000000000219,-5.513893383119774505
0.373000000000000220,-5.342240346674447693
0.374000000000000221,-5.172153491143189008
0.375000000000000222,-5.003696287669110454
0.376000000000000223,-4.836930497704742038
0.377000000000000224,-4.671916118008876850
0.378000000000000225,-4.508711330465610345
0.379000000000000226,-4.347372456620130166
0.380000000000000226,-4.187953916820408296
0.381000000000000227,-4.030508193848673315
0.382000000000000228,-3.875085800922506873
0.383000000000000229,-3.721735253941498733
0.384000000000000230,-3.570503047852105816
0.385000000000000231,-3.421433637001099815
0.386000000000000232,-3.274569419345408683
0.387000000000000233,-3.129950724384768623
0.388000000000000234,-2.987615804682288712
0.389000000000000234,-2.847600830837341057
0.390000000000000235,-2.709939889774472643
0.391000000000000236,-2.574664986212500395
0.392000000000000237,-2.441806047177620176
0.393000000000000238,-2.311390929425567897
0.394000000000000239,-2.183445429638267932
0.395000000000000240,-2.057993297261906385
0.396000000000000241,-1.935056249854605115
0.397000000000000242,-1.814653990813506201
0.398000000000000242,-1.696804229353051863
0.399000000000000243,-1.581522702608125330
0.400000000000000244,-1.468823199737804064
0.401000000000000245,-1.358717587908316649
0.402000000000000246,-1.251215840035637239
0.403000000000000247,-1.146326064171105497
0.404000000000000248,-1.044054534416212432
0.405000000000000249,-0.944405723255280050
0.406000000000000250,-0.847382335197770509
0.407000000000000250,-0.752985341624882620
0.408000000000000251,-0.661214016737994292
0.409000000000000252,-0.572065974509781472
0.410000000000000253,-0.485537206541544364
0.411000000000000254,-0.401622120733789889
0.412000000000000255,-0.320313580679859544
0.413000000000000256,-0.241602945695788662
0.414000000000000257,-0.165480111402459440
0.415000000000000258,-0.091933550779446607
0.416000000000000258,-0.020950355612858466
0.417000000000000259,0.047483721737344851
0.418000000000000260,0.113384226322035819
0.419000000000000261,0.176767958408190207
0.420000000000000262,0.237652931170126092
0.421000000000000263,0.296058328329373399
0.422000000000000264,0.352004461802842172
0.423000000000000265,0.405512729416161843
0.424000000000000266,0.456605572736120735
0.425000000000000266,0.505306435073650029
0.426000000000000267,0.551639719705917186
0.427000000000000268,0.595630748363500162
0.428000000000000269,0.637305720026109634
0.429000000000000270,0.676691670067797513
0.430000000000000271,0.713816429790085416
0.431000000000000272,0.748708586379192242
0.432000000000000273,0.781397443321120599
0.433000000000000274,0.811912981306166293
0.434000000000000274,0.840285819652218935
0.435000000000000275,0.866547178274149843
0.436000000000000276,0.890728840224454976
0.437000000000000277,0.912863114828439293
0.438000000000000278,0.932982801435233711
0.439000000000000279,0.951121153804124986
0.440000000000000280,0.967311845143899895
0.441000000000000281,0.981588933821212040
0.442000000000000282,0.993986829752205425
0.443000000000000282,1.004540261490266762
0.444000000000000283,1.013284244020976388
0.445000000000000284,1.020254047274090414
0.446000000000000285,1.025485165360920714
0.447000000000000286,1.029013286543993821
0.448000000000000287,1.030874263944844937
0.449000000000000288,1.031104086994343527
0.450000000000000289,1.029738853628879180
0.451000000000000290,1.026814743234652827
0.452000000000000290,1.022367990341181976
0.453000000000000291,1.016434859064144991
0.454000000000000292,1.009051618296759711
0.455000000000000293,1.000254517647958696
0.456000000000000294,0.990079764124742412
0.457000000000000295,0.978563499555385574
0.458000000000000296,0.965741778749195534
0.459000000000000297,0.951650548388099926
0.460000000000000298,0.936325626644313957
0.461000000000000298,0.919802683518092246
0.462000000000000299,0.902117221888553589
0.463000000000000300,0.883304559270404077
0.464000000000000301,0.863399810268573376
0.465000000000000302,0.842437869722503452
0.466000000000000303,0.820453396531177881
0.467000000000000304,0.797480798149850512
0.468000000000000305,0.773554215748703422
0.469000000000000306,0.748707510023636336
0.470000000000000306,0.722974247648907165
0.471000000000000307,0.696387688361036039
0.472000000000000308,0.668980772663238854
0.473000000000000309,0.640786110139328291
0.474000000000000310,0.611835968365902039
0.475000000000000311,0.582162262411258569
0.476000000000000312,0.551796544909689435
0.477000000000000313,0.520769996699214865
0.478000000000000314,0.489113418011087653
0.479000000000000314,0.456857220199066105
0.480000000000000315,0.424031417996506454
0.481000000000000316,0.390665622289186387
0.482000000000000317,0.356789033391803234
0.483000000000000318,0.322430434816013078
0.484000000000000319,0.287618187517921453
0.485000000000000320,0.252380224612873238
0.486000000000000321,0.216744046545504554
0.487000000000000322,0.180736716702994377
0.488000000000000322,0.144384857459478072
0.489000000000000323,0.107714646639782058
0.490000000000000324,0.070751814390504625
0.491000000000000325,0.033521640446733433
0.492000000000000326,-0.003951048217314313
0.493000000000000327,-0.041641879365288827
0.494000000000000328,-0.079526937114868329
0.495000000000000329,-0.117582763204378798
0.496000000000000330,-0.155786357921157859
0.497000000000000330,-0.194115180702711193
0.498000000000000331,-0.232547150421695825
0.499000000000000332,-0.271060645365405306
0.500000000000000333,-0.309634502920590193
0.501000000000000334,-0.348248018974017803
0.502000000000000335,-0.386880947039128897
0.503000000000000336,-0.425513497118997996
0.504000000000000337,-0.464126334315622557
0.505000000000000338,-0.502700577195358878
0.506000000000000338,-0.541217795920206468
0.507000000000000339,-0.579660010154436911
0.508000000000000340,-0.618009686755894072
0.509000000000000341,-0.656249737261061949
0.510000000000000342,-0.694363515172952361
0.511000000000000343,-0.732334813060505407
0.512000000000000344,-0.770147859478167329
0.513000000000000345,-0.807787315713990650
0.514000000000000346,-0.845238272374586819
0.515000000000000346,-0.882486245814865233
0.516000000000000347,-0.919517174420500849
0.517000000000000348,-0.956317414750789241
0.518000000000000349,-0.992873737549385682
0.519000000000000350,-1.029173323630195203
0.520000000000000351,-1.065203759645677595
0.521000000000000352,-1.100953033744344278
0.522000000000000353,-1.136409531124349614
0.523000000000000353,-1.171562029489750856
0.524000000000000354,-1.206399694415777546
0.525000000000000355,-1.240912074629483719
0.526000000000000356,-1.275089097211720590
0.527000000000000357,-1.308921062726405404
0.528000000000000358,-1.342398640282864486
0.529000000000000359,-1.375512862536630632
0.530000000000000360,-1.408255120634321456
0.531000000000000361,-1.440617159107651535
0.532000000000000361,-1.472591070721767981
0.533000000000000362,-1.504169291282733800
0.534000000000000363,-1.535344594408994068
0.535000000000000364,-1.566110086271378155
0.536000000000000365,-1.596459200306107773
0.537000000000000366,-1.626385691905113173
0.538000000000000367,-1.655883633087818607
0.539000000000000368,-1.684947407158398081
0.540000000000000369,-1.713571703352394948
0.541000000000000369,-1.741751511476402614
0.542000000000000370,-1.769482116544452310
0.543000000000000371,-1.796759093414521447
0.544000000000000372,-1.823578301428546045
0.545000000000000373,-1.849935879059076083
0.546000000000000374,-1.875828238565747652
0.547000000000000375,-1.901252060664422316
0.548000000000000376,-1.926204289211927989
0.549000000000000377,-1.950682125909040110
0.550000000000000377,-1.974683025024371208
0.551000000000000378,-1.998204688141626661
0.552000000000000379,-2.021245058932608085
0.553000000000000380,-2.043802317958268500
0.554000000000000381,-2.065874877499961570
0.555000000000000382,-2.087461376422975690
0.556000000000000383,-2.108560675074313995
0.557000000000000384,-2.129171850216587725
0.558000000000000385,-2.149294189999827687
0.559000000000000385,-2.168927188972886722
0.560000000000000386,-2.188070543136011903
0.561000000000000387,-2.206724145036143447
0.562000000000000388,-2.224888078906333444
0.563000000000000389,-2.242562615850652641
0.564000000000000390,-2.259748209075813641
0.565000000000000391,-2.276445489170757064
0.566000000000000392,-2.292655259435270931
0.567000000000000393,-2.308378491258681553
0.568000000000000393,-2.323616319549604903
0.569000000000000394,-2.338370038217670199
0.570000000000000395,-2.352641095708004393
0.571000000000000396,-2.366431090589283137
0.572000000000000397,-2.379741767196047686
0.573000000000000398,-2.392575011325942747
0.574000000000000399,-2.404932845992411750
0.575000000000000400,-2.416817427233474369
0.576000000000000401,-2.428231039976959771
0.577000000000000401,-2.439176093962691638
0.578000000000000402,-2.449655119721973584
0.579000000000000403,-2.459670764614684479
0.580000000000000404,-2.469225788924278131
0.581000000000000405,-2.478323062010911126
0.582000000000000406,-2.486965558522877373
0.583000000000000407,-2.495156354666496323
0.584000000000000408,-2.502898624534573901
0.585000000000000409,-2.510195636493449456
0.586000000000000409,-2.517050749628716666
0.587000000000000410,-2.523467410249562892
0.588000000000000411,-2.529449148451681229
0.589000000000000412,-2.534999574738713957
0.590000000000000413,-2.540122376702049767
0.591000000000000414,-2.544821315758897473
0.592000000000000415,-2.549100223948417288
0.593000000000000416,-2.552963000785729797
0.594000000000000417,-2.556413610173570383
0.595000000000000417,-2.559456077371325300
0.596000000000000418,-2.562094486021186945
0.597000000000000419,-2.564332975231120137
0.598000000000000420,-2.566175736714301880
0.599000000000000421,-2.567627011984712659
0.600000000000000422,-2.568691089608493350
0.601000000000000423,-2.569372302510692041
0.602000000000000424,-2.569675025336985552
0.603000000000000425,-2.569603671870004824
0.604000000000000425,-2.569162692499727729
0.605000000000000426,-2.568356571747600015
0.606000000000000427,-2.567189825843846140
0.607000000000000428,-2.565667000357499283
0.608000000000000429,-2.563792667878699749
0.609000000000000430,-2.561571425752682707
0.610000000000000431,-2.559007893865038685
0.611000000000000432,-2.556106712477607346
