# Cu001_NITROUSACID-AC
# h[nm],U(h)[kJ/mol]
0.149999999999999994,102.180906593263443938
0.150999999999999995,102.245926941534008847
0.151999999999999996,99.349623446978554853
0.152999999999999997,95.835021189634176153
0.153999999999999998,92.600889808391528391
0.154999999999999999,89.844821939184470239
0.156000000000000000,87.474393644803157599
0.157000000000000001,85.319050437397507380
0.158000000000000002,83.226808058723207751
0.159000000000000002,81.097888985703491471
0.160000000000000003,78.886667308464595294
0.161000000000000004,76.590063889227721461
0.162000000000000005,74.232283036841806734
0.163000000000000006,71.850785364397438570
0.164000000000000007,69.485485555637353627
0.165000000000000008,67.171572451804848924
0.166000000000000009,64.935561238571295917
0.167000000000000010,62.793872427257937829
0.168000000000000010,60.753179439354241254
0.169000000000000011,58.811845758430386866
0.170000000000000012,56.961906113660063511
0.171000000000000013,55.191190014710471701
0.172000000000000014,53.485317326314614661
0.173000000000000015,51.829404458899411168
0.174000000000000016,50.209403620042316163
0.175000000000000017,48.613057901166882857
0.176000000000000018,47.030495139481146794
0.177000000000000018,45.454507499467112552
0.178000000000000019,43.880575481997937004
0.179000000000000020,42.306698071671398509
0.180000000000000021,40.733087866581620062
0.181000000000000022,39.161783584111098833
0.182000000000000023,37.596224024621960780
0.183000000000000024,36.040818641618088236
0.184000000000000025,34.500541155149676342
0.185000000000000026,32.980564686528715868
0.186000000000000026,31.485949982848445927
0.187000000000000027,30.021392564258427171
0.188000000000000028,28.591030071669884194
0.189000000000000029,27.198307646360735390
0.190000000000000030,25.845896718552999971
0.191000000000000031,24.535660979188929076
0.192000000000000032,23.268662410894418002
0.193000000000000033,22.045199917857814853
0.194000000000000034,20.864873188680043370
0.195000000000000034,19.726664834881130872
0.196000000000000035,18.629034471219874547
0.197000000000000036,17.570019159813718090
0.198000000000000037,16.547335461925463562
0.199000000000000038,15.558479177635154755
0.200000000000000039,14.600819665842891482
0.201000000000000040,13.671686397662293544
0.202000000000000041,12.768446087029314384
0.203000000000000042,11.888569352542935675
0.204000000000000042,11.029686389373091870
0.205000000000000043,10.189631569263745803
0.206000000000000044,9.366477243306082556
0.207000000000000045,8.558557301696220421
0.208000000000000046,7.764481254077358230
0.209000000000000047,6.983139741130176326
0.210000000000000048,6.213702481003017475
0.211000000000000049,5.455609701126451050
0.212000000000000050,4.708558114778250037
0.213000000000000050,3.972482479796367816
0.214000000000000051,3.247533730775216121
0.215000000000000052,2.534054611919491329
0.216000000000000053,1.832553660725320999
0.217000000000000054,1.143678307331879918
0.218000000000000055,0.468187764557010055
0.219000000000000056,-0.193073707546802698
0.220000000000000057,-0.839202668757998871
0.221000000000000058,-1.469261090286106519
0.222000000000000058,-2.082299345873473762
0.223000000000000059,-2.677377353595750797
0.224000000000000060,-3.253583689234624821
0.225000000000000061,-3.810052554781746981
0.226000000000000062,-4.345978541146026330
0.227000000000000063,-4.860629172499241868
0.228000000000000064,-5.353355261087477501
0.229000000000000065,-5.823599136067629800
0.230000000000000066,-6.270900838391210819
0.231000000000000066,-6.694902396417717227
0.232000000000000067,-7.095350314293341398
0.233000000000000068,-7.472096417703278703
0.234000000000000069,-7.825097209921599628
0.235000000000000070,-8.154411895663566057
0.236000000000000071,-8.460199231592230973
0.237000000000000072,-8.742713360924719623
0.238000000000000073,-9.002298785870120668
0.239000000000000073,-9.239384626026543756
0.240000000000000074,-9.454478303750951440
0.241000000000000075,-9.648158789232638810
0.242000000000000076,-9.821069528858892284
0.243000000000000077,-9.973911170730607623
0.244000000000000078,-10.107434191103248367
0.245000000000000079,-10.222431515299508220
0.246000000000000080,-10.319731216438828625
0.247000000000000081,-10.400189365301804045
0.248000000000000081,-10.464683094913912242
0.249000000000000082,-10.514103934090638148
0.250000000000000111,-10.549351455310349124
0.251000000000000112,-10.571327273928812218
0.252000000000000113,-10.580929427961560663
0.253000000000000114,-10.579047160461708899
0.254000000000000115,-10.566556119927700053
0.255000000000000115,-10.544313988187557385
0.256000000000000116,-10.513156539821242319
0.257000000000000117,-10.473894132384604205
0.258000000000000118,-10.427308622469810828
0.259000000000000119,-10.374150698953636507
0.260000000000000120,-10.315137621619124175
0.261000000000000121,-10.250951350657285133
0.262000000000000122,-10.182237050332819450
0.263000000000000123,-10.109601948296447205
0.264000000000000123,-10.033614530614769933
0.265000000000000124,-9.954804051530686593
0.266000000000000125,-9.873660336232733314
0.267000000000000126,-9.790633854465244923
0.268000000000000127,-9.706136042624244453
0.269000000000000128,-9.620539852024577954
0.270000000000000129,-9.534180501265110408
0.271000000000000130,-9.447356411032810541
0.272000000000000131,-9.360330300249524171
0.273000000000000131,-9.273330423152316371
0.274000000000000132,-9.186551927689571073
0.275000000000000133,-9.100158316489478594
0.276000000000000134,-9.014282992597728139
0.277000000000000135,-8.929030873170841431
0.278000000000000136,-8.844480055335576907
0.279000000000000137,-8.760683519470088498
0.280000000000000138,-8.677670856217993389
0.281000000000000139,-8.595450004600618144
0.282000000000000139,-8.514008989637954272
0.283000000000000140,-8.433317648916325737
0.284000000000000141,-8.353329338544451588
0.285000000000000142,-8.273982609913790753
0.286000000000000143,-8.195202849619080965
0.287000000000000144,-8.116903875796836587
0.288000000000000145,-8.038989485001330593
0.289000000000000146,-7.961354944555212754
0.290000000000000147,-7.883888426085837509
0.291000000000000147,-7.806472376685903214
0.292000000000000148,-7.728984824818785349
0.293000000000000149,-7.651300618724067526
0.294000000000000150,-7.573292595668005056
0.295000000000000151,-7.494832680927873803
0.296000000000000152,-7.415792915898141935
0.297000000000000153,-7.336046415163233192
0.298000000000000154,-7.255468252795450823
0.299000000000000155,-7.173936278510988807
0.300000000000000155,-7.091331864652093309
0.301000000000000156,-7.007540585261786248
0.302000000000000157,-6.922452828780731870
0.303000000000000158,-6.835964346125956936
0.304000000000000159,-6.747976736109765561
0.305000000000000160,-6.658397870326183465
0.306000000000000161,-6.567142259774428226
0.307000000000000162,-6.474131365604715249
0.308000000000000163,-6.379293856464085977
0.309000000000000163,-6.282565814990520359
0.310000000000000164,-6.183890896053662267
0.311000000000000165,-6.083220439372129640
0.312000000000000166,-5.980513539152483737
0.313000000000000167,-5.875737073394252441
0.314000000000000168,-5.768865695491321333
0.315000000000000169,-5.659881790733377827
0.316000000000000170,-5.548775400273552094
0.317000000000000171,-5.435544115081056837
0.318000000000000171,-5.320192942341734010
0.319000000000000172,-5.202734146706175622
0.320000000000000173,-5.083187068715561807
0.321000000000000174,-4.961577922660122653
0.322000000000000175,-4.837939576045881651
0.323000000000000176,-4.712311312762183846
0.324000000000000177,-4.584738581956433023
0.325000000000000178,-4.455272734534461598
0.326000000000000179,-4.323970749115437329
0.327000000000000179,-4.190894949179559958
0.328000000000000180,-4.056112713055854968
0.329000000000000181,-3.919696178307178425
0.330000000000000182,-3.781721941978424262
0.331000000000000183,-3.642270758085674576
0.332000000000000184,-3.501427233635291625
0.333000000000000185,-3.359279524376061143
0.334000000000000186,-3.215919031402761252
0.335000000000000187,-3.071440099647113176
0.336000000000000187,-2.925939719212020673
0.337000000000000188,-2.779517230427107410
0.338000000000000189,-2.632274033428665838
0.339000000000000190,-2.484313302994459516
0.340000000000000191,-2.335739709294171185
0.341000000000000192,-2.186659145149795425
0.342000000000000193,-2.037178460335648200
0.343000000000000194,-1.887405203387422903
0.344000000000000195,-1.737447371330893775
0.345000000000000195,-1.587413167686158921
0.346000000000000196,-1.437410769050723180
0.347000000000000197,-1.287548100515325755
0.348000000000000198,-1.137932620119949112
0.349000000000000199,-0.988671112513273220
0.350000000000000200,-0.839869491938157964
0.351000000000000201,-0.691632614626747744
0.352000000000000202,-0.544064100653366856
0.353000000000000203,-0.397266165259745674
0.354000000000000203,-0.251339459636119922
0.355000000000000204,-0.106382921113379214
0.356000000000000205,0.037506367305070877
0.357000000000000206,0.180233308167231848
0.358000000000000207,0.321704911669674964
0.359000000000000208,0.461830408765536216
0.360000000000000209,0.600521355439083582
0.361000000000000210,0.737691728318894624
0.362000000000000210,0.873258011816310131
0.363000000000000211,1.007139276988752385
0.364000000000000212,1.139257252338819359
0.365000000000000213,1.269536386770121705
0.366000000000000214,1.397903904929138408
0.367000000000000215,1.524289855169732366
0.368000000000000216,1.648627150382785844
0.369000000000000217,1.770851601938332021
0.370000000000000218,1.890901946991170091
0.371000000000000218,2.008719869403763791
0.372000000000000219,2.124250014541865461
0.373000000000000220,2.237439998199348690
0.374000000000000221,2.348240409908606274
0.375000000000000222,2.456604810892429658
0.376000000000000223,2.562489726911775456
0.377000000000000224,2.665854636261919097
0.378000000000000225,2.766661953166840160
0.379000000000000226,2.864877006818735694
0.380000000000000226,2.960468016305872752
0.381000000000000227,3.053406061668058502
0.382000000000000228,3.143665051314656012
0.383000000000000229,3.231221686035227414
0.384000000000000230,3.316055419828113138
0.385000000000000231,3.398148417766675866
0.386000000000000232,3.477485511117630157
0.387000000000000233,3.554054149920149008
0.388000000000000234,3.627844353228462104
0.389000000000000234,3.698848657214683477
0.390000000000000235,3.767062061322654642
0.391000000000000236,3.832481972656995417
0.392000000000000237,3.895108148785809909
0.393000000000000238,3.954942639128664617
0.394000000000000239,4.011989725095534531
0.395000000000000240,4.066255859135881501
0.396000000000000241,4.117749602850765633
0.397000000000000242,4.166481564314654662
0.398000000000000242,4.212464334747323846
0.399000000000000243,4.255712424670062610
0.400000000000000244,4.296242199674523476
0.401000000000000245,4.334071815926051841
0.402000000000000246,4.369221155518022037
0.403000000000000247,4.401711761787473698
0.404000000000000248,4.431566774696767297
0.405000000000000249,4.458810866380422233
0.406000000000000250,4.483470176950796748
0.407000000000000250,4.505572250650946131
0.408000000000000251,4.525145972437792707
0.409000000000000252,4.542221505073631427
0.410000000000000253,4.556830226799196915
0.411000000000000254,4.569004669656488105
0.412000000000000255,4.578778458525216699
0.413000000000000256,4.586186250931902464
0.414000000000000257,4.591263677686617584
0.415000000000000258,4.594047284397872133
0.416000000000000258,4.594574473912314438
0.417000000000000259,4.592883449721820277
0.418000000000000260,4.589013160376874012
0.419000000000000261,4.583003244941504128
0.420000000000000262,4.574893979521496234
0.421000000000000263,4.564726224894270601
0.422000000000000264,4.552541375265702683
0.423000000000000265,4.538381308175965856
0.424000000000000266,4.522288335573547258
0.425000000000000266,4.504305156073901806
0.426000000000000267,4.484474808416425873
0.427000000000000268,4.462840626130877730
0.428000000000000269,4.439446193422033282
0.429000000000000270,4.414335302279036810
0.430000000000000271,4.387551910813578537
0.431000000000000272,4.359140102829251795
0.432000000000000273,4.329144048622180385
0.433000000000000274,4.297607967011402685
0.434000000000000274,4.264576088595525505
0.435000000000000275,4.230092620230800016
0.436000000000000276,4.194201710723979737
0.437000000000000277,4.156947417731974959
0.438000000000000278,4.118373675859053229
0.439000000000000279,4.078524265940914439
0.440000000000000280,4.037442785503886356
0.441000000000000281,3.995172620386470808
0.442000000000000282,3.951756917509231748
0.443000000000000282,3.907238558778391990
0.444000000000000283,3.861660136107343710
0.445000000000000284,3.815063927539736000
0.446000000000000285,3.767491874456958101
0.447000000000000286,3.718985559852188150
0.448000000000000287,3.669586187652647880
0.449000000000000288,3.619334563071161970
0.450000000000000289,3.568271073967538509
0.451000000000000290,3.516435673200106748
0.452000000000000290,3.463867861947129256
0.453000000000000291,3.410606673977658154
0.454000000000000292,3.356690660851096908
0.455000000000000293,3.302157878024454707
0.456000000000000294,3.247045871846198306
0.457000000000000295,3.191391667415415245
0.458000000000000296,3.135231757284842047
0.459000000000000297,3.078602090986437112
0.460000000000000298,3.021538065357840974
0.461000000000000298,2.964074515648507990
0.462000000000000299,2.906245707383795729
0.463000000000000300,2.848085328965854313
0.464000000000000301,2.789626484989912392
0.465000000000000302,2.730901690254889491
0.466000000000000303,2.671942864447147237
0.467000000000000304,2.612781327476711102
0.468000000000000305,2.553447795445094037
0.469000000000000306,2.493972377224323189
0.470000000000000306,2.434384571626901916
0.471000000000000307,2.374713265146592089
0.472000000000000308,2.314986730250295111
0.473000000000000309,2.255232624201434888
0.474000000000000310,2.195477988395695412
0.475000000000000311,2.135749248189893201
0.476000000000000312,2.076072213205699679
0.477000000000000313,2.016472078089376119
0.478000000000000314,1.956973423709845061
0.479000000000000314,1.897600218777127923
0.480000000000000315,1.838375821863825532
0.481000000000000316,1.779322983812529513
0.482000000000000317,1.720463850512426562
0.483000000000000318,1.661819966028691198
0.484000000000000319,1.603412276068599596
0.485000000000000320,1.545261131768663310
0.486000000000000321,1.487386293787399394
0.487000000000000322,1.429806936688752472
0.488000000000000322,1.372541653601451417
0.489000000000000323,1.315608461140093777
0.490000000000000324,1.259024804573877887
0.491000000000000325,1.202807563229460808
0.492000000000000326,1.146973056114648948
0.493000000000000327,1.091537047750035683
0.494000000000000328,1.036514754195998034
0.495000000000000329,0.981920849262857609
0.496000000000000330,0.927769470892326309
0.497000000000000330,0.874074227698680928
0.498000000000000331,0.820848205658474606
0.499000000000000332,0.768103974937982992
0.500000000000000333,0.715853596847711326
0.501000000000000334,0.664108630913853082
0.502000000000000335,0.612880142056774990
0.503000000000000336,0.562178707866960670
0.504000000000000337,0.512014425969091969
0.505000000000000338,0.462396921465395294
0.506000000000000338,0.413335354449526071
0.507000000000000339,0.364838427582637181
0.508000000000000340,0.316914393723593202
0.509000000000000341,0.269571063605539396
0.510000000000000342,0.222815813551297925
0.511000000000000343,0.176655593220391732
0.512000000000000344,0.131096933380732306
0.513000000000000345,0.086145953698316541
0.514000000000000346,0.041808370538417558
0.515000000000000346,-0.001910495227783748
0.516000000000000347,-0.045005710417139320
0.517000000000000348,-0.087472721734691741
0.518000000000000349,-0.129307347985514576
0.519000000000000350,-0.170505772303375686
0.520000000000000351,-0.211064534401323028
0.521000000000000352,-0.250980522848836818
0.522000000000000353,-0.290250967380140168
0.523000000000000353,-0.328873431238045244
0.524000000000000354,-0.366845803557357741
0.525000000000000355,-0.404166291791885901
0.526000000000000356,-0.440833414188677331
0.527000000000000357,-0.476845992313091660
0.528000000000000358,-0.512203143628110036
0.529000000000000359,-0.546904274130890267
0.530000000000000360,-0.580949071049790322
0.531000000000000361,-0.614337495604528883
0.532000000000000361,-0.647069775832261440
0.533000000000000362,-0.679146399481993845
0.534000000000000363,-0.710568106979776903
0.535000000000000364,-0.741335884466835626
0.536000000000000365,-0.771450956912709040
0.537000000000000366,-0.800914781305334111
0.538000000000000367,-0.829729039919840816
0.539000000000000368,-0.857895633667738133
0.540000000000000369,-0.885416675527998187
0.541000000000000369,-0.912294484061452415
0.542000000000000370,-0.938531577009777296
0.543000000000000371,-0.964130664980258678
0.544000000000000372,-0.989094645217379997
0.545000000000000373,-1.013426595462178170
0.546000000000000374,-1.037129767900265120
0.547000000000000375,-1.060207583199193504
0.548000000000000376,-1.082663624635903377
0.549000000000000377,-1.104501632314736970
0.550000000000000377,-1.125725497476572468
0.551000000000000378,-1.146339256899399306
0.552000000000000379,-1.166347087390699366
0.553000000000000380,-1.185753300371831020
0.554000000000000381,-1.204562336554586555
0.555000000000000382,-1.222778760710020229
0.556000000000000383,-1.240407256529519886
0.557000000000000384,-1.257452621578132534
0.558000000000000385,-1.273919762339971617
0.559000000000000385,-1.289813689355582049
0.560000000000000386,-1.305139512450990136
0.561000000000000387,-1.319902436058184581
0.562000000000000388,-1.334107754626663533
0.563000000000000389,-1.347760848125701960
0.564000000000000390,-1.360867177636828407
0.565000000000000391,-1.373432281036119917
0.566000000000000392,-1.385461768765730239
0.567000000000000393,-1.396961319694105086
0.568000000000000393,-1.407936677064279607
0.569000000000000394,-1.418393644529638120
0.570000000000000395,-1.428338082276440657
0.571000000000000396,-1.437775903232402008
0.572000000000000397,-1.446713069360632486
0.573000000000000398,-1.455155588038138825
0.574000000000000399,-1.463109508518088520
0.575000000000000400,-1.470580918475062449
0.576000000000000401,-1.477575940632405604
0.577000000000000401,-1.484100729470870572
0.578000000000000402,-1.490161468017612956
0.579000000000000403,-1.495764364714690320
0.580000000000000404,-1.500915650366119625
0.581000000000000405,-1.505621575162558790
0.582000000000000406,-1.509888405782691567
0.583000000000000407,-1.513722422570302983
0.584000000000000408,-1.517129916786151833
0.585000000000000409,-1.520117187933561986
0.586000000000000409,-1.522690541156814126
0.587000000000000410,-1.524856284711320509
0.588000000000000411,-1.526620727504515607
0.589000000000000412,-1.527990176706557568
0.590000000000000413,-1.528970935429698308
0.591000000000000414,-1.529569300475380089
0.592000000000000415,-1.529791560148016094
0.593000000000000416,-1.529643992134372521
0.594000000000000417,-1.529132861447588976
0.595000000000000417,-1.528264418434757133
0.596000000000000418,-1.527044896847021604
0.597000000000000419,-1.525480511971214037
0.598000000000000420,-1.523577458821909314
0.599000000000000421,-1.521341910392957963
0.600000000000000422,-1.518780015967395203
0.601000000000000423,-1.515897899484734079
0.602000000000000424,-1.512701657964612867
0.603000000000000425,-1.509197359985803732
0.604000000000000425,-1.505391044219491992
0.605000000000000426,-1.501288718015910018
0.606000000000000427,-1.496896356043273979
0.607000000000000428,-1.492219898978004888
0.608000000000000429,-1.487265252245311142
0.609000000000000430,-1.482038284809061413
0.610000000000000431,-1.476544828010068588
0.611000000000000432,-1.470790674451709412
0.612000000000000433,-1.464781576932007612
0.613000000000000433,-1.458523247421187108
0.614000000000000434,-1.452021356083752712
0.615000000000000435,-1.445281530344139087
0.616000000000000436,-1.438309353995073536
