# TricalciumSilicate-Wet-100_DMEP-JS
# h[nm],U(h)[kJ/mol]
0.149999999999999994,124.900000436529850845
0.150999999999999995,121.393647952483732411
0.151999999999999996,118.463825290247200428
0.152999999999999997,115.652146445652604712
0.153999999999999998,112.806389446574073077
0.154999999999999999,109.912681963653270145
0.156000000000000000,107.006630480210986889
0.157000000000000001,104.130433745404758383
0.158000000000000002,101.315549266820639218
0.159000000000000002,98.578586865658508032
0.160000000000000003,95.923259059154261763
0.161000000000000004,93.344428580260057515
0.162000000000000005,90.832238164409062620
0.163000000000000006,88.375442430867650501
0.164000000000000007,85.963688536406067442
0.165000000000000008,83.588809284895503993
0.166000000000000009,81.245327220178324978
0.167000000000000010,78.930401635746122224
0.168000000000000010,76.643432142614614122
0.169000000000000011,74.385492035834644753
0.170000000000000012,72.158718914539235811
0.171000000000000013,69.965747542932490433
0.172000000000000014,67.809234649458858257
0.173000000000000015,65.691498315350898451
0.174000000000000016,63.614275371676043846
0.175000000000000017,61.578587674011167508
0.176000000000000018,59.584700891323088001
0.177000000000000018,57.632156193157165092
0.178000000000000019,55.719854766369472543
0.179000000000000020,53.846176466643953518
0.180000000000000021,52.009116351714432369
0.181000000000000022,50.206425788679069910
0.182000000000000023,48.435747879713652253
0.183000000000000024,46.694739846260674199
0.184000000000000025,44.981177593168531814
0.185000000000000026,43.293039860638224070
0.186000000000000026,41.628571137680054903
0.187000000000000027,39.986323867709955948
0.188000000000000028,38.365181459738323611
0.189000000000000029,36.764364274948377442
0.190000000000000030,35.183421141264872745
0.191000000000000031,33.622209110898282347
0.192000000000000032,32.080864167779473917
0.193000000000000033,30.559765458110462077
0.194000000000000034,29.059495396688951985
0.195000000000000034,27.580797726566878225
0.196000000000000035,26.124535306130979961
0.197000000000000036,24.691649086283831593
0.198000000000000037,23.283119436402422764
0.199000000000000038,21.899930692145360922
0.200000000000000039,20.543039538293150770
0.201000000000000040,19.213347609995796716
0.202000000000000041,17.911678498076774702
0.203000000000000042,16.638759178616940204
0.204000000000000042,15.395205752801729204
0.205000000000000043,14.181513277928084804
0.206000000000000044,12.998049391889761495
0.207000000000000045,11.845051378415863752
0.208000000000000046,10.722626285703352522
0.209000000000000047,9.630753693752392763
0.210000000000000048,8.569290722698108098
0.211000000000000049,7.537978882948730863
0.212000000000000050,6.536452385445691959
0.213000000000000050,5.564247554599806023
0.214000000000000051,4.620813015442533533
0.215000000000000052,3.705520358572438333
0.216000000000000053,2.817675020145029574
0.217000000000000054,1.956527148276671069
0.218000000000000055,1.121282260866756531
0.219000000000000056,0.311111532253594281
0.220000000000000057,-0.474838423252760322
0.221000000000000058,-1.237436374457518307
0.222000000000000058,-1.977557980470479038
0.223000000000000059,-2.696078036046092308
0.224000000000000060,-3.393863488337961254
0.225000000000000061,-4.071767240174398061
0.226000000000000062,-4.730622739358396167
0.227000000000000063,-5.371239340328751055
0.228000000000000064,-5.994398413636204737
0.229000000000000065,-6.600850169919856292
0.230000000000000066,-7.191311158224502620
0.231000000000000066,-7.766462393391347696
0.232000000000000067,-8.326948063685819079
0.233000000000000068,-8.873374767610039626
0.234000000000000069,-9.406311227801086972
0.235000000000000070,-9.926288429866625407
0.236000000000000071,-10.433800134795735204
0.237000000000000072,-10.929303715058651392
0.238000000000000073,-11.413221266535687803
0.239000000000000073,-11.885940950873331801
0.240000000000000074,-12.347818525647817012
0.241000000000000075,-12.799179022722906751
0.242000000000000076,-13.240318538340400067
0.243000000000000077,-13.671506101706238923
0.244000000000000078,-14.092985592070045087
0.245000000000000079,-14.504977677492410848
0.246000000000000080,-14.907681751609590748
0.247000000000000081,-15.301277847706959534
0.248000000000000081,-15.685928512273216384
0.249000000000000082,-16.061780622907946281
0.250000000000000111,-16.428967137982180446
0.251000000000000112,-16.787608767794292675
0.252000000000000113,-17.137815559120021192
0.253000000000000114,-17.479688387018772033
0.254000000000000115,-17.813320349538038556
0.255000000000000115,-18.138798062549366108
0.256000000000000116,-18.456202853365667238
0.257000000000000117,-18.765611853034521062
0.258000000000000118,-19.067098988284328698
0.259000000000000119,-19.360735875031402031
0.260000000000000120,-19.646592616145007071
0.261000000000000121,-19.924738506823068462
0.262000000000000122,-20.195242651468088724
0.263000000000000123,-20.458174496376678064
0.264000000000000123,-20.713604282881885155
0.265000000000000124,-20.961603425821117241
0.266000000000000125,-21.202244822357080523
0.267000000000000126,-21.435603096261349521
0.268000000000000127,-21.661754782790900720
0.269000000000000128,-21.880778459253150459
0.270000000000000129,-22.092754826274422442
0.271000000000000130,-22.297766744666532190
0.272000000000000131,-22.495899232632197595
0.273000000000000131,-22.687239427869705821
0.274000000000000132,-22.871876518934556088
0.275000000000000133,-23.049901649997206476
0.276000000000000134,-23.221407802904231232
0.277000000000000135,-23.386489660210052932
0.278000000000000136,-23.545243452601912537
0.279000000000000137,-23.697766793893396908
0.280000000000000138,-23.844158506515412910
0.281000000000000139,-23.984518440190448985
0.282000000000000139,-24.118947286236821270
0.283000000000000140,-24.247546389717907545
0.284000000000000141,-24.370417561426570785
0.285000000000000142,-24.487662891479821781
0.286000000000000143,-24.599384566092691529
0.287000000000000144,-24.705684688904746338
0.288000000000000145,-24.806665108048502333
0.289000000000000146,-24.902427249974795842
0.290000000000000147,-24.993071960888379124
0.291000000000000147,-25.078699356495729234
0.292000000000000148,-25.159408680627493027
0.293000000000000149,-25.235298173168999369
0.294000000000000150,-25.306464947614585981
0.295000000000000151,-25.373004878453826905
0.296000000000000152,-25.435012498500618960
0.297000000000000153,-25.492580906188312184
0.298000000000000154,-25.545801682775913122
0.299000000000000155,-25.594764819340877438
0.300000000000000155,-25.639558653372887420
0.301000000000000156,-25.680269814729673072
0.302000000000000157,-25.716983180670258236
0.303000000000000158,-25.749781839641901371
0.304000000000000159,-25.778747063464358291
0.305000000000000160,-25.803958287528637072
0.306000000000000161,-25.825493098605864617
0.307000000000000162,-25.843427229846145821
0.308000000000000163,-25.857834562535195744
0.309000000000000163,-25.868787134169213715
0.310000000000000164,-25.876355152404869386
0.311000000000000165,-25.880607014440535352
0.312000000000000166,-25.881609331387767980
0.313000000000000167,-25.879426957197260606
0.314000000000000168,-25.874123021710875747
0.315000000000000169,-25.865758967421282222
0.316000000000000170,-25.854394589531914050
0.317000000000000171,-25.840088078922939019
0.318000000000000171,-25.822896067642808760
0.319000000000000172,-25.802873676560643901
0.320000000000000173,-25.780074564830062656
0.321000000000000174,-25.754550980832050300
0.322000000000000175,-25.726353814281502252
0.323000000000000176,-25.695532649199339659
0.324000000000000177,-25.662135817469920340
0.325000000000000178,-25.626210452720538768
0.326000000000000179,-25.587802544278233086
0.327000000000000179,-25.546956990975523638
0.328000000000000180,-25.503717654594556308
0.329000000000000181,-25.458127412755761299
0.330000000000000182,-25.410228211073160764
0.331000000000000183,-25.360061114415113792
0.332000000000000184,-25.307666357124162460
0.333000000000000185,-25.253083392064841206
0.334000000000000186,-25.196350938382742868
0.335000000000000187,-25.137507027871571097
0.336000000000000187,-25.076589049858704072
0.337000000000000188,-25.013633794531369148
0.338000000000000189,-24.948677494638495489
0.339000000000000190,-24.881755865513763837
0.340000000000000191,-24.812904143376197652
0.341000000000000192,-24.742157121875088421
0.342000000000000193,-24.669549186854467848
0.343000000000000194,-24.595114349322109604
0.344000000000000195,-24.518886276615226905
0.345000000000000195,-24.440898321763420142
0.346000000000000196,-24.361183551055610508
0.347000000000000197,-24.279774769824555847
0.348000000000000198,-24.196704546468424724
0.349000000000000199,-24.112005234733775438
0.350000000000000200,-24.025708994289701081
0.351000000000000201,-23.937847809626774165
0.352000000000000202,-23.848453507318531308
0.353000000000000203,-23.757557771686734327
0.354000000000000203,-23.665192158914415188
0.355000000000000204,-23.571388109653643284
0.356000000000000205,-23.476176960176950104
0.357000000000000206,-23.379589952123637886
0.358000000000000207,-23.281658240893079892
0.359000000000000208,-23.182412902739287119
0.360000000000000209,-23.081884940621222313
0.361000000000000210,-22.980105288864528745
0.362000000000000210,-22.877104816690465583
0.363000000000000211,-22.772914330668339034
0.364000000000000212,-22.667564576147622546
0.365000000000000213,-22.561086237725589854
0.366000000000000214,-22.453509938806245572
0.367000000000000215,-22.344866240305528038
0.368000000000000216,-22.235185638557158683
0.369000000000000217,-22.124498562472730612
0.370000000000000218,-22.012835370008652092
0.371000000000000218,-21.900226343991413103
0.372000000000000219,-21.786701687351648360
0.373000000000000220,-21.672291517816063333
0.374000000000000221,-21.557025862105245295
0.375000000000000222,-21.440934649683491386
0.376000000000000223,-21.324047706106053823
0.377000000000000224,-21.206394746007084962
0.378000000000000225,-21.088005365770431609
0.379000000000000226,-20.968909035923704920
0.380000000000000226,-20.849135093294741239
0.381000000000000227,-20.728712732967437660
0.382000000000000228,-20.607671000073203516
0.383000000000000229,-20.486038781451782143
0.384000000000000230,-20.363844797214284199
0.385000000000000231,-20.241117592239383782
0.386000000000000232,-20.117885527632132892
0.387000000000000233,-19.994176772173247514
0.388000000000000234,-19.870019293785308179
0.389000000000000234,-19.745440851040768848
0.390000000000000235,-19.620468984735033757
0.391000000000000236,-19.495131009546774692
0.392000000000000237,-19.369454005805700092
0.393000000000000238,-19.243464811387362090
0.394000000000000239,-19.117190013752242805
0.395000000000000240,-18.990655942146197788
0.396000000000000241,-18.863888659977021689
0.397000000000000242,-18.736913957381265305
0.398000000000000242,-18.609757343994207446
0.399000000000000243,-18.482444041934435575
0.400000000000000244,-18.354998979013618765
0.401000000000000245,-18.227446782180926732
0.402000000000000246,-18.099811771210561062
0.403000000000000247,-17.972117952639667493
0.404000000000000248,-17.844389013963276369
0.405000000000000249,-17.716648318091760217
0.406000000000000250,-17.588918898075487363
0.407000000000000250,-17.461223452100675502
0.408000000000000251,-17.333584338759276733
0.409000000000000252,-17.206023572595608329
0.410000000000000253,-17.078562819931001115
0.411000000000000254,-16.951223394967662728
0.412000000000000255,-16.824026256171983107
0.413000000000000256,-16.696992002937076194
0.414000000000000257,-16.570140872523609232
0.415000000000000258,-16.443492737277729532
0.416000000000000258,-16.317067102124038769
0.417000000000000259,-16.190883102331429910
0.418000000000000260,-16.064959501549033405
0.419000000000000261,-15.939314690108975725
0.420000000000000262,-15.813966683592557416
0.421000000000000263,-15.688933121656011949
0.422000000000000264,-15.564231267111471979
0.423000000000000265,-15.439878005258776739
0.424000000000000266,-15.315889843463486031
0.425000000000000266,-15.192282910975876575
0.426000000000000267,-15.069072958985884725
0.427000000000000268,-14.946275360908582996
0.428000000000000269,-14.823905112894498970
0.429000000000000270,-14.701976834559289387
0.430000000000000271,-14.580504769926577069
0.431000000000000272,-14.459502788578323162
0.432000000000000273,-14.338984387006366461
0.433000000000000274,-14.218962690159244744
0.434000000000000274,-14.099450453177814424
0.435000000000000275,-13.980460063313589814
0.436000000000000276,-13.862003542023501268
0.437000000000000277,-13.744092547234544099
0.438000000000000278,-13.626738375772266210
0.439000000000000279,-13.509951965946537911
0.440000000000000280,-13.393743900288393789
0.441000000000000281,-13.278124408431608572
0.442000000000000282,-13.163103370132869685
0.443000000000000282,-13.048690318424013057
0.444000000000000283,-12.934894442890600530
0.445000000000000284,-12.821724593070388920
0.446000000000000285,-12.709189281965709739
0.447000000000000286,-12.597296689664025493
0.448000000000000287,-12.486054667060397350
0.449000000000000288,-12.375470739676469378
0.450000000000000289,-12.265552111569901328
0.451000000000000290,-12.156305669328906660
0.452000000000000290,-12.047737986146245248
0.453000000000000291,-11.939855325967268840
0.454000000000000292,-11.832663647706819887
0.455000000000000293,-11.726168609529612041
0.456000000000000294,-11.620375573189249963
0.457000000000000295,-11.515289608420687273
0.458000000000000296,-11.410915497381449057
0.459000000000000297,-11.307257739136863606
0.460000000000000298,-11.204320554184565850
0.461000000000000298,-11.102107889014016351
0.462000000000000299,-11.000623420696504340
0.463000000000000300,-10.899870561501398214
0.464000000000000301,-10.799852463534644897
0.465000000000000302,-10.700572023395455545
0.466000000000000303,-10.602031886847269604
0.467000000000000304,-10.504234453499307733
0.468000000000000305,-10.407181881495116471
0.469000000000000306,-10.310876092204491528
0.470000000000000306,-10.215318774915598254
0.471000000000000307,-10.120511391523709932
0.472000000000000308,-10.026455181213831835
0.473000000000000309,-9.933151165133811134
0.474000000000000310,-9.840600151055269862
0.475000000000000311,-9.748802738019383796
0.476000000000000312,-9.657759320965110916
0.477000000000000313,-9.567470095336906510
0.478000000000000314,-9.477935061669780836
0.479000000000000314,-9.389154030149260421
0.480000000000000315,-9.301126625143917082
0.481000000000000316,-9.213852289708459153
0.482000000000000317,-9.127330290055253315
0.483000000000000318,-9.041559719992369182
0.484000000000000319,-8.956539505326277961
0.485000000000000320,-8.872268408227565573
0.486000000000000321,-8.788745031557841259
0.487000000000000322,-8.705967823156424146
0.488000000000000322,-8.623935080085235683
0.489000000000000323,-8.542644952830613647
0.490000000000000324,-8.462095449460678154
0.491000000000000325,-8.382284439737045290
0.492000000000000326,-8.303209659179760393
0.493000000000000327,-8.224868713084406480
0.494000000000000328,-8.147259080490401928
0.495000000000000329,-8.070378118099574394
0.496000000000000330,-7.994223064144167168
0.497000000000000330,-7.918791042203549679
0.498000000000000331,-7.844079064968866533
0.499000000000000332,-7.770084037955112599
0.500000000000000333,-7.696802763159929839
0.501000000000000334,-7.624231942668695972
0.502000000000000335,-7.552368182205448477
0.503000000000000336,-7.481207994629255786
0.504000000000000337,-7.410747803375672405
0.505000000000000338,-7.340983945843037262
0.506000000000000338,-7.271912676723353286
0.507000000000000339,-7.203530171277570560
0.508000000000000340,-7.135832528555120291
0.509000000000000341,-7.068815774557722698
0.510000000000000342,-7.002475865347241424
0.511000000000000343,-6.936808690097739039
0.512000000000000344,-6.871810074091674103
0.513000000000000345,-6.807475781660373926
0.514000000000000346,-6.743801519068891359
0.515000000000000346,-6.680782937345365546
0.516000000000000347,-6.618415635055027835
0.517000000000000348,-6.556695161019287177
0.518000000000000349,-6.495617016979776892
0.519000000000000350,-6.435176660207984511
0.520000000000000351,-6.375369506060574842
0.521000000000000352,-6.316190930480782839
0.522000000000000353,-6.257636272446272407
0.523000000000000353,-6.199700836363697398
0.524000000000000354,-6.142379894410636254
0.525000000000000355,-6.085668688825003336
0.526000000000000356,-6.029562434142595961
0.527000000000000357,-5.974056319383224789
0.528000000000000358,-5.919145510185731318
0.529000000000000359,-5.864825150892647443
0.530000000000000360,-5.811090366584785727
0.531000000000000361,-5.757936265066415871
0.532000000000000361,-5.705357938801496331
0.533000000000000362,-5.653350466801577490
0.534000000000000363,-5.601908916465870192
0.535000000000000364,-5.551028345374102280
0.536000000000000365,-5.500703803032719996
0.537000000000000366,-5.450930332575059545
0.538000000000000367,-5.401702972416015491
0.539000000000000368,-5.353016757861941421
0.540000000000000369,-5.304866722676231383
0.541000000000000369,-5.257247900601359270
0.542000000000000370,-5.210155326837906387
0.543000000000000371,-5.163584039481204258
0.544000000000000372,-5.117529080916305873
0.545000000000000373,-5.071985499171840495
0.546000000000000374,-5.026948349233395952
0.547000000000000375,-4.982412694317112312
0.548000000000000376,-4.938373607104135310
0.549000000000000377,-4.894826170936513954
0.550000000000000377,-4.851765480975180012
0.551000000000000378,-4.809186645320762565
0.552000000000000379,-4.767084786097762539
0.553000000000000380,-4.725455040502767545
0.554000000000000381,-4.684292561817348322
0.555000000000000382,-4.643592520386327749
0.556000000000000383,-4.603350104561898526
0.557000000000000384,-4.563560521614457244
0.558000000000000385,-4.524218998610548326
0.559000000000000385,-4.485320783258733179
0.560000000000000386,-4.446861144723860626
0.561000000000000387,-4.408835374410484675
0.562000000000000388,-4.371238786715947455
0.563000000000000389,-4.334066719753770336
0.564000000000000390,-4.297314536047989186
0.565000000000000391,-4.260977623198996866
0.566000000000000392,-4.225051394521477377
0.567000000000000393,-4.189531289655088031
0.568000000000000393,-4.154412775148394132
0.569000000000000394,-4.119691345016675221
0.570000000000000395,-4.085362521274203296
0.571000000000000396,-4.051421854441474402
0.572000000000000397,-4.017864924028080154
0.573000000000000398,-3.984687338991617533
0.574000000000000399,-3.951884738173365719
0.575000000000000400,-3.919452790711082546
0.576000000000000401,-3.887387196429604952
0.577000000000000401,-3.855683686209731231
0.578000000000000402,-3.824338022335864284
0.579000000000000403,-3.793345998822970078
0.580000000000000404,-3.762703441723399322
0.581000000000000405,-3.732406209413982712
0.582000000000000406,-3.702450192863959266
0.583000000000000407,-3.672831315884192982
0.584000000000000408,-3.643545535358193810
0.585000000000000409,-3.614588841455348867
0.586000000000000409,-3.585957257826905220
0.587000000000000410,-3.557646841785115477
0.588000000000000411,-3.529653684465993368
0.589000000000000412,-3.501973910976162951
0.590000000000000413,-3.474603680524180227
0.591000000000000414,-3.447539186536803246
0.592000000000000415,-3.420776656760634360
0.593000000000000416,-3.394312353349488554
0.594000000000000417,-3.368142572937951940
0.595000000000000417,-3.342263646701570501
0.596000000000000418,-3.316671940403895569
0.597000000000000419,-3.291363854431011760
0.598000000000000420,-3.266335823813686368
0.599000000000000421,-3.241584318237711759
0.600000000000000422,-3.217105842042657038
0.601000000000000423,-3.192896934209492166
0.602000000000000424,-3.168954168337367427
0.603000000000000425,-3.145274152609928375
0.604000000000000425,-3.121853529751496659
0.605000000000000426,-3.098688976973424047
0.606000000000000427,-3.075777205911035317
0.607000000000000428,-3.053114962551277234
