# TricalciumSilicate-Wet-100_GLY-JS
# h[nm],U(h)[kJ/mol]
0.149999999999999994,86.401252272223857176
0.150999999999999995,84.104605815354446463
0.151999999999999996,81.802177560752596719
0.152999999999999997,79.522830382987450548
0.153999999999999998,77.286219272858559748
0.154999999999999999,75.101641901555495906
0.156000000000000000,72.970194206832928785
0.157000000000000001,70.887812490306970403
0.158000000000000002,68.848052120595070846
0.159000000000000002,66.844164701861458866
0.160000000000000003,64.870408232965772299
0.161000000000000004,62.922697598148900511
0.162000000000000005,60.998763110779556484
0.163000000000000006,59.097986356484398129
0.164000000000000007,57.221057054752705540
0.165000000000000008,55.369560114083597568
0.166000000000000009,53.545568020369344708
0.167000000000000010,51.751284595176130665
0.168000000000000010,49.988763484329261644
0.169000000000000011,48.259708408733210661
0.170000000000000012,46.565351398843738195
0.171000000000000013,44.906398840819022666
0.172000000000000014,43.283032077797500392
0.173000000000000015,41.694948548797540866
0.174000000000000016,40.141430200071113177
0.175000000000000017,38.621427541142821838
0.176000000000000018,37.133649778378483575
0.177000000000000018,35.676653621585963094
0.178000000000000019,34.248925415151845186
0.179000000000000020,32.848953071640892176
0.180000000000000021,31.475285822316333650
0.181000000000000022,30.126581028840700327
0.182000000000000023,28.801638235128024235
0.183000000000000024,27.499421306648162755
0.184000000000000025,26.219069943932293398
0.185000000000000026,24.959902108085803007
0.186000000000000026,23.721408998429531323
0.187000000000000027,22.503244212406674052
0.188000000000000028,21.305208627567299828
0.189000000000000029,20.127232401723922806
0.190000000000000030,18.969355312185587792
0.191000000000000031,17.831706465539337358
0.192000000000000032,16.714484218756403777
0.193000000000000033,15.617936969818762449
0.194000000000000034,14.542345307926860087
0.195000000000000034,13.488005863536779216
0.196000000000000035,12.455217068943913006
0.197000000000000036,11.444266931373231699
0.198000000000000037,10.455422831987251087
0.199000000000000038,9.488923294580612122
0.200000000000000039,8.544971615226934603
0.201000000000000040,7.623731206751419798
0.202000000000000041,6.725322487496074864
0.203000000000000042,5.849821130317526041
0.204000000000000042,4.997257483101683384
0.205000000000000043,4.167616974451156864
0.206000000000000044,3.360841325934693202
0.207000000000000045,2.576830403934406544
0.208000000000000046,1.815444558435151734
0.209000000000000047,1.076507312028497587
0.210000000000000048,0.359808279094281980
0.211000000000000049,-0.334893788105368739
0.212000000000000050,-1.007867913363622581
0.213000000000000050,-1.659407841960485186
0.214000000000000051,-2.289829074692717903
0.215000000000000052,-2.899466034549099902
0.216000000000000053,-3.488669398424696144
0.217000000000000054,-4.057803616055534413
0.218000000000000055,-4.607244629570327099
0.219000000000000056,-5.137377799645652665
0.220000000000000057,-5.648596038139451103
0.221000000000000058,-6.141298142158687412
0.222000000000000058,-6.615887320688521811
0.223000000000000059,-7.072769902046194268
0.224000000000000060,-7.512354208410521039
0.225000000000000061,-7.935049582398244539
0.226000000000000062,-8.341265549999800299
0.227000000000000063,-8.731411104045358584
0.228000000000000064,-9.105894092649531757
0.229000000000000065,-9.465120697693912177
0.230000000000000066,-9.809494989269236243
0.231000000000000066,-10.139418543048249077
0.232000000000000067,-10.455290108732508969
0.233000000000000068,-10.757505318963328733
0.234000000000000069,-11.046456429363896490
0.235000000000000070,-11.322532081651788261
0.236000000000000071,-11.586117082999255246
0.237000000000000072,-11.837592196002074019
0.238000000000000073,-12.077333934727388254
0.239000000000000073,-12.305714363335258810
0.240000000000000074,-12.523100894701686414
0.241000000000000075,-12.729856087304277423
0.242000000000000076,-12.926337439366779591
0.243000000000000077,-13.112897179895417921
0.244000000000000078,-13.289882056780498942
0.245000000000000079,-13.457633122585473728
0.246000000000000080,-13.616485519008360683
0.247000000000000081,-13.766768261283067076
0.248000000000000081,-13.908804023996916399
0.249000000000000082,-14.042908929943234142
0.250000000000000111,-14.169392343711475490
0.251000000000000112,-14.288556671747851823
0.252000000000000113,-14.400697170606624908
0.253000000000000114,-14.506101765057902497
0.254000000000000115,-14.605050877634761619
0.255000000000000115,-14.697817271090119817
0.256000000000000116,-14.784665905102784222
0.257000000000000117,-14.865853808424327909
0.258000000000000118,-14.941629967499412857
0.259000000000000119,-15.012235232426485609
0.260000000000000120,-15.077902240956513324
0.261000000000000121,-15.138855361056968718
0.262000000000000122,-15.195310652401392559
0.263000000000000123,-15.247475846981362935
0.264000000000000123,-15.295550348881750580
0.265000000000000124,-15.339725253111392789
0.266000000000000125,-15.380183383242817641
0.267000000000000126,-15.417099347485352823
0.268000000000000127,-15.450639612698887859
0.269000000000000128,-15.480962595748607669
0.270000000000000129,-15.508218771506562916
0.271000000000000130,-15.532550796722947695
0.272000000000000131,-15.554093648918273729
0.273000000000000131,-15.572974779387777744
0.274000000000000132,-15.589314279359786752
0.275000000000000133,-15.603225058311744888
0.276000000000000134,-15.614813033418499799
0.277000000000000135,-15.624177329088533739
0.278000000000000136,-15.631410485533473675
0.279000000000000137,-15.636598675314209217
0.280000000000000138,-15.639821926811958264
0.281000000000000139,-15.641154353585495329
0.282000000000000139,-15.640664388593489065
0.283000000000000140,-15.638415022285508726
0.284000000000000141,-15.634464043593506943
0.285000000000000142,-15.628864282889171733
0.286000000000000143,-15.621663856008911608
0.287000000000000144,-15.612906408488072429
0.288000000000000145,-15.602631359188659843
0.289000000000000146,-15.590874142548548420
0.290000000000000147,-15.577666448726699144
0.291000000000000147,-15.563036460965340879
0.292000000000000148,-15.547009089538068594
0.293000000000000149,-15.529606201700641321
0.294000000000000150,-15.510846847109050373
0.295000000000000151,-15.490747478217340216
0.296000000000000152,-15.469322165214283160
0.297000000000000153,-15.446582805104366543
0.298000000000000154,-15.422539324583393494
0.299000000000000155,-15.397199876402932972
0.300000000000000155,-15.370571028960062776
0.301000000000000156,-15.342657948889661057
0.302000000000000157,-15.313464576475643852
0.303000000000000158,-15.282993793734885202
0.304000000000000159,-15.251247585063065770
0.305000000000000160,-15.218227190365292145
0.306000000000000161,-15.183933250626093781
0.307000000000000162,-15.148365945903282892
0.308000000000000163,-15.111525125757694354
0.309000000000000163,-15.073410432157135830
0.310000000000000164,-15.034021414916628245
0.311000000000000165,-14.993357639759043565
0.312000000000000166,-14.951418789100873852
0.313000000000000167,-14.908204755685897425
0.314000000000000168,-14.863715729206514737
0.315000000000000169,-14.817952276067293482
0.316000000000000170,-14.770915412458966998
0.317000000000000171,-14.722606670922521843
0.318000000000000171,-14.673028160593579727
0.319000000000000172,-14.622182621326127006
0.320000000000000173,-14.570073471901997308
0.321000000000000174,-14.516704852538813597
0.322000000000000175,-14.462081661914108821
0.323000000000000176,-14.406209588927159970
0.324000000000000177,-14.349095139422777478
0.325000000000000178,-14.290745658103080729
0.326000000000000179,-14.231169345854317143
0.327000000000000179,-14.170375272715350690
0.328000000000000180,-14.108373386713939368
0.329000000000000181,-14.045174518795359830
0.330000000000000182,-13.980790384065326037
0.331000000000000183,-13.915233579566859135
0.332000000000000184,-13.848517578806845307
0.333000000000000185,-13.780656723244424811
0.334000000000000186,-13.711666210948976641
0.335000000000000187,-13.641562082630525055
0.336000000000000187,-13.570361205240681457
0.337000000000000188,-13.498081253336394525
0.338000000000000189,-13.424740688393544730
0.339000000000000190,-13.350358736251390468
0.340000000000000191,-13.274955362862675301
0.341000000000000192,-13.198551248518487711
0.342000000000000193,-13.121167760710060080
0.343000000000000194,-13.042826925783987946
0.344000000000000195,-12.963551399540254039
0.345000000000000195,-12.883364436916668438
0.346000000000000196,-12.802289860896369333
0.347000000000000197,-12.720352030768815155
0.348000000000000198,-12.637575809868494048
0.349000000000000199,-12.553986532908854912
0.350000000000000200,-12.469609973023167981
0.351000000000000201,-12.384472308617541003
0.352000000000000202,-12.298600090135479945
0.353000000000000203,-12.212020206827379099
0.354000000000000203,-12.124759853612619764
0.355000000000000204,-12.036846498116105408
0.356000000000000205,-11.948307847955856431
0.357000000000000206,-11.859171818352791661
0.358000000000000207,-11.769466500128382691
0.359000000000000208,-11.679220128151438729
0.360000000000000209,-11.588461050289772913
0.361000000000000210,-11.497217696918301755
0.362000000000000210,-11.405518551030244367
0.363000000000000211,-11.313392118994055835
0.364000000000000212,-11.220866901994368092
0.365000000000000213,-11.127971368191222012
0.366000000000000214,-11.034733925628144036
0.367000000000000215,-10.941182895915906315
0.368000000000000216,-10.847346488715340129
0.369000000000000217,-10.753252777039218557
0.370000000000000218,-10.658929673390222348
0.371000000000000218,-10.564404906748768198
0.372000000000000219,-10.469706000421906467
0.373000000000000220,-10.374860250761667402
0.374000000000000221,-10.279894706758778256
0.375000000000000222,-10.184836150515319986
0.376000000000000223,-10.089711078597556337
0.377000000000000224,-9.994545684268276275
0.378000000000000225,-9.899365840595887533
0.379000000000000226,-9.804197084435696041
0.380000000000000226,-9.709064601277271223
0.381000000000000227,-9.613993210949935531
0.382000000000000228,-9.519007354177359659
0.383000000000000229,-9.424131079970607061
0.384000000000000230,-9.329388033847727968
0.385000000000000231,-9.234801446867278329
0.386000000000000232,-9.140394125461620334
0.387000000000000233,-9.046188442055266066
0.388000000000000234,-8.952206326452555984
0.389000000000000234,-8.858469257978374145
0.390000000000000235,-8.764998258354676608
0.391000000000000236,-8.671813885295364344
0.392000000000000237,-8.578936226801221920
0.393000000000000238,-8.486384896136467404
0.394000000000000239,-8.394179027467883358
0.395000000000000240,-8.302337272147337188
0.396000000000000241,-8.210877795618287678
0.397000000000000242,-8.119818274926439372
0.398000000000000242,-8.029175896815001323
0.399000000000000243,-7.938967356384513785
0.400000000000000244,-7.849208856297332559
0.401000000000000245,-7.759916106507098732
0.402000000000000246,-7.671104324493144944
0.403000000000000247,-7.582788235980132185
0.404000000000000248,-7.494982076123443804
0.405000000000000249,-7.407699591140735507
0.406000000000000250,-7.320954040370429183
0.407000000000000250,-7.234758198738103552
0.408000000000000251,-7.149124359611954915
0.409000000000000252,-7.064064338028811285
0.410000000000000253,-6.979589474272380301
0.411000000000000254,-6.895710637785869679
0.412000000000000255,-6.812438231401225508
0.413000000000000256,-6.729782195867832328
0.414000000000000257,-6.647752014663557141
0.415000000000000258,-6.566356719071727355
0.416000000000000258,-6.485604893507702862
0.417000000000000259,-6.405504681079255747
0.418000000000000260,-6.326063789365346857
0.419000000000000261,-6.247289496398158448
0.420000000000000262,-6.169188656833860307
0.421000000000000263,-6.091767708297763484
0.422000000000000264,-6.015032677890093993
0.423000000000000265,-5.938989188838868394
0.424000000000000266,-5.863642467287021987
0.425000000000000266,-5.788997349200976750
0.426000000000000267,-5.715058287388606217
0.427000000000000268,-5.641829358614733891
0.428000000000000269,-5.569314270802787625
0.429000000000000270,-5.497516370311674727
0.430000000000000271,-5.426438649277195658
0.431000000000000272,-5.356083753007903070
0.432000000000000273,-5.286453987425543843
0.433000000000000274,-5.217551326540723622
0.434000000000000274,-5.149377419954655366
0.435000000000000275,-5.081933600378474303
0.436000000000000276,-5.015220891161720651
0.437000000000000277,-4.949240013822050699
0.438000000000000278,-4.883991395568666682
0.439000000000000279,-4.819475176812202832
0.440000000000000280,-4.755691218654138019
0.441000000000000281,-4.692639110349224651
0.442000000000000282,-4.630318176734701474
0.443000000000000282,-4.568727485620313722
0.444000000000000283,-4.507865855133620592
0.445000000000000284,-4.447731861015251198
0.446000000000000285,-4.388323843859004647
0.447000000000000286,-4.329639916292304491
0.448000000000000287,-4.271677970092278898
0.449000000000000288,-4.214435683233537233
0.450000000000000289,-4.157910526863565437
0.451000000000000290,-4.102099772202182137
0.452000000000000290,-4.047000497361596061
0.453000000000000291,-3.992609594083904589
0.454000000000000292,-3.938923774393137567
0.455000000000000293,-3.885939577159027714
0.456000000000000294,-3.833653374570149541
0.457000000000000295,-3.782061378514003369
0.458000000000000296,-3.731159646862045154
0.459000000000000297,-3.680944089657726348
0.460000000000000298,-3.631410475205831379
0.461000000000000298,-3.582554436061619274
0.462000000000000299,-3.534371474918367007
0.463000000000000300,-3.486856970392145261
0.464000000000000301,-3.440006182702801230
0.465000000000000302,-3.393814259250272247
0.466000000000000303,-3.348276240085470423
0.467000000000000304,-3.303387063275138757
0.468000000000000305,-3.259141570160298151
0.469000000000000306,-3.215534510507830568
0.470000000000000306,-3.172560547555114407
0.471000000000000307,-3.130214262947492720
0.472000000000000308,-3.088490161568718584
0.473000000000000309,-3.047382676264378976
0.474000000000000310,-3.006886172458610673
0.475000000000000311,-2.966994952664347096
0.476000000000000312,-2.927703260887635217
0.477000000000000313,-2.889005286926295213
0.478000000000000314,-2.850895170563712888
0.479000000000000314,-2.813367005658306219
0.480000000000000315,-2.776414844129364123
0.481000000000000316,-2.740032699840129204
0.482000000000000317,-2.704214552378890080
0.483000000000000318,-2.668954350739041637
0.484000000000000319,-2.634246016899043585
0.485000000000000320,-2.600083449303352001
0.486000000000000321,-2.566460526245303519
0.487000000000000322,-2.533371109153137457
0.488000000000000322,-2.500809045780224338
0.489000000000000323,-2.468768173300799784
0.490000000000000324,-2.437242321312301563
0.491000000000000325,-2.406225314745680244
0.492000000000000326,-2.375710976684842546
0.493000000000000327,-2.345693131096675099
0.494000000000000328,-2.316165605472864097
0.495000000000000329,-2.287122233384933701
0.496000000000000330,-2.258556856953864322
0.497000000000000330,-2.230463329235661263
0.498000000000000331,-2.202835516524284110
0.499000000000000332,-2.175667300573396634
0.500000000000000333,-2.148952580738296092
0.501000000000000334,-2.122685276039506963
0.502000000000000335,-2.096859327149450003
0.503000000000000336,-2.071468698303685407
0.504000000000000337,-2.046507379138094329
0.505000000000000338,-2.021969386453538853
0.506000000000000338,-1.997848765909401747
0.507000000000000339,-1.974139593647453284
0.508000000000000340,-1.950835977847521052
0.509000000000000341,-1.927932060216390964
0.510000000000000342,-1.905422017411375180
0.511000000000000343,-1.883300062399977604
0.512000000000000344,-1.861560445757084015
0.513000000000000345,-1.840197456901098594
0.514000000000000346,-1.819205425270428167
0.515000000000000346,-1.798578721441706829
0.516000000000000347,-1.778311758191131187
0.517000000000000348,-1.758398991500347064
0.518000000000000349,-1.738834921508126685
0.519000000000000350,-1.719614093409306488
0.520000000000000351,-1.700731098302248112
0.521000000000000352,-1.682180573986154171
0.522000000000000353,-1.663957205709555520
0.523000000000000353,-1.646055726871223257
0.524000000000000354,-1.628470919674844364
0.525000000000000355,-1.611197615738626299
0.526000000000000356,-1.594230696661143920
0.527000000000000357,-1.577565094544621349
0.528000000000000358,-1.561195792476834043
0.529000000000000359,-1.545117824972844334
0.530000000000000360,-1.529326278377734383
0.531000000000000361,-1.513816291231476985
0.532000000000000361,-1.498583054597058206
0.533000000000000362,-1.483621812353022040
0.534000000000000363,-1.468927861451461370
0.535000000000000364,-1.454496552142570787
0.536000000000000365,-1.440323288166814653
0.537000000000000366,-1.426403526915736908
0.538000000000000367,-1.412732779562423158
0.539000000000000368,-1.399306611162658198
0.540000000000000369,-1.386120640727682485
0.541000000000000369,-1.373170541269589595
0.542000000000000370,-1.360452039820262415
0.543000000000000371,-1.347960917424753102
0.544000000000000372,-1.335693009110080487
0.545000000000000373,-1.323644203830259602
0.546000000000000374,-1.311810444388461505
0.547000000000000375,-1.300187727337147825
0.548000000000000376,-1.288772102857034252
0.549000000000000377,-1.277559674615652341
0.550000000000000377,-1.266546599606310775
0.551000000000000378,-1.255729087968287860
0.552000000000000379,-1.245103402788925395
0.553000000000000380,-1.234665859888446793
0.554000000000000381,-1.224412827588156061
0.555000000000000382,-1.214340726462784126
0.556000000000000383,-1.204446029077605562
0.557000000000000384,-1.194725259711068910
0.558000000000000385,-1.185174994063532106
0.559000000000000385,-1.175791858952793811
0.560000000000000386,-1.166572531996989959
0.561000000000000387,-1.157513741285524089
0.562000000000000388,-1.148612265038572611
0.563000000000000389,-1.139864931255758496
0.564000000000000390,-1.131268617354558303
0.565000000000000391,-1.122820249798983205
0.566000000000000392,-1.114516803719058036
0.567000000000000393,-1.106355302521629502
0.568000000000000393,-1.098332817492981395
0.569000000000000394,-1.090446467393772823
0.570000000000000395,-1.082693418046746459
0.571000000000000396,-1.075070881917679966
0.572000000000000397,-1.067576117690037574
0.573000000000000398,-1.060206429833709274
0.574000000000000399,-1.052959168168339676
0.575000000000000400,-1.045831727421551838
0.576000000000000401,-1.038821546782551453
0.577000000000000401,-1.031926109451442031
0.578000000000000402,-1.025142942184645189
0.579000000000000403,-1.018469614836758463
0.580000000000000404,-1.011903739899237653
0.581000000000000405,-1.005442972036215021
0.582000000000000406,-0.999085007617766641
0.583000000000000407,-0.992827584250986162
0.584000000000000408,-0.986668480309123908
0.585000000000000409,-0.980605514459103711
0.586000000000000409,-0.974636545187718917
0.587000000000000410,-0.968759470326745031
0.588000000000000411,-0.962972226577265333
0.589000000000000412,-0.957272789033446814
0.590000000000000413,-0.951659170706012247
0.591000000000000414,-0.946129422045658308
0.592000000000000415,-0.940681630466631447
0.593000000000000416,-0.935313919870690347
0.594000000000000417,-0.930024450171659467
0.595000000000000417,-0.924811416820793375
0.596000000000000418,-0.919673050333108422
0.597000000000000419,-0.914607615814922781
0.598000000000000420,-0.909613412492730866
0.599000000000000421,-0.904688773243621291
0.600000000000000422,-0.899832064127383702
0.601000000000000423,-0.895041683920474895
0.602000000000000424,-0.890316063651976464
0.603000000000000425,-0.885653666141720031
0.604000000000000425,-0.881052985540676681
0.605000000000000426,-0.876512546873772891
0.606000000000000427,-0.872030905585264193
0.607000000000000428,-0.867606647086732075
0.608000000000000429,-0.863238386307908834
0.609000000000000430,-0.858924767250325294
