# TricalciumSilicate-Wet-100_CS-13254-AC
# h[nm],U(h)[kJ/mol]
0.149999999999999994,94.076940871165760427
0.150999999999999995,91.436989755386974821
0.151999999999999996,89.026993809778588229
0.152999999999999997,86.737194419203660800
0.153999999999999998,84.525686026990584310
0.154999999999999999,82.378454207095202833
0.156000000000000000,80.290357328765679767
0.157000000000000001,78.257312640022504979
0.158000000000000002,76.274031651735668902
0.159000000000000002,74.334160339467416634
0.160000000000000003,72.431183104984810939
0.161000000000000004,70.559318897907104429
0.162000000000000005,68.714116654879859425
0.163000000000000006,66.892701667313502867
0.164000000000000007,65.093733518566580187
0.165000000000000008,63.317171046312296312
0.166000000000000009,61.563937247544480158
0.167000000000000010,59.835558532616779814
0.168000000000000010,58.133829987538504724
0.169000000000000011,56.460537209334802355
0.170000000000000012,54.817248308846366456
0.171000000000000013,53.205177408164239239
0.172000000000000014,51.625113016897799412
0.173000000000000015,50.077400266965085507
0.174000000000000016,48.561964237048883319
0.175000000000000017,47.078361686096350525
0.176000000000000018,45.625849754906326439
0.177000000000000018,44.203462053709699831
0.178000000000000019,42.810084644580228996
0.179000000000000020,41.444526487855291919
0.180000000000000021,40.105580788583736762
0.181000000000000022,38.792075264949552604
0.182000000000000023,37.502910632460199736
0.183000000000000024,36.237087558832932643
0.184000000000000025,34.993723021151950547
0.185000000000000026,33.772057427664620377
0.186000000000000026,32.571454095265934825
0.187000000000000027,31.391392744096595635
0.188000000000000028,30.231458623466672009
0.189000000000000029,29.091328754357970610
0.190000000000000030,27.970756593220670538
0.191000000000000031,26.869556214029120866
0.192000000000000032,25.787586889471590723
0.193000000000000033,24.724738741654757490
0.194000000000000034,23.680919937507891149
0.195000000000000034,22.656045730341112687
0.196000000000000035,21.650029500108331604
0.197000000000000036,20.662775822023071726
0.198000000000000037,19.694175495841744095
0.199000000000000038,18.744102394800279399
0.200000000000000039,17.812411941562981355
0.201000000000000040,16.898940985896580003
0.202000000000000041,16.003508842216561447
0.203000000000000042,15.125919241776056623
0.204000000000000042,14.265962961317786295
0.205000000000000043,13.423420904954038946
0.206000000000000044,12.598067436611161796
0.207000000000000045,11.789673784615558816
0.208000000000000046,10.998011366247382625
0.209000000000000047,10.222854906987432599
0.210000000000000048,9.463985255648804440
0.211000000000000049,8.721191821789508580
0.212000000000000050,7.994274585135225486
0.213000000000000050,7.283045647796352107
0.214000000000000051,6.587330318583768829
0.215000000000000052,5.906967734605041542
0.216000000000000053,5.241811038548162216
0.217000000000000054,4.591727140712369426
0.218000000000000055,3.956596103067870018
0.219000000000000056,3.336310188605943861
0.220000000000000057,2.730772623191350501
0.221000000000000058,2.139896119290794818
0.222000000000000058,1.563601211554245918
0.223000000000000059,1.001814453518151682
0.224000000000000060,0.454466522902642833
0.225000000000000061,-0.078509719691292404
0.226000000000000062,-0.597181177214990977
0.227000000000000063,-1.101616430091785670
0.228000000000000064,-1.591887584131739475
0.229000000000000065,-2.068072023289880157
0.230000000000000066,-2.530254042518177648
0.231000000000000066,-2.978526340326788535
0.232000000000000067,-3.412991354909975517
0.233000000000000068,-3.833762431741534193
0.234000000000000069,-4.240964814348410883
0.235000000000000070,-4.634736453491415276
0.236000000000000071,-5.015228633189654950
0.237000000000000072,-5.382606414906385695
0.238000000000000073,-5.737048903757385965
0.239000000000000073,-6.078749342810423784
0.240000000000000074,-6.407915043423136225
0.241000000000000075,-6.724767161124963089
0.242000000000000076,-7.029540327804481237
0.243000000000000077,-7.322482151934740280
0.244000000000000078,-7.603852599275325197
0.245000000000000079,-7.873923266954403921
0.246000000000000080,-8.132976564078688853
0.247000000000000081,-8.381304812068885113
0.248000000000000081,-8.619209277793858703
0.249000000000000082,-8.846999152302304381
0.250000000000000111,-9.064990487548049813
0.251000000000000112,-9.273505102993052418
0.252000000000000113,-9.472869473373652482
0.253000000000000114,-9.663413608243216046
0.254000000000000115,-9.845469933181488997
0.255000000000000115,-10.019372181796303067
0.256000000000000116,-10.185454306855421081
0.257000000000000117,-10.344049418084733105
0.258000000000000118,-10.495488753365034285
0.259000000000000119,-10.640100689263624290
0.260000000000000120,-10.778209796056305692
0.261000000000000121,-10.910135941636282197
0.262000000000000122,-11.036193447976733850
0.263000000000000123,-11.156690303115677665
0.264000000000000123,-11.271927430971089734
0.265000000000000124,-11.382198020672266381
0.266000000000000125,-11.487786916513353930
0.267000000000000126,-11.588970069097150883
0.268000000000000127,-11.686014047743476851
0.269000000000000128,-11.779175613785659138
0.270000000000000129,-11.868701353971314205
0.271000000000000130,-11.954827372819119446
0.272000000000000131,-12.037779042459581191
0.273000000000000131,-12.117770808204562982
0.274000000000000132,-12.195006047845216912
0.275000000000000133,-12.269676982469819748
0.276000000000000134,-12.341964636419044510
0.277000000000000135,-12.412038843854993786
0.278000000000000136,-12.480058299309812142
0.279000000000000137,-12.546170649497204508
0.280000000000000138,-12.610512623613757910
0.281000000000000139,-12.673210199324966396
0.282000000000000139,-12.734378801620144017
0.283000000000000140,-12.794123531729884036
0.284000000000000141,-12.852539423326778234
0.285000000000000142,-12.909711723272948802
0.286000000000000143,-12.965716194234953917
0.287000000000000144,-13.020619436555358917
0.288000000000000145,-13.074479226850337810
0.289000000000000146,-13.127344870890661710
0.290000000000000147,-13.179257568419771474
0.291000000000000147,-13.230250787664470380
0.292000000000000148,-13.280350647401073516
0.293000000000000149,-13.329576304549883403
0.294000000000000150,-13.377940345384478960
0.295000000000000151,-13.425449178556913665
0.296000000000000152,-13.472103428255305602
0.297000000000000153,-13.517898325925926883
0.298000000000000154,-13.562824099106251197
0.299000000000000155,-13.606866356028959331
0.300000000000000155,-13.650006464767747261
0.301000000000000156,-13.692221925804668459
0.302000000000000157,-13.733486737004804823
0.303000000000000158,-13.773771750086160282
0.304000000000000159,-13.813045017772347833
0.305000000000000160,-13.851272130910235347
0.306000000000000161,-13.888416544926581508
0.307000000000000162,-13.924439895084466556
0.308000000000000163,-13.959302300083271220
0.309000000000000163,-13.992962653624569924
0.310000000000000164,-14.025378903640506323
0.311000000000000165,-14.056508318950903913
0.312000000000000166,-14.086307743181080809
0.313000000000000167,-14.114733835833240150
0.314000000000000168,-14.141743300461433464
0.315000000000000169,-14.167293099952621205
0.316000000000000170,-14.191340658965410526
0.317000000000000171,-14.213844053622366914
0.318000000000000171,-14.234762188592867460
0.319000000000000172,-14.254054961740871832
0.320000000000000173,-14.271683416545224432
0.321000000000000174,-14.287609882530651007
0.322000000000000175,-14.301798103974402210
0.323000000000000176,-14.314213357177404617
0.324000000000000177,-14.324822556609698054
0.325000000000000178,-14.333594350257778061
0.326000000000000179,-14.340499204517465515
0.327000000000000179,-14.345509478988063279
0.328000000000000180,-14.348599491534894668
0.329000000000000181,-14.349745573995349446
0.330000000000000182,-14.348926118909863803
0.331000000000000183,-14.346121617664110204
0.332000000000000184,-14.341314690430881029
0.333000000000000185,-14.334490108301569222
0.334000000000000186,-14.325634807996641129
0.335000000000000187,-14.314737899542482324
0.336000000000000187,-14.301790667299382420
0.337000000000000188,-14.286786564720653558
0.338000000000000189,-14.269721203218159289
0.339000000000000190,-14.250592335503162289
0.340000000000000191,-14.229399833764230010
0.341000000000000192,-14.206145663036730653
0.342000000000000193,-14.180833850109490157
0.343000000000000194,-14.153470448305885299
0.344000000000000195,-14.124063498466531641
0.345000000000000195,-14.092622986451866396
0.346000000000000196,-14.059160797471724536
0.347000000000000197,-14.023690667539487009
0.348000000000000198,-13.986228132337263474
0.349000000000000199,-13.946790473767853413
0.350000000000000200,-13.905396664458541167
0.351000000000000201,-13.862067310470530757
0.352000000000000202,-13.816824592457058074
0.353000000000000203,-13.769692205502261473
0.354000000000000203,-13.720695297861889017
0.355000000000000204,-13.669860408816166597
0.356000000000000205,-13.617215405834508957
0.357000000000000206,-13.562789421241319587
0.358000000000000207,-13.506612788561374927
0.359000000000000208,-13.448716978713681769
0.360000000000000209,-13.389134536212329962
0.361000000000000210,-13.327899015523211546
0.362000000000000210,-13.265044917716181772
0.363000000000000211,-13.200607627542675360
0.364000000000000212,-13.134623351060270124
0.365000000000000213,-13.067129053916483272
0.366000000000000214,-12.998162400396074290
0.367000000000000215,-12.927761693327827430
0.368000000000000216,-12.855965814938917546
0.369000000000000217,-12.782814168737504090
0.370000000000000218,-12.708346622496890177
0.371000000000000218,-12.632603452407519029
0.372000000000000219,-12.555625288456615962
0.373000000000000220,-12.477453061088668917
0.374000000000000221,-12.398127949194014619
0.375000000000000222,-12.317691329466798678
0.376000000000000223,-12.236184727168216924
0.377000000000000224,-12.153649768325585967
0.378000000000000225,-12.070128133392731939
0.379000000000000226,-11.985661512392569605
0.380000000000000226,-11.900291561558303144
0.381000000000000227,-11.814059861485143088
0.382000000000000228,-11.727007876800943365
0.383000000000000229,-11.639176917360035901
0.384000000000000230,-11.550608100961083480
0.385000000000000231,-11.461342317586765915
0.386000000000000232,-11.371420195159647193
0.387000000000000233,-11.280882066806050545
0.388000000000000234,-11.189767939616842796
0.389000000000000234,-11.098117464891865680
0.390000000000000235,-11.005969909852137079
0.391000000000000236,-10.913364130802182927
0.392000000000000237,-10.820338547722657907
0.393000000000000238,-10.726931120271936848
0.394000000000000239,-10.633179325173433227
0.395000000000000240,-10.539120134964299780
0.396000000000000241,-10.444789998079700766
0.397000000000000242,-10.350224820245463420
0.398000000000000242,-10.255459947151527089
0.399000000000000243,-10.160530148376849979
0.400000000000000244,-10.065469602536364135
0.401000000000000245,-9.970311883619535465
0.402000000000000246,-9.875089948489588210
0.403000000000000247,-9.779836125511920386
0.404000000000000248,-9.684582104280025305
0.405000000000000249,-9.589358926406816863
0.406000000000000250,-9.494196977349020017
0.407000000000000250,-9.399125979232291428
0.408000000000000251,-9.304174984644534518
0.409000000000000252,-9.209372371365057930
0.410000000000000253,-9.114745837997109135
0.411000000000000254,-9.020322400471611601
0.412000000000000255,-8.926128389390040496
0.413000000000000256,-8.832189448174675661
0.414000000000000257,-8.738530531994639361
0.415000000000000258,-8.645175907436650320
0.416000000000000258,-8.552149152889636952
0.417000000000000259,-8.459473159612802107
0.418000000000000260,-8.367170133457239700
0.419000000000000261,-8.275261597211578390
0.420000000000000262,-8.183768393542710129
0.421000000000000263,-8.092710688503114369
0.422000000000000264,-8.002107975576924659
0.423000000000000265,-7.911979080237260931
0.424000000000000266,-7.822342164988265623
0.425000000000000266,-7.733214734865454076
0.426000000000000267,-7.644613643368982636
0.427000000000000268,-7.556555098804748738
0.428000000000000269,-7.469054671009097035
0.429000000000000270,-7.382127298433438511
0.430000000000000271,-7.295787295565586028
0.431000000000000272,-7.210048360665614275
0.432000000000000273,-7.124923583794246618
0.433000000000000274,-7.040425455112808706
0.434000000000000274,-6.956565873434124470
0.435000000000000275,-6.873356155004588075
0.436000000000000276,-6.790807042498198776
0.437000000000000277,-6.708928714203858945
0.438000000000000278,-6.627730793388126429
0.439000000000000279,-6.547222357816041338
0.440000000000000280,-6.467411949413204297
0.441000000000000281,-6.388307584053143806
0.442000000000000282,-6.309916761454389622
0.443000000000000282,-6.232246475172287248
0.444000000000000283,-6.155303222671315133
0.445000000000000284,-6.079093015464082761
0.446000000000000285,-6.003621389303704703
0.447000000000000286,-5.928893414417187202
0.448000000000000287,-5.854913705767313736
0.449000000000000288,-5.781686433331837627
0.450000000000000289,-5.709215332388657416
0.451000000000000290,-5.637503713796506943
0.452000000000000290,-5.566554474261161900
0.453000000000000291,-5.496370106577463055
0.454000000000000292,-5.426952709838175792
0.455000000000000293,-5.358303999600964929
0.456000000000000294,-5.290425318005318900
0.457000000000000295,-5.223317643831686397
0.458000000000000296,-5.156981602495450012
0.459000000000000297,-5.091417475968861517
0.460000000000000298,-5.026625212624362682
0.461000000000000298,-4.962604436993241386
0.462000000000000299,-4.899354459433797437
0.463000000000000300,-4.836874285703617105
0.464000000000000301,-4.775162626430996760
0.465000000000000302,-4.714217906480785203
0.466000000000000303,-4.654038274210198445
0.467000000000000304,-4.594621610610685636
0.468000000000000305,-4.535965538332040303
0.469000000000000306,-4.478067430585275233
0.470000000000000306,-4.420924419921249182
0.471000000000000307,-4.364533406881935029
0.472000000000000308,-4.308891068521974788
0.473000000000000309,-4.253993866797930679
0.474000000000000310,-4.199838056823283594
0.475000000000000311,-4.146419694987153903
0.476000000000000312,-4.093734646935294208
0.477000000000000313,-4.041778595411655850
0.478000000000000314,-3.990547047959503768
0.479000000000000314,-3.940035344480977475
0.480000000000000315,-3.890238664654216194
0.481000000000000316,-3.841152035207482385
0.482000000000000317,-3.792770337049682805
0.483000000000000318,-3.745088312257062846
0.484000000000000319,-3.698100570915831220
0.485000000000000320,-3.651801597820774958
0.486000000000000321,-3.606185759029917559
0.487000000000000322,-3.561247308275545809
0.488000000000000322,-3.516980393231905033
0.489000000000000323,-3.473379061640208043
0.490000000000000324,-3.430437267291453374
0.491000000000000325,-3.388148875867878385
0.492000000000000326,-3.346507670643794619
0.493000000000000327,-3.305507358046847255
0.494000000000000328,-3.265141573080625026
0.495000000000000329,-3.225403884609787664
0.496000000000000330,-3.186287800508871282
0.497000000000000330,-3.147786772676053779
0.498000000000000331,-3.109894201913172118
0.499000000000000332,-3.072603442673463192
0.500000000000000333,-3.035907807678420056
0.501000000000000334,-2.999800572405273424
0.502000000000000335,-2.964274979446722025
0.503000000000000336,-2.929324242744486995
0.504000000000000337,-2.894941551698316573
0.505000000000000338,-2.861120075152190800
0.506000000000000338,-2.827852965259441298
0.507000000000000339,-2.795133361228500757
0.508000000000000340,-2.762954392951143756
0.509000000000000341,-2.731309184515003263
0.510000000000000342,-2.700190857602194683
0.511000000000000343,-2.669592534775922843
0.512000000000000344,-2.639507342656936206
0.513000000000000345,-2.609928414991736112
0.514000000000000346,-2.580848895614432870
0.515000000000000346,-2.552261941304165838
0.516000000000000347,-2.524160724539972200
0.517000000000000348,-2.496538436155134821
0.518000000000000349,-2.469388287892758882
0.519000000000000350,-2.442703514864687175
0.520000000000000351,-2.416477377915563274
0.521000000000000352,-2.390703165894002336
0.522000000000000353,-2.365374197832796899
0.523000000000000353,-2.340483825040029053
0.524000000000000354,-2.316025433103067854
0.525000000000000355,-2.291992443807252755
0.526000000000000356,-2.268378316971211728
0.527000000000000357,-2.245176552200697451
0.528000000000000358,-2.222380690562697936
0.529000000000000359,-2.199984316181819111
0.530000000000000360,-2.177981057760623340
0.531000000000000361,-2.156364590025847683
0.532000000000000361,-2.135128635102202743
0.533000000000000362,-2.114266963815623956
0.534000000000000363,-2.093773396927655295
0.535000000000000364,-2.073641806302743085
0.536000000000000365,-2.053866116010156340
0.537000000000000366,-2.034440303362225588
0.538000000000000367,-2.015358399890563312
0.539000000000000368,-1.996614492261967744
0.540000000000000369,-1.978202723135568109
0.541000000000000369,-1.960117291962899078
0.542000000000000370,-1.942352455732437422
0.543000000000000371,-1.924902529660172501
0.544000000000000372,-1.907761887827781777
0.545000000000000373,-1.890924963769885281
0.546000000000000374,-1.874386251011888493
0.547000000000000375,-1.858140303559875361
0.548000000000000376,-1.842181736344015608
0.549000000000000377,-1.826505225616876560
0.550000000000000377,-1.811105509308011507
0.551000000000000378,-1.795977387336268993
0.552000000000000379,-1.781115721881078029
0.553000000000000380,-1.766515437614093242
0.554000000000000381,-1.752171521892435635
0.555000000000000382,-1.738079024914866988
0.556000000000000383,-1.724233059842054328
0.557000000000000384,-1.710628802882235844
0.558000000000000385,-1.697261493343394489
0.559000000000000385,-1.684126433653190036
0.560000000000000386,-1.671218989347712069
0.561000000000000387,-1.658534589030254747
0.562000000000000388,-1.646068724301156694
0.563000000000000389,-1.633816949659792073
0.564000000000000390,-1.621774882379770855
0.565000000000000391,-1.609938202358371484
0.566000000000000392,-1.598302651941194918
0.567000000000000393,-1.586864035723051236
0.568000000000000393,-1.575618220325987640
0.569000000000000394,-1.564561134155445732
0.570000000000000395,-1.553688767135419813
0.571000000000000396,-1.542997170423515696
0.572000000000000397,-1.532482456106813551
0.573000000000000398,-1.522140796879304592
0.574000000000000399,-1.511968425701826435
0.575000000000000400,-1.501961635445210330
0.576000000000000401,-1.492116778517475151
0.577000000000000401,-1.482430266475843306
0.578000000000000402,-1.472898569624274234
0.579000000000000403,-1.463518216597269328
0.580000000000000404,-1.454285793930670811
0.581000000000000405,-1.445197945620102731
0.582000000000000406,-1.436251372667737947
0.583000000000000407,-1.427442832618057267
0.584000000000000408,-1.418769139083195352
0.585000000000000409,-1.410227161258513551
0.586000000000000409,-1.401813823428990746
0.587000000000000410,-1.393526104466999760
0.588000000000000411,-1.385361037322043520
0.589000000000000412,-1.377315708502979685
0.590000000000000413,-1.369387257553278614
0.591000000000000414,-1.361572876519816067
0.592000000000000415,-1.353869809415702896
0.593000000000000416,-1.346275351677629128
0.594000000000000417,-1.338786849618181396
0.595000000000000417,-1.331401699873625777
0.596000000000000418,-1.324117348847508202
0.597000000000000419,-1.316931292150607558
0.598000000000000420,-1.309841074037543684
0.599000000000000421,-1.302844286840513677
0.600000000000000422,-1.295938570400493761
0.601000000000000423,-1.289121611496298669
0.602000000000000424,-1.282391143271842227
0.603000000000000425,-1.275744944661958424
0.604000000000000425,-1.269180839817092510
0.605000000000000426,-1.262696697527201151
0.606000000000000427,-1.256290430645187639
0.607000000000000428,-1.249959995510083965
0.608000000000000429,-1.243703391370426292
0.609000000000000430,-1.237518659807892885
