# TricalciumSilicate-Wet-100_CHOL-JS
# h[nm],U(h)[kJ/mol]
0.149999999999999994,139.267443688998667994
0.150999999999999995,136.251669313160107322
0.151999999999999996,133.596644954593784860
0.152999999999999997,131.092500029157548624
0.153999999999999998,128.648655040022873663
0.154999999999999999,126.233590055257991480
0.156000000000000000,123.841795506524391612
0.157000000000000001,121.476772836220220597
0.158000000000000002,119.143160043910796730
0.159000000000000002,116.843774568910333755
0.160000000000000003,114.579094141174820720
0.161000000000000004,112.347774629533248003
0.162000000000000005,110.147460766991869718
0.163000000000000006,107.975533133512726636
0.164000000000000007,105.829653389756884962
0.165000000000000008,103.708084998730058146
0.166000000000000009,101.609820651494800359
0.167000000000000010,99.534566897164921784
0.168000000000000010,97.482637443099989127
0.169000000000000011,95.454799021699002992
0.170000000000000012,93.452103206220073162
0.171000000000000013,91.475727083413232776
0.172000000000000014,89.526836665316892550
0.173000000000000015,87.606479844692870529
0.174000000000000016,85.715510571182647936
0.175000000000000017,83.854542510200985816
0.176000000000000018,82.023928414272731402
0.177000000000000018,80.223760449295539843
0.178000000000000019,78.453886472387111439
0.179000000000000020,76.713937501292491561
0.180000000000000021,75.003362150363003025
0.181000000000000022,73.321464488214843414
0.182000000000000023,71.667442494087453042
0.183000000000000024,70.040424985417359949
0.184000000000000025,68.439505516977490629
0.185000000000000026,66.863772290744435622
0.186000000000000026,65.312333558099098241
0.187000000000000027,63.784338344006584975
0.188000000000000028,62.278992584188507919
0.189000000000000029,60.795570951830413264
0.190000000000000030,59.333424772164640615
0.191000000000000031,57.891986493434345107
0.192000000000000032,56.470771212603054323
0.193000000000000033,55.069375753803299745
0.194000000000000034,53.687475775575350667
0.195000000000000034,52.324821346585700610
0.196000000000000035,50.981231384497917247
0.197000000000000036,49.656587303460767657
0.198000000000000037,48.350826165629506193
0.199000000000000038,47.063933583650637615
0.200000000000000039,45.795936575741862384
0.201000000000000040,44.546896533890794956
0.202000000000000041,43.316902429300277788
0.203000000000000042,42.106064347691201988
0.204000000000000042,40.914507420329371712
0.205000000000000043,39.742366194405690294
0.206000000000000044,38.589779468271338203
0.207000000000000045,37.456885602568981142
0.208000000000000046,36.343818307032151438
0.209000000000000047,35.250702894179077873
0.210000000000000048,34.177652984859975049
0.211000000000000049,33.124767646220711015
0.212000000000000050,32.092128939748583605
0.213000000000000050,31.079799855356107230
0.214000000000000051,30.087822606651030810
0.215000000000000052,29.116217262413567113
0.216000000000000053,28.164980689659046220
0.217000000000000054,27.234085784356970805
0.218000000000000055,26.323480966782216939
0.219000000000000056,25.433089919503004239
0.220000000000000057,24.562811547086887742
0.221000000000000058,23.712520137693211097
0.222000000000000058,22.882065707770273377
0.223000000000000059,22.071274512081924257
0.224000000000000060,21.279949702229476571
0.225000000000000061,20.507872117713109361
0.226000000000000062,19.754801194391699681
0.227000000000000063,19.020475975956649961
0.228000000000000064,18.304616214741578517
0.229000000000000065,17.606923548852179806
0.230000000000000066,16.927082743230450035
0.231000000000000066,16.264762982870195174
0.232000000000000067,15.619619206985817073
0.233000000000000068,14.991293473509312406
0.234000000000000069,14.379416343856458838
0.235000000000000070,13.783608278467022856
0.236000000000000071,13.203481034188945031
0.237000000000000072,12.638639055141759115
0.238000000000000073,12.088680849265102779
0.239000000000000073,11.553200343331527122
0.240000000000000074,11.031788209776259180
0.241000000000000075,10.524033159273589177
0.242000000000000076,10.029523193563552041
0.243000000000000077,9.547846813603220184
0.244000000000000078,9.078594178681928639
0.245000000000000079,8.621358212695408696
0.246000000000000080,8.175735654318803114
0.247000000000000081,7.741328048347985380
0.248000000000000081,7.317742675992773727
0.249000000000000082,6.904593422400206570
0.250000000000000111,6.501501580158979721
0.251000000000000112,6.108096587987216886
0.252000000000000113,5.724016704230171726
0.253000000000000114,5.348909615195685419
0.254000000000000115,4.982432978726355266
0.255000000000000115,4.624254903753245216
0.256000000000000116,4.274054366891809842
0.257000000000000117,3.931521567428793329
0.258000000000000118,3.596358222308936092
0.259000000000000119,3.268277802961168099
0.260000000000000120,2.947005716007631282
0.261000000000000121,2.632279430075950444
0.262000000000000122,2.323848551084997105
0.263000000000000123,2.021474848500125265
0.264000000000000123,1.724932235154428950
0.265000000000000124,1.434006703311068165
0.266000000000000125,1.148496219697906273
0.267000000000000126,0.868210582282198495
0.268000000000000127,0.592971241569828278
0.269000000000000128,0.322611089213802771
0.270000000000000129,0.056974216700231749
0.271000000000000130,-0.204084353151344905
0.272000000000000131,-0.460698959180269263
0.273000000000000131,-0.712993616733315627
0.274000000000000132,-0.961082351799517509
0.275000000000000133,-1.205069551937731021
0.276000000000000134,-1.445050331587339310
0.277000000000000135,-1.681110909443149337
0.278000000000000136,-1.913328995672718191
0.279000000000000137,-2.141774186855244899
0.280000000000000138,-2.366508366626075777
0.281000000000000139,-2.587586110118757610
0.282000000000000139,-2.805055090405809359
0.283000000000000140,-3.018956485250044786
0.284000000000000141,-3.229325382589004700
0.285000000000000142,-3.436191183285637774
0.286000000000000143,-3.639577999787860563
0.287000000000000144,-3.839505049447436313
0.288000000000000145,-4.035987041355233451
0.289000000000000146,-4.229034555652661176
0.290000000000000147,-4.418654414380901230
0.291000000000000147,-4.604850043026516460
0.292000000000000148,-4.787621822017085194
0.293000000000000149,-4.966967427510789790
0.294000000000000150,-5.142882160911287137
0.295000000000000151,-5.315359266622238010
0.296000000000000152,-5.484390237634957366
0.297000000000000153,-5.649965108617717391
0.298000000000000154,-5.812072736246174820
0.299000000000000155,-5.970701066581126426
0.300000000000000155,-6.125837389362446039
0.301000000000000156,-6.277468579146468386
0.302000000000000157,-6.425581323268849232
0.303000000000000158,-6.570162336665032576
0.304000000000000159,-6.711198563627482017
0.305000000000000160,-6.848677366621243934
0.306000000000000161,-6.982586702318831939
0.307000000000000162,-7.112915285050945613
0.308000000000000163,-7.239652737901484336
0.309000000000000163,-7.362789731704339147
0.310000000000000164,-7.482318112225118334
0.311000000000000165,-7.598231015833410318
0.312000000000000166,-7.710522973991262852
0.313000000000000167,-7.819190006900413437
0.314000000000000168,-7.924229706665260942
0.315000000000000169,-8.025641310340798640
0.316000000000000170,-8.123425763244355835
0.317000000000000171,-8.217585772917633591
0.318000000000000171,-8.308125854131059640
0.319000000000000172,-8.395052365326586497
0.320000000000000173,-8.478373536896548046
0.321000000000000174,-8.558099491697094052
0.322000000000000175,-8.634242258193429720
0.323000000000000176,-8.706815776631810166
0.324000000000000177,-8.775835898629592791
0.325000000000000178,-8.841320380569781534
0.326000000000000179,-8.903288871181150199
0.327000000000000179,-8.961762893677860831
0.328000000000000180,-9.016765822825364651
0.329000000000000181,-9.068322857291283512
0.330000000000000182,-9.116460987630693680
0.331000000000000183,-9.161208960246559840
0.332000000000000184,-9.202597237655613327
0.333000000000000185,-9.240657955380207511
0.334000000000000186,-9.275424875775922118
0.335000000000000187,-9.306933339093959034
0.336000000000000187,-9.335220212066522194
0.337000000000000188,-9.360323834291829570
0.338000000000000189,-9.382283962684686784
0.339000000000000190,-9.401141714247017944
0.340000000000000191,-9.416939507401213660
0.341000000000000192,-9.429721002118544249
0.342000000000000193,-9.439531039063016493
0.343000000000000194,-9.446415577960602050
0.344000000000000195,-9.450421635392141084
0.345000000000000195,-9.451597222198321546
0.346000000000000196,-9.449991280673653904
0.347000000000000197,-9.445653621716619597
0.348000000000000198,-9.438634862092746047
0.349000000000000199,-9.428986361957402806
0.350000000000000200,-9.416760162775668519
0.351000000000000201,-9.402008925767011860
0.352000000000000202,-9.384785870993477275
0.353000000000000203,-9.365144717201294711
0.354000000000000203,-9.343139622517318443
0.355000000000000204,-9.318825126093191358
0.356000000000000205,-9.292256090782544220
0.357000000000000206,-9.263487646928812325
0.358000000000000207,-9.232575137333544291
0.359000000000000208,-9.199574063468650920
0.360000000000000209,-9.164540032988858442
0.361000000000000210,-9.127528708594294216
0.362000000000000210,-9.088595758287141280
0.363000000000000211,-9.047796807060199953
0.364000000000000212,-9.005187390050021889
0.365000000000000213,-8.960822907181430708
0.366000000000000214,-8.914758579325937404
0.367000000000000215,-8.867049405991185296
0.368000000000000216,-8.817750124554633473
0.369000000000000217,-8.766915171050055022
0.370000000000000218,-8.714598642511877102
0.371000000000000218,-8.660854260878263489
0.372000000000000219,-8.605735338450783090
0.373000000000000220,-8.549294744904980092
0.374000000000000221,-8.491584875843360081
0.375000000000000222,-8.432657622879176529
0.376000000000000223,-8.372564345237353933
0.377000000000000224,-8.311355842855881804
0.378000000000000225,-8.249082330969283561
0.379000000000000226,-8.185793416153407165
0.380000000000000226,-8.121538073809318803
0.381000000000000227,-8.056364627061842754
0.382000000000000228,-7.990320727047475202
0.383000000000000229,-7.923453334564430683
0.384000000000000230,-7.855808703056615272
0.385000000000000231,-7.787432362902427130
0.386000000000000232,-7.718369106977890581
0.387000000000000233,-7.648662977463281720
0.388000000000000234,-7.578357253861296883
0.389000000000000234,-7.507494442194603046
0.390000000000000235,-7.436116265349745902
0.391000000000000236,-7.364263654534369152
0.392000000000000237,-7.291976741814065299
0.393000000000000238,-7.219294853695328307
0.394000000000000239,-7.146256505720566921
0.395000000000000240,-7.072899398041466945
0.396000000000000241,-6.999260411936814918
0.397000000000000242,-6.925375607240896514
0.398000000000000242,-6.851280220649113240
0.399000000000000243,-6.777008664867236298
0.400000000000000244,-6.702594528571211185
0.401000000000000245,-6.628070577144884901
0.402000000000000246,-6.553468754163020549
0.403000000000000247,-6.478820183587662207
0.404000000000000248,-6.404155172646329497
0.405000000000000249,-6.329503215360853474
0.406000000000000250,-6.254892996696288954
0.407000000000000250,-6.180352397299882838
0.408000000000000251,-6.105908498800525663
0.409000000000000252,-6.031587589639892499
0.410000000000000253,-5.957415171406834631
0.411000000000000254,-5.883415965647452950
0.412000000000000255,-5.809613921123701452
0.413000000000000256,-5.736032221494236083
0.414000000000000257,-5.662693293391582117
0.415000000000000258,-5.589618814870756403
0.416000000000000258,-5.516829724204738383
0.417000000000000259,-5.444346229003167892
0.418000000000000260,-5.372187815631198404
0.419000000000000261,-5.300373258906073914
0.420000000000000262,-5.228920632049796957
0.421000000000000263,-5.157847316876856603
0.422000000000000264,-5.087170014196650492
0.423000000000000265,-5.016904754410896672
0.424000000000000266,-4.947066908287203191
0.425000000000000266,-4.877671197890207644
0.426000000000000267,-4.808731707652813547
0.427000000000000268,-4.740261895570357709
0.428000000000000269,-4.672274604501356343
0.429000000000000270,-4.604782073559118949
0.430000000000000271,-4.537795949578915966
0.431000000000000272,-4.471327298646376569
0.432000000000000273,-4.405386617673000771
0.433000000000000274,-4.339983846005579515
0.434000000000000274,-4.275128377056608642
0.435000000000000275,-4.210829069943631708
0.436000000000000276,-4.147094261125802817
0.437000000000000277,-4.083931776026508587
0.438000000000000278,-4.021348940631563451
0.439000000000000279,-3.959352593052891223
0.440000000000000280,-3.897949095048068191
0.441000000000000281,-3.837144343486746045
0.442000000000000282,-3.776943781755350837
0.443000000000000282,-3.717352411091860098
0.444000000000000283,-3.658374801843090385
0.445000000000000284,-3.600015104637234398
0.446000000000000285,-3.542277061464714993
0.447000000000000286,-3.485164016661234765
0.448000000000000287,-3.428678927786714237
0.449000000000000288,-3.372824376394791379
0.450000000000000289,-3.317602578687457449
0.451000000000000290,-3.263015396050062744
0.452000000000000290,-3.209064345462189660
0.453000000000000291,-3.155750609780131999
0.454000000000000292,-3.103075047887257298
0.455000000000000293,-3.051038204708582224
0.456000000000000294,-2.999640321086464390
0.457000000000000295,-2.948881343514381470
0.458000000000000296,-2.898760933726183264
0.459000000000000297,-2.849278478138441706
0.460000000000000298,-2.800433097143726346
0.461000000000000298,-2.752223654252996976
0.462000000000000299,-2.704648765085441386
0.463000000000000300,-2.657706806204302108
0.464000000000000301,-2.611395923797613428
0.465000000000000302,-2.565714042202800194
0.466000000000000303,-2.520658872274331053
0.467000000000000304,-2.476227919593903426
0.468000000000000305,-2.432418492522736564
0.469000000000000306,-2.389227710095684021
0.470000000000000306,-2.346652509757232163
0.471000000000000307,-2.304689654939271914
0.472000000000000308,-2.263335742481112245
0.473000000000000309,-2.222587209891915272
0.474000000000000310,-2.182440342456215543
0.475000000000000311,-2.142891280183040870
0.476000000000000312,-2.103936024599557975
0.477000000000000313,-2.065570445389913523
0.478000000000000314,-2.027790286880408299
0.479000000000000314,-1.990591174372060568
0.480000000000000315,-1.953968620321634209
0.481000000000000316,-1.917918030372558036
0.482000000000000317,-1.882434709236912251
0.483000000000000318,-1.847513866430047003
0.484000000000000319,-1.813150621859212830
0.485000000000000320,-1.779340011267873889
0.486000000000000321,-1.746076991537225620
0.487000000000000322,-1.713356445846680343
0.488000000000000322,-1.681173188694946585
0.489000000000000323,-1.649521970783637936
0.490000000000000324,-1.618397483765081635
0.491000000000000325,-1.587794364856297769
0.492000000000000326,-1.557707201320957635
0.493000000000000327,-1.528130534821350750
0.494000000000000328,-1.499058865642250105
0.495000000000000329,-1.470486656788687840
0.496000000000000330,-1.442408337959634190
0.497000000000000330,-1.414818309399656027
0.498000000000000331,-1.387710945630486803
0.499000000000000332,-1.361080599064726337
0.500000000000000333,-1.334921603503590681
0.501000000000000334,-1.309228277520847250
0.502000000000000335,-1.283994927735031100
0.503000000000000336,-1.259215851972007361
0.504000000000000337,-1.234885342319943069
0.505000000000000338,-1.210997688078814694
0.506000000000000338,-1.187547178606509046
0.507000000000000339,-1.164528106063579260
0.508000000000000340,-1.141934768058740612
0.509000000000000341,-1.119761470197202957
0.510000000000000342,-1.098002528533807531
0.511000000000000343,-1.076652271933087324
0.512000000000000344,-1.055705044338224985
0.513000000000000345,-1.035155206950952422
0.514000000000000346,-1.014997140324386260
0.515000000000000346,-0.995225246370762151
0.516000000000000347,-0.975833950286023821
0.517000000000000348,-0.956817702393301217
0.518000000000000349,-0.938170979907038016
0.519000000000000350,-0.919888288619849170
0.520000000000000351,-0.901964164513866629
0.521000000000000352,-0.884393175298520462
0.522000000000000353,-0.867169921876533634
0.523000000000000353,-0.850289039739972941
0.524000000000000354,-0.833745200298182221
0.525000000000000355,-0.817533112139307683
0.526000000000000356,-0.801647522227187048
0.527000000000000357,-0.786083217035380644
0.528000000000000358,-0.770835023619897197
0.529000000000000359,-0.755897810632466860
0.530000000000000360,-0.741266489275835161
0.531000000000000361,-0.726936014202831049
0.532000000000000361,-0.712901384360691059
0.533000000000000362,-0.699157643782303939
0.534000000000000363,-0.685699882325824683
0.535000000000000364,-0.672523236364237720
0.536000000000000365,-0.659622889426312864
0.537000000000000366,-0.646994072790441632
0.538000000000000367,-0.634632066032736364
0.539000000000000368,-0.622532197530891063
0.540000000000000369,-0.610689844925047631
0.541000000000000369,-0.599100435537165299
0.542000000000000370,-0.587759446750095060
0.543000000000000371,-0.576662406347721701
0.544000000000000372,-0.565804892817447946
0.545000000000000373,-0.555182535616236095
0.546000000000000374,-0.544791015401438150
0.547000000000000375,-0.534626064227613051
0.548000000000000376,-0.524683465710517050
0.549000000000000377,-0.514959055159372237
0.550000000000000377,-0.505448719678547986
0.551000000000000378,-0.496148398239760868
0.552000000000000379,-0.487054081725851185
0.553000000000000380,-0.478161812947171860
0.554000000000000381,-0.469467686631613368
0.555000000000000382,-0.460967849389289419
0.556000000000000383,-0.452658499652781265
0.557000000000000384,-0.444535887594001422
0.558000000000000385,-0.436596315018472070
0.559000000000000385,-0.428836135238044480
0.560000000000000386,-0.421251752922845946
0.561000000000000387,-0.413839623933370315
0.562000000000000388,-0.406596255133520212
0.563000000000000389,-0.399518204185426939
0.564000000000000390,-0.392602079326843323
0.565000000000000391,-0.385844539131877606
0.566000000000000392,-0.379242292255814295
0.567000000000000393,-0.372792097164793057
0.568000000000000393,-0.366490761850992330
0.569000000000000394,-0.360335143534075197
0.570000000000000395,-0.354322148349541899
0.571000000000000396,-0.348448731024629477
0.572000000000000397,-0.342711894542453654
0.573000000000000398,-0.337108689794927918
0.574000000000000399,-0.331636215225152520
0.575000000000000400,-0.326291616459771172
0.576000000000000401,-0.321072085931921491
0.577000000000000401,-0.315974862495328412
0.578000000000000402,-0.310997231030032517
0.579000000000000403,-0.306136522040288073
0.580000000000000404,-0.301390111245178893
0.581000000000000405,-0.296755419162363920
0.582000000000000406,-0.292229910685474104
0.583000000000000407,-0.287811094655608390
0.584000000000000408,-0.283496523427350378
0.585000000000000409,-0.279283792429760980
0.586000000000000409,-0.275170539722740803
0.587000000000000410,-0.271154445549183110
0.588000000000000411,-0.267233231883270972
0.589000000000000412,-0.263404661975339738
0.590000000000000413,-0.259666539893616211
0.591000000000000414,-0.256016710063222352
0.592000000000000415,-0.252453056802763864
0.593000000000000416,-0.248973503858828993
0.594000000000000417,-0.245576013938705595
0.595000000000000417,-0.242258588241659162
0.596000000000000418,-0.239019265988975910
0.597000000000000419,-0.235856123953169489
0.598000000000000420,-0.232767275986506428
0.599000000000000421,-0.229750872549197516
0.600000000000000422,-0.226805100237455315
0.601000000000000423,-0.223928181311678548
0.602000000000000424,-0.221118373224986758
0.603000000000000425,-0.218373968152344666
0.604000000000000425,-0.215693292520455715
0.605000000000000426,-0.213074706538651792
0.606000000000000427,-0.210516603731013108
0.607000000000000428,-0.208017410469769098
0.608000000000000429,-0.205575585510395342
0.609000000000000430,-0.203189619528283794
0.610000000000000431,-0.200858034657441203
0.611000000000000432,-0.198579384031154937
0.612000000000000433,-0.196352251324871274
0.613000000000000433,-0.194175250301451247
