# TricalciumSilicate-Wet-100_PYRIDINE-AC
# h[nm],U(h)[kJ/mol]
0.149999999999999994,99.131638371137000831
0.150999999999999995,96.958281224660225917
0.151999999999999996,94.613894942971526802
0.152999999999999997,92.273668911725081898
0.153999999999999998,90.003125230180472727
0.154999999999999999,87.813700554459899195
0.156000000000000000,85.694032795490812759
0.157000000000000001,83.626477572470406585
0.158000000000000002,81.594940575483320799
0.159000000000000002,79.587838023136100674
0.160000000000000003,77.598512877522381359
0.161000000000000004,75.624480367766821587
0.162000000000000005,73.666274994300351864
0.163000000000000006,71.726301515533080533
0.164000000000000007,69.807872697723581723
0.165000000000000008,67.914492135562497310
0.166000000000000009,66.049375046440857773
0.167000000000000010,64.215170011264234518
0.168000000000000010,62.413835058173916082
0.169000000000000011,60.646622786449107423
0.170000000000000012,58.914135641699907353
0.171000000000000013,57.216420617521961844
0.172000000000000014,55.553080733144895476
0.173000000000000015,53.923387721097661540
0.174000000000000016,52.326386112114654736
0.175000000000000017,50.760983299190698403
0.176000000000000018,49.226023332606452243
0.177000000000000018,47.720344344668724545
0.178000000000000019,46.242820842881755539
0.179000000000000020,44.792392844700188448
0.180000000000000021,43.368084129282024719
0.181000000000000022,41.969011892778965489
0.182000000000000023,40.594389923229741157
0.183000000000000024,39.243527140601159431
0.184000000000000025,37.915823034999469598
0.185000000000000026,36.610761220752628731
0.186000000000000026,35.327902030605585537
0.187000000000000027,34.066874816539609583
0.188000000000000028,32.827370407862609625
0.189000000000000029,31.609134004113769834
0.190000000000000030,30.411958647501535324
0.191000000000000031,29.235679322625639287
0.192000000000000032,28.080167664755116164
0.193000000000000033,26.945327216345638988
0.194000000000000034,25.831089149407752359
0.195000000000000034,24.737408363901764119
0.196000000000000035,23.664259875307422476
0.197000000000000036,22.611635414358079998
0.198000000000000037,21.579540175790629775
0.199000000000000038,20.567989668630058731
0.200000000000000039,19.577006636353768698
0.201000000000000040,18.606618030100968042
0.202000000000000041,17.656852031144573800
0.203000000000000042,16.727735129690209703
0.204000000000000042,15.819289275516151605
0.205000000000000043,14.931529122025381184
0.206000000000000044,14.064459389072613504
0.207000000000000045,13.218072371684806754
0.208000000000000046,12.392345621785409548
0.209000000000000047,11.587239828563928867
0.210000000000000048,10.802696920509358591
0.211000000000000049,10.038638408643986821
0.212000000000000050,9.294963986422695612
0.213000000000000050,8.571550397351142436
0.214000000000000051,7.868250576829346699
0.215000000000000052,7.184893070227249545
0.216000000000000053,6.521281724887006526
0.217000000000000054,5.877195649736053795
0.218000000000000055,5.252389432567675875
0.219000000000000056,4.646593601860501188
0.220000000000000057,4.059515317294023262
0.221000000000000058,3.490839270896617386
0.222000000000000058,2.940228779023118744
0.223000000000000059,2.407327044096623236
0.224000000000000060,1.891758564231091011
0.225000000000000061,1.393130668448693266
0.226000000000000062,0.911035155180375034
0.227000000000000063,0.445050012047483456
0.228000000000000064,-0.005258804474373236
0.229000000000000065,-0.440335550056892289
0.230000000000000066,-0.860632853673139797
0.231000000000000066,-1.266609877166111620
0.232000000000000067,-1.658730490139017189
0.233000000000000068,-2.037461475628069785
0.234000000000000069,-2.403270780511491900
0.235000000000000070,-2.756625823070759207
0.236000000000000071,-3.097991868576277064
0.237000000000000072,-3.427830482244705657
0.238000000000000073,-3.746598067424897316
0.239000000000000073,-4.054744495431957141
0.240000000000000074,-4.352711832078135501
0.241000000000000075,-4.640933164652697229
0.242000000000000076,-4.919831531890991094
0.243000000000000077,-5.189818958350614686
0.244000000000000078,-5.451295593582809573
0.245000000000000079,-5.704648955552651834
0.246000000000000080,-5.950253276921921852
0.247000000000000081,-6.188468952063903572
0.248000000000000081,-6.419642082025855068
0.249000000000000082,-6.644104114091031299
0.250000000000000111,-6.862171572113733298
0.251000000000000112,-7.074145873402729379
0.252000000000000113,-7.280313227607891235
0.253000000000000114,-7.480944612813246408
0.254000000000000115,-7.676295823856278844
0.255000000000000115,-7.866607587768347010
0.256000000000000116,-8.052105741162371544
0.257000000000000117,-8.233001464374497758
0.258000000000000118,-8.409491567190912065
0.259000000000000119,-8.581758821055618824
0.260000000000000120,-8.749972332753916504
0.261000000000000121,-8.914287954694227523
0.262000000000000122,-9.074848727065930376
0.263000000000000123,-9.231785347325368818
0.264000000000000123,-9.385216662656080899
0.265000000000000124,-9.535250181255655377
0.266000000000000125,-9.681982598520013639
0.267000000000000126,-9.825500334421064963
0.268000000000000127,-9.965880078605085401
0.269000000000000128,-10.103189339972244554
0.270000000000000129,-10.237486997732073490
0.271000000000000130,-10.368823851162648708
0.272000000000000131,-10.497243165530989017
0.273000000000000131,-10.622781211857850181
0.274000000000000132,-10.745467798429586992
0.275000000000000133,-10.865326792173465975
0.276000000000000134,-10.982376628217972225
0.277000000000000135,-11.096630806157055105
0.278000000000000136,-11.208098371725871090
0.279000000000000137,-11.316784382774924822
0.280000000000000138,-11.422690358598861948
0.281000000000000139,-11.525814711836533277
0.282000000000000139,-11.626153162308899169
0.283000000000000140,-11.723699132301657500
0.284000000000000141,-11.818444122930042539
0.285000000000000142,-11.910378071344137396
0.286000000000000143,-11.999489688644521479
0.287000000000000144,-12.085766778480071082
0.288000000000000145,-12.169196536393476649
0.289000000000000146,-12.249765830064161420
0.290000000000000147,-12.327461460675094074
0.291000000000000147,-12.402270405698072153
0.292000000000000148,-12.474180043453291233
0.293000000000000149,-12.543178359852289461
0.294000000000000150,-12.609254137780544269
0.295000000000000151,-12.672397129616390643
0.296000000000000152,-12.732598213417382738
0.297000000000000153,-12.789849533334134435
0.298000000000000154,-12.844144624835214685
0.299000000000000155,-12.895478525345541954
0.300000000000000155,-12.943847870914940046
0.301000000000000156,-12.989250979543447428
0.302000000000000157,-13.031687921796665464
0.303000000000000158,-13.071160579346889463
0.304000000000000159,-13.107672692075666987
0.305000000000000160,-13.141229894370161091
0.306000000000000161,-13.171839741239983468
0.307000000000000162,-13.199511724873136842
0.308000000000000163,-13.224257282239506139
0.309000000000000163,-13.246089794338624657
0.310000000000000164,-13.265024577674804362
0.311000000000000165,-13.281078868527979253
0.312000000000000166,-13.294271800572630582
0.313000000000000167,-13.304624376380223438
0.314000000000000168,-13.312159433322594992
0.315000000000000169,-13.316901604375567914
0.316000000000000170,-13.318877274303115854
0.317000000000000171,-13.318114531682784474
0.318000000000000171,-13.314643117213838863
0.319000000000000172,-13.308494368729892443
0.320000000000000173,-13.299701163317795505
0.321000000000000174,-13.288297856925060714
0.322000000000000175,-13.274320221818564747
0.323000000000000176,-13.257805382237810576
0.324000000000000177,-13.238791748567052764
0.325000000000000178,-13.217318950331664595
0.326000000000000179,-13.193427768306150938
0.327000000000000179,-13.167160066002708163
0.328000000000000180,-13.138558720792147483
0.329000000000000181,-13.107667554891998307
0.330000000000000182,-13.074531266439709754
0.331000000000000183,-13.039195360853501171
0.332000000000000184,-13.001706082667515929
0.333000000000000185,-12.962110348013350603
0.334000000000000186,-12.920455677905806624
0.335000000000000187,-12.876790132476774176
0.336000000000000187,-12.831162246288480233
0.337000000000000188,-12.783620964844340406
0.338000000000000189,-12.734215582404100786
0.339000000000000190,-12.682995681198510951
0.340000000000000191,-12.630011072127684812
0.341000000000000192,-12.575311737017695890
0.342000000000000193,-12.518947772499513960
0.343000000000000194,-12.460969335565957650
0.344000000000000195,-12.401426590853137810
0.345000000000000195,-12.340369659685238801
0.346000000000000196,-12.277848570913494797
0.347000000000000197,-12.213913213573308170
0.348000000000000198,-12.148613291376806345
0.349000000000000199,-12.081998279051756384
0.350000000000000200,-12.014117380532178814
0.351000000000000201,-11.945019489000507917
0.352000000000000202,-11.874753148776232337
0.353000000000000203,-11.803366519041476934
0.354000000000000203,-11.730907339389611721
0.355000000000000204,-11.657422897179205989
0.356000000000000205,-11.582959996672226310
0.357000000000000206,-11.507564929932083686
0.358000000000000207,-11.431283449454156198
0.359000000000000208,-11.354160742499086467
0.360000000000000209,-11.276241407096559755
0.361000000000000210,-11.197569429685355402
0.362000000000000210,-11.118188164353568936
0.363000000000000211,-11.038140313641328305
0.364000000000000212,-10.957467910867055849
0.365000000000000213,-10.876212303936934944
0.366000000000000214,-10.794414140596517271
0.367000000000000215,-10.712113355082323096
0.368000000000000216,-10.629349156131045362
0.369000000000000217,-10.546160016303014473
0.370000000000000218,-10.462583662576708576
0.371000000000000218,-10.378657068170516808
0.372000000000000219,-10.294416445548149497
0.373000000000000220,-10.209897240564041354
0.374000000000000221,-10.125134127705260667
0.375000000000000222,-10.040161006386547626
0.376000000000000223,-9.955010998255760413
0.377000000000000224,-9.869716445467073385
0.378000000000000225,-9.784308909880021332
0.379000000000000226,-9.698819173142814165
0.380000000000000226,-9.613277237619348270
0.381000000000000227,-9.527712328119401164
0.382000000000000228,-9.442152894392963347
0.383000000000000229,-9.356626614349801585
0.384000000000000230,-9.271160397966403011
0.385000000000000231,-9.185780391843483272
0.386000000000000232,-9.100511984377652297
0.387000000000000233,-9.015379811512143959
0.388000000000000234,-8.930407763032132351
0.389000000000000234,-8.845618989371356378
0.390000000000000235,-8.761035908897337521
0.391000000000000236,-8.676680215643855831
0.392000000000000237,-8.592572887459901665
0.393000000000000238,-8.508734194545613860
0.394000000000000239,-8.425183708346356326
0.395000000000000240,-8.341940310777337331
0.396000000000000241,-8.259022203751907654
0.397000000000000242,-8.176446918987650747
0.398000000000000242,-8.094231328065541575
0.399000000000000243,-8.012391652717989032
0.400000000000000244,-7.930943475322765224
0.401000000000000245,-7.849901749580799226
0.402000000000000246,-7.769280811356398253
0.403000000000000247,-7.689094389659554274
0.404000000000000248,-7.609355617750902745
0.405000000000000249,-7.530077044350568016
0.406000000000000250,-7.451270644933051024
0.407000000000000250,-7.372947833091190617
0.408000000000000251,-7.295119471952856038
0.409000000000000252,-7.217795885635005959
0.410000000000000253,-7.140986870720307245
0.411000000000000254,-7.064701707742395698
0.412000000000000255,-6.988949172666511167
0.413000000000000256,-6.913737548352933970
0.414000000000000257,-6.839074635991292617
0.415000000000000258,-6.764967766494626389
0.416000000000000258,-6.691423811842474478
0.417000000000000259,-6.618449196363132891
0.418000000000000260,-6.546049907945634239
0.419000000000000261,-6.474231509172659216
0.420000000000000262,-6.402999148366165905
0.421000000000000263,-6.332357570538042602
0.422000000000000264,-6.262311128238546409
0.423000000000000265,-6.192863792295884018
0.424000000000000266,-6.124019162440793806
0.425000000000000266,-6.055780477810291273
0.426000000000000267,-5.988150627325365960
0.427000000000000268,-5.921132159937771533
0.428000000000000269,-5.854727294741414845
0.429000000000000270,-5.788937930944383581
0.430000000000000271,-5.723765657697841291
0.431000000000000272,-5.659211763778564830
0.432000000000000273,-5.595277247122117714
0.433000000000000274,-5.531962824204068596
0.434000000000000274,-5.469268939266874519
0.435000000000000275,-5.407195773390504279
0.436000000000000276,-5.345743253405039752
0.437000000000000277,-5.284911060643755931
0.438000000000000278,-5.224698639535567679
0.439000000000000279,-5.165105206035910612
0.440000000000000280,-5.106129755895226552
0.441000000000000281,-5.047771072764705380
0.442000000000000282,-4.990027736138975101
0.443000000000000282,-4.932898129135587340
0.444000000000000283,-4.876380446111527434
0.445000000000000284,-4.820472700116996023
0.446000000000000285,-4.765172730186806760
0.447000000000000286,-4.710478208470307848
0.448000000000000287,-4.656386647200219109
0.449000000000000288,-4.602895405501620907
0.450000000000000289,-4.550001696041908517
0.451000000000000290,-4.497702591522962479
0.452000000000000290,-4.445995031016813925
0.453000000000000291,-4.394875826146098952
0.454000000000000292,-4.344341667110889205
0.455000000000000293,-4.294389128563335767
0.456000000000000294,-4.245014675331865384
0.457000000000000295,-4.196214667996633452
0.458000000000000296,-4.147985368317968380
0.459000000000000297,-4.100322944519762203
0.460000000000000298,-4.053223476429623773
0.461000000000000298,-4.006682960477846223
0.462000000000000299,-3.960697314557174220
0.463000000000000300,-3.915262382745383185
0.464000000000000301,-3.870373939892863380
0.465000000000000302,-3.826027696077286322
0.466000000000000303,-3.782219300927499805
0.467000000000000304,-3.738944347818848435
0.468000000000000305,-3.696198377942181423
0.469000000000000306,-3.653976884248665069
0.470000000000000306,-3.612275315272761134
0.471000000000000307,-3.571089078835484543
0.472000000000000308,-3.530413545630339378
0.473000000000000309,-3.490244052694055021
0.474000000000000310,-3.450575906764504541
0.475000000000000311,-3.411404387527932069
0.476000000000000312,-3.372724750757942758
0.477000000000000313,-3.334532231348248388
0.478000000000000314,-3.296822046241631998
0.479000000000000314,-3.259589397257264043
0.480000000000000315,-3.222829473818562995
0.481000000000000316,-3.186537455583905665
0.482000000000000317,-3.150708514982254016
0.483000000000000318,-3.115337819655975338
0.484000000000000319,-3.080420534812927880
0.485000000000000320,-3.045951825490020859
0.486000000000000321,-3.011926858730296086
0.487000000000000322,-2.978340805675654401
0.488000000000000322,-2.945188843577261739
0.489000000000000323,-2.912466157725735361
0.490000000000000324,-2.880167943303062028
0.491000000000000325,-2.848289407158286046
0.492000000000000326,-2.816825769508861210
0.493000000000000327,-2.785772265569707251
0.494000000000000328,-2.755124147111775113
0.495000000000000329,-2.724876683952069278
0.496000000000000330,-2.695025165376924381
0.497000000000000330,-2.665564901500412365
0.498000000000000331,-2.636491224559590840
0.499000000000000332,-2.607799490148460020
0.500000000000000333,-2.579485078392255382
0.501000000000000334,-2.551543395063824882
0.502000000000000335,-2.523969872643749834
0.503000000000000336,-2.496759971325872129
0.504000000000000337,-2.469909179969777657
0.505000000000000338,-2.443413017001866194
0.506000000000000338,-2.417267031266529642
0.507000000000000339,-2.391466802828951632
0.508000000000000340,-2.366007943731008201
0.509000000000000341,-2.340886098701763007
0.510000000000000342,-2.316096945823915121
0.511000000000000343,-2.291636197157651100
0.512000000000000344,-2.267499599323219428
0.513000000000000345,-2.243682934043594202
0.514000000000000346,-2.220182018648529265
0.515000000000000346,-2.196992706541245788
0.516000000000000347,-2.174110887629022937
0.517000000000000348,-2.151532488718945757
0.518000000000000349,-2.129253473879892500
0.519000000000000350,-2.107269844772048817
0.520000000000000351,-2.085577640944993760
0.521000000000000352,-2.064172940105501564
0.522000000000000353,-2.043051858356130346
0.523000000000000353,-2.022210550405620477
0.524000000000000354,-2.001645209752209276
0.525000000000000355,-1.981352068840757541
0.526000000000000356,-1.961327399194727761
0.527000000000000357,-1.941567511523981882
0.528000000000000358,-1.922068755809223317
0.529000000000000359,-1.902827521364121255
0.530000000000000360,-1.883840236875865770
0.531000000000000361,-1.865103370425105211
0.532000000000000361,-1.846613429486017255
0.533000000000000362,-1.828366960907390038
0.534000000000000363,-1.810360550875444119
0.535000000000000364,-1.792590824859187748
0.536000000000000365,-1.775054447539034186
0.537000000000000366,-1.757748122719419381
0.538000000000000367,-1.740668593226077476
0.539000000000000368,-1.723812640788731532
0.540000000000000369,-1.707177085909753256
0.541000000000000369,-1.690758787719542466
0.542000000000000370,-1.674554643819169186
0.543000000000000371,-1.658561590110902539
0.544000000000000372,-1.642776600617240845
0.545000000000000373,-1.627196687288971377
0.546000000000000374,-1.611818899802822003
0.547000000000000375,-1.596640325349234724
0.548000000000000376,-1.581658088410810681
0.549000000000000377,-1.566869350531874483
0.550000000000000377,-1.552271310079654132
0.551000000000000378,-1.537861201997588356
0.552000000000000379,-1.523636297551157703
0.553000000000000380,-1.509593904066715009
0.554000000000000381,-1.495731364663712482
0.555000000000000382,-1.482046057980781706
0.556000000000000383,-1.468535397895978534
0.557000000000000384,-1.455196833241690246
0.558000000000000385,-1.442027847514456784
0.559000000000000385,-1.429025958580164346
0.560000000000000386,-1.416188718374874256
0.561000000000000387,-1.403513712601683006
0.562000000000000388,-1.390998560423895247
0.563000000000000389,-1.378640914154833919
0.564000000000000390,-1.366438458944583934
0.565000000000000391,-1.354388912463956984
0.566000000000000392,-1.342490024585946573
0.567000000000000393,-1.330739577064966150
0.568000000000000393,-1.319135383214080637
0.569000000000000394,-1.307675287580523538
0.570000000000000395,-1.296357165619718810
0.571000000000000396,-1.285178923368015091
0.572000000000000397,-1.274138497114405411
0.573000000000000398,-1.263233853071370261
0.574000000000000399,-1.252462987045119380
0.575000000000000400,-1.241823924105367682
0.576000000000000401,-1.231314718254857388
0.577000000000000401,-1.220933452098820871
0.578000000000000402,-1.210678236514519224
0.579000000000000403,-1.200547210321025959
0.580000000000000404,-1.190538539949453023
0.581000000000000405,-1.180650419113718819
0.582000000000000406,-1.170881068482015896
0.583000000000000407,-1.161228735349138175
0.584000000000000408,-1.151691693309761177
0.585000000000000409,-1.142268241932824946
0.586000000000000409,-1.132956706437130201
0.587000000000000410,-1.123755437368259225
0.588000000000000411,-1.114662810276928706
0.589000000000000412,-1.105677225398880470
0.590000000000000413,-1.096797107336398458
0.591000000000000414,-1.088020904741547223
0.592000000000000415,-1.079347090001231635
0.593000000000000416,-1.070774158924129749
0.594000000000000417,-1.062300630429606096
0.595000000000000417,-1.053925046238677998
0.596000000000000418,-1.045645970567059990
0.597000000000000419,-1.037461989820426478
0.598000000000000420,-1.029371712291876628
0.599000000000000421,-1.021373767861714965
0.600000000000000422,-1.013466807699571204
0.601000000000000423,-1.005649503968923941
0.602000000000000424,-0.997920549534058843
0.603000000000000425,-0.990278657669534823
0.604000000000000425,-0.982722561772155556
0.605000000000000426,-0.975251015075516703
0.606000000000000427,-0.967862790367175818
0.607000000000000428,-0.960556679708391314
0.608000000000000429,-0.953331494156610892
0.609000000000000430,-0.946186063490547902
0.610000000000000431,-0.939119235938054020
