# CNT15-OH-14_LYSSCA-JS
# h[nm],U(h)[kJ/mol]
0.149999999999999994,136.313551073416419968
0.150999999999999995,134.342563368522547762
0.151999999999999996,132.171782510891347329
0.152999999999999997,129.997574339216470207
0.153999999999999998,127.878504640207978582
0.154999999999999999,125.814282052098334930
0.156000000000000000,123.786171065363220123
0.157000000000000001,121.775458004327290951
0.158000000000000002,119.770088112541458258
0.159000000000000002,117.765458394487083638
0.160000000000000003,115.762758018308247188
0.161000000000000004,113.766660738448649681
0.162000000000000005,111.783232836660204157
0.163000000000000006,109.818386896007183395
0.164000000000000007,107.876929656235319044
0.165000000000000008,105.962119878682145213
0.166000000000000009,104.075605154543126218
0.167000000000000010,102.217604922261259048
0.168000000000000010,100.387226539188120000
0.169000000000000011,98.582828205143570699
0.170000000000000012,96.802369387124670652
0.171000000000000013,95.043712571542258161
0.172000000000000014,93.304858382079231660
0.173000000000000015,91.584109313271284236
0.174000000000000016,89.880166130431334182
0.175000000000000017,88.192166208304911379
0.176000000000000018,86.519675587468810818
0.177000000000000018,84.862647102971791924
0.178000000000000019,83.221356240620650624
0.179000000000000020,81.596324920322672369
0.180000000000000021,79.988241580122888763
0.181000000000000022,78.397884013156911465
0.182000000000000023,76.826049574617996996
0.183000000000000024,75.273495737171870701
0.184000000000000025,73.740892587733839036
0.185000000000000026,72.228787744806339788
0.186000000000000026,70.737583326727701660
0.187000000000000027,69.267523994317230063
0.188000000000000028,67.818694694875176765
0.189000000000000029,66.391026513076482729
0.190000000000000030,64.984308952704168405
0.191000000000000031,63.598206998335840012
0.192000000000000032,62.232281408525452093
0.193000000000000033,60.886010846394853502
0.194000000000000034,59.558814638920168250
0.195000000000000034,58.250075155815338235
0.196000000000000035,56.959158999888472863
0.197000000000000036,55.685436393578584102
0.198000000000000037,54.428298324470766545
0.199000000000000038,53.187171171731336017
0.200000000000000039,51.961528673325574346
0.201000000000000040,50.750901209793710223
0.202000000000000041,49.554882474612760745
0.203000000000000042,48.373133674912573099
0.204000000000000042,47.205385461234513400
0.205000000000000043,46.051437823147644224
0.206000000000000044,44.911158211048928024
0.207000000000000045,43.784478155594499071
0.208000000000000046,42.671388657090808749
0.209000000000000047,41.571934609848767650
0.210000000000000048,40.486208512828341100
0.211000000000000049,39.414343699536850352
0.212000000000000050,38.356507298542418027
0.213000000000000050,37.312893112373423321
0.214000000000000051,36.283714578031947440
0.215000000000000052,35.269197947711724339
0.216000000000000053,34.269575804256930951
0.217000000000000054,33.285081002951223184
0.218000000000000055,32.315941109773660855
0.219000000000000056,31.362373386571874789
0.220000000000000057,30.424580355843971802
0.221000000000000058,29.502745962087068676
0.222000000000000058,28.597032332962943002
0.223000000000000059,27.707577131830589678
0.224000000000000060,26.834491483408061896
0.225000000000000061,25.977858446351376642
0.226000000000000062,25.137732000241278740
0.227000000000000063,24.314136509702795053
0.228000000000000064,23.507066624997513316
0.229000000000000065,22.716487576263403980
0.230000000000000066,21.942335817483265004
0.231000000000000066,21.184519976085233850
0.232000000000000067,20.442922064680480787
0.233000000000000068,19.717398912686689982
0.234000000000000069,19.007783777351839660
0.235000000000000070,18.313888095867707051
0.236000000000000071,17.635503342746325472
0.237000000000000072,16.972402959335330053
0.238000000000000073,16.324344325192626570
0.239000000000000073,15.691070743959127043
0.240000000000000074,15.072313419299524284
0.241000000000000075,14.467793399381829289
0.242000000000000076,13.877223471191630466
0.243000000000000077,13.300309988696506380
0.244000000000000078,12.736754621464354997
0.245000000000000079,12.186256012776123470
0.246000000000000080,11.648511338546546412
0.247000000000000081,11.123217760464047643
0.248000000000000081,10.610073768681413497
0.249000000000000082,10.108780411128273968
0.250000000000000111,9.619042408076762030
0.251000000000000112,9.140569151977993911
0.252000000000000113,8.673075593802296979
0.253000000000000114,8.216283018172438446
0.254000000000000115,7.769919710478683683
0.255000000000000115,7.333721519923017240
0.256000000000000116,6.907432323062216994
0.257000000000000117,6.490804392918948729
0.258000000000000118,6.083598679116358099
0.259000000000000119,5.685585004773999529
0.260000000000000120,5.296542186092688453
0.261000000000000121,4.916258080663350682
0.262000000000000122,4.544529570567464205
0.263000000000000123,4.181162486306346793
0.264000000000000123,3.825971477508781415
0.265000000000000124,3.478779836232161582
0.266000000000000125,3.139419278496494492
0.267000000000000126,2.807729689482271418
0.268000000000000127,2.483558837586492096
0.269000000000000128,2.166762062274361966
0.270000000000000129,1.857201940390211137
0.271000000000000130,1.554747935305807571
0.272000000000000131,1.259276032992212357
0.273000000000000131,0.970668368804810333
0.274000000000000132,0.688812848475020001
0.275000000000000133,0.413602766507822239
0.276000000000000134,0.144936424895174193
0.277000000000000135,-0.117283245226513705
0.278000000000000136,-0.373149056620855624
0.279000000000000137,-0.622749931607088691
0.280000000000000138,-0.866171258488216411
0.281000000000000139,-1.103495237153769182
0.282000000000000139,-1.334801212486382838
0.283000000000000140,-1.560165994416050861
0.284000000000000141,-1.779664163666599963
0.285000000000000142,-1.993368362426393592
0.286000000000000143,-2.201349569349032809
0.287000000000000144,-2.403677358449935575
0.288000000000000145,-2.600420141612453939
0.289000000000000146,-2.791645394550601456
0.290000000000000147,-2.977419866198254716
0.291000000000000147,-3.157809771603741211
0.292000000000000148,-3.332880968507732966
0.293000000000000149,-3.502699117869039647
0.294000000000000150,-3.667329828680294668
0.295000000000000151,-3.826838787482341964
0.296000000000000152,-3.981291873043919960
0.297000000000000153,-4.130755256722347113
0.298000000000000154,-4.275295489061899268
0.299000000000000155,-4.414979573220032094
0.300000000000000155,-4.549875025838142406
0.301000000000000156,-4.680049925993529314
0.302000000000000157,-4.805572952883825799
0.303000000000000158,-4.926513412903645417
0.304000000000000159,-5.042941256777772274
0.305000000000000160,-5.154927087414464815
0.306000000000000161,-5.262542159138660303
0.307000000000000162,-5.365858368957074909
0.308000000000000163,-5.464948240496377174
0.309000000000000163,-5.559884901242314825
0.310000000000000164,-5.650742053691964806
0.311000000000000165,-5.737593941013336973
0.312000000000000166,-5.820515307787371917
0.313000000000000167,-5.899581356386338626
0.314000000000000168,-5.974867699520702402
0.315000000000000169,-6.046450309463660133
0.316000000000000170,-6.114405464439127691
0.317000000000000171,-6.178809692634562367
0.318000000000000171,-6.239739714276067772
0.319000000000000172,-6.297272382178623396
0.320000000000000173,-6.351484621159823263
0.321000000000000174,-6.402453366681251978
0.322000000000000175,-6.450255503057777062
0.323000000000000176,-6.494967801551217335
0.324000000000000177,-6.536666858641913436
0.325000000000000178,-6.575429034748855095
0.326000000000000179,-6.611330393647458337
0.327000000000000179,-6.644446642812326331
0.328000000000000180,-6.674853074891974991
0.329000000000000181,-6.702624510502777078
0.330000000000000182,-6.727835242509921265
0.331000000000000183,-6.750558981945490089
0.332000000000000184,-6.770868805695795523
0.333000000000000185,-6.788837106073941641
0.334000000000000186,-6.804535542377584179
0.335000000000000187,-6.818034994517046421
0.336000000000000187,-6.829405518784945173
0.337000000000000188,-6.838716305824894093
0.338000000000000189,-6.846035640844952752
0.339000000000000190,-6.851430866109327056
0.340000000000000191,-6.854968345731168533
0.341000000000000192,-6.856713432779338646
0.342000000000000193,-6.856730438702312469
0.343000000000000194,-6.855082605064163559
0.344000000000000195,-6.851832077579009805
0.345000000000000195,-6.847039882423753276
0.346000000000000196,-6.840765904801534347
0.347000000000000197,-6.833068869722782601
0.348000000000000198,-6.824006324965075976
0.349000000000000199,-6.813634626168051156
0.350000000000000200,-6.802008924015453317
0.351000000000000201,-6.789183153452235331
0.352000000000000202,-6.775210024881467064
0.353000000000000203,-6.760141017282760068
0.354000000000000203,-6.744026373191407409
0.355000000000000204,-6.726915095475220596
0.356000000000000205,-6.708854945844471729
0.357000000000000206,-6.689892445028905676
0.358000000000000207,-6.670072874554440645
0.359000000000000208,-6.649440280051874375
0.360000000000000209,-6.628037476029061459
0.361000000000000210,-6.605906052037893161
0.362000000000000210,-6.583086380167538110
0.363000000000000211,-6.559617623795451991
0.364000000000000212,-6.535537747528326058
0.365000000000000213,-6.510883528265499542
0.366000000000000214,-6.485690567318440181
0.367000000000000215,-6.459993303520555230
0.368000000000000216,-6.433825027262997764
0.369000000000000217,-6.407217895392956386
0.370000000000000218,-6.380202946912650219
0.371000000000000218,-6.352810119418212054
0.372000000000000219,-6.325068266219540547
0.373000000000000220,-6.297005174083520451
0.374000000000000221,-6.268647581544708913
0.375000000000000222,-6.240021197729173963
0.376000000000000223,-6.211150721639153716
0.377000000000000224,-6.182059861847589488
0.378000000000000225,-6.152771356553639492
0.379000000000000226,-6.123306993951932675
0.380000000000000226,-6.093687632870281590
0.381000000000000227,-6.063933223632078651
0.382000000000000228,-6.034062829101830339
0.383000000000000229,-6.004094645873726321
0.384000000000000230,-5.974046025565050044
0.385000000000000231,-5.943933496178159359
0.386000000000000232,-5.913772783496254348
0.387000000000000233,-5.883578832480099052
0.388000000000000234,-5.853365828634378154
0.389000000000000234,-5.823147219314329881
0.390000000000000235,-5.792935734944516746
0.391000000000000236,-5.762743410123646548
0.392000000000000237,-5.732581604590556879
0.393000000000000238,-5.702461024028288250
0.394000000000000239,-5.672391740684413541
0.395000000000000240,-5.642383213787470098
0.396000000000000241,-5.612444309740585169
0.397000000000000242,-5.582583322074774479
0.398000000000000242,-5.552807991145830790
0.399000000000000243,-5.523125523559815342
0.400000000000000244,-5.493542611313495527
0.401000000000000245,-5.464065450637368038
0.402000000000000246,-5.434699760529731805
0.403000000000000247,-5.405450800971752123
0.404000000000000248,-5.376323390814232717
0.405000000000000249,-5.347321925327974235
0.406000000000000250,-5.318450393410489418
0.407000000000000250,-5.289712394442797283
0.408000000000000251,-5.261111154790922839
0.409000000000000252,-5.232649543947548665
0.410000000000000253,-5.204330090310056889
0.411000000000000254,-5.176154996591999513
0.412000000000000255,-5.148126154865687809
0.413000000000000256,-5.120245161234437958
0.414000000000000257,-5.092513330133397353
0.415000000000000258,-5.064931708258791687
0.416000000000000258,-5.037501088125746485
0.417000000000000259,-5.010222021255587244
0.418000000000000260,-4.983094830993882951
0.419000000000000261,-4.956119624961084824
0.420000000000000262,-4.929296307137976285
0.421000000000000263,-4.902624589588695514
0.422000000000000264,-4.876104003824277555
0.423000000000000265,-4.849733911810232279
0.424000000000000266,-4.823513516621973807
0.425000000000000266,-4.797441872752028047
0.426000000000000267,-4.771517896073547149
0.427000000000000268,-4.745740373464681916
0.428000000000000269,-4.720107972098662508
0.429000000000000270,-4.694619248404769074
0.430000000000000271,-4.669272656705350855
0.431000000000000272,-4.644066557534494599
0.432000000000000273,-4.618999225643835693
0.433000000000000274,-4.594068857701383735
0.434000000000000274,-4.569273579689169473
0.435000000000000275,-4.544611454005746509
0.436000000000000276,-4.520080486279640652
0.437000000000000277,-4.495678631899855837
0.438000000000000278,-4.471403802269707128
0.439000000000000279,-4.447253870790263797
0.440000000000000280,-4.423226678579641025
0.441000000000000281,-4.399320039934535131
0.442000000000000282,-4.375531747540371441
0.443000000000000282,-4.351859577436293591
0.444000000000000283,-4.328301293741504630
0.445000000000000284,-4.304854653149162047
0.446000000000000285,-4.281517409194129264
0.447000000000000286,-4.258287316301013092
0.448000000000000287,-4.235162133618448621
0.449000000000000288,-4.212139628646094813
0.450000000000000289,-4.189217580660264950
0.451000000000000290,-4.166393783944354112
0.452000000000000290,-4.143666050830068670
0.453000000000000291,-4.121032214555351736
0.454000000000000292,-4.098490131944907411
0.455000000000000293,-4.076037685919066789
0.456000000000000294,-4.053672787836715585
0.457000000000000295,-4.031393379677902900
0.458000000000000296,-4.009197436071607612
0.459000000000000297,-3.987082966174155807
0.460000000000000298,-3.965048015403555670
0.461000000000000298,-3.943090667035036745
0.462000000000000299,-3.921209043662922333
0.463000000000000300,-3.899401308533817279
0.464000000000000301,-3.877665666756128449
0.465000000000000302,-3.856000366390704759
0.466000000000000303,-3.834403699427304524
0.467000000000000304,-3.812874002651545968
0.468000000000000305,-3.791409658406847516
0.469000000000000306,-3.770009095255738352
0.470000000000000306,-3.748670788544933519
0.471000000000000307,-3.727393260878209880
0.472000000000000308,-3.706175082501362628
0.473000000000000309,-3.685014871603089937
0.474000000000000310,-3.663911294535756813
0.475000000000000311,-3.642863065959764501
0.476000000000000312,-3.621868948915304198
0.477000000000000313,-3.600927754824921667
0.478000000000000314,-3.580038343430459236
0.479000000000000314,-3.559199622667764462
0.480000000000000315,-3.538410548482310958
0.481000000000000316,-3.517670124589084679
0.482000000000000317,-3.496977402179616057
0.483000000000000318,-3.476331479579303441
0.484000000000000319,-3.455731501857790988
0.485000000000000320,-3.435176660395275583
0.486000000000000321,-3.414666192407390888
0.487000000000000322,-3.394199380431316193
0.488000000000000322,-3.373775551775558768
0.489000000000000323,-3.353394077935971662
0.490000000000000324,-3.333054373980229634
0.491000000000000325,-3.312755897903121305
0.492000000000000326,-3.292498149954744768
0.493000000000000327,-3.272280671943851083
0.494000000000000328,-3.252103046518206586
0.495000000000000329,-3.231964896424059042
0.496000000000000330,-3.211865883746457762
0.497000000000000330,-3.191805709132382596
0.498000000000000331,-3.171784110998202344
0.499000000000000332,-3.151800864723358853
0.500000000000000333,-3.131855781831699215
0.501000000000000334,-3.111948709162011717
0.502000000000000335,-3.092079528029298974
0.503000000000000336,-3.072248153378116520
0.504000000000000337,-3.052454532929334885
0.505000000000000338,-3.032698646321602354
0.506000000000000338,-3.012980504248741198
0.507000000000000339,-2.993300147594214256
0.508000000000000340,-2.973657646563765411
0.509000000000000341,-2.954053099817378403
0.510000000000000342,-2.934486633601394168
0.511000000000000343,-2.914958400881914269
0.512000000000000344,-2.895468580480248022
0.513000000000000345,-2.876017376211360776
0.514000000000000346,-2.856605016026127597
0.515000000000000346,-2.837231751158076687
0.516000000000000347,-2.817897855275433017
0.517000000000000348,-2.798603623639162929
0.518000000000000349,-2.779349372267537976
0.519000000000000350,-2.760135437107987588
0.520000000000000351,-2.740962173216665132
0.521000000000000352,-2.721829953946385938
0.522000000000000353,-2.702739170143324987
0.523000000000000353,-2.683690229352988954
0.524000000000000354,-2.664683555035943563
0.525000000000000355,-2.645719585793590234
0.526000000000000356,-2.626798774604432563
0.527000000000000357,-2.607921588071205665
0.528000000000000358,-2.589088505679067342
0.529000000000000359,-2.570300019065288488
0.530000000000000360,-2.551556631300563538
0.531000000000000361,-2.532858856182292229
0.532000000000000361,-2.514207217539965011
0.533000000000000362,-2.495602248552910130
0.534000000000000363,-2.477044491080504507
0.535000000000000364,-2.458534495005069154
0.536000000000000365,-2.440072817587516152
0.537000000000000366,-2.421660022835911530
0.538000000000000367,-2.403296680886968240
0.539000000000000368,-2.384983367400680621
0.540000000000000369,-2.366720662967976008
0.541000000000000369,-2.348509152531612632
0.542000000000000370,-2.330349424820203019
0.543000000000000371,-2.312242071795450382
0.544000000000000372,-2.294187688112603318
0.545000000000000373,-2.276186870594079092
0.546000000000000374,-2.258240217716244835
0.547000000000000375,-2.240348329109314474
0.548000000000000376,-2.222511805070347179
0.549000000000000377,-2.204731246089242092
0.550000000000000377,-2.187007252387673795
0.551000000000000378,-2.169340423470902390
0.552000000000000379,-2.151731357692379998
0.553000000000000380,-2.134180651831030229
0.554000000000000381,-2.116688900681090502
0.555000000000000382,-2.099256696654500320
0.556000000000000383,-2.081884629395545083
0.557000000000000384,-2.064573285407836245
0.558000000000000385,-2.047323247693313419
0.559000000000000385,-2.030135095403274192
0.560000000000000386,-2.013009403501205163
0.561000000000000387,-1.995946742437313404
0.562000000000000388,-1.978947677834572705
0.563000000000000389,-1.962012770186194688
0.564000000000000390,-1.945142574564281190
0.565000000000000391,-1.928337640339579995
0.566000000000000392,-1.911598510912112747
0.567000000000000393,-1.894925723452584920
0.568000000000000393,-1.878319808654320244
0.569000000000000394,-1.861781290495612140
0.570000000000000395,-1.845310686012326951
0.571000000000000396,-1.828908505080504954
0.572000000000000397,-1.812575250208903199
0.573000000000000398,-1.796311416341184186
0.574000000000000399,-1.780117490667675328
0.575000000000000400,-1.763993952446427427
0.576000000000000401,-1.747941272833457349
0.577000000000000401,-1.731959914722010607
0.578000000000000402,-1.716050332590575156
0.579000000000000403,-1.700212972359537833
0.580000000000000404,-1.684448271256328677
0.581000000000000405,-1.668756657688778677
0.582000000000000406,-1.653138551126601685
0.583000000000000407,-1.637594361990767577
0.584000000000000408,-1.622124491550631209
0.585000000000000409,-1.606729331828598006
0.586000000000000409,-1.591409265512174320
0.587000000000000410,-1.576164665873249771
0.588000000000000411,-1.560995896694362450
0.589000000000000412,-1.545903312201896140
0.590000000000000413,-1.530887257005896451
0.591000000000000414,-1.515948066046448162
0.592000000000000415,-1.501086064546420573
0.593000000000000416,-1.486301567970353288
0.594000000000000417,-1.471594881989386261
0.595000000000000417,-1.456966302452099793
0.596000000000000418,-1.442416115360943829
0.597000000000000419,-1.427944596854331838
0.598000000000000420,-1.413552013194016022
0.599000000000000421,-1.399238620757758067
0.600000000000000422,-1.385004666037037868
0.601000000000000423,-1.370850385639696523
0.602000000000000424,-1.356776006297357728
0.603000000000000425,-1.342781744877475480
0.604000000000000425,-1.328867808399856631
0.605000000000000426,-1.315034394057518430
0.606000000000000427,-1.301281689241799544
0.607000000000000428,-1.287609871571411713
0.608000000000000429,-1.274019108925582788
0.609000000000000430,-1.260509559480815778
0.610000000000000431,-1.247081371751457057
0.611000000000000432,-1.233734684633703838
0.612000000000000433,-1.220469627453030670
0.613000000000000433,-1.207286320014927083
