# CNT15-OH-14_ARGSCA-AC
# h[nm],U(h)[kJ/mol]
0.149999999999999994,129.724410133263461375
0.150999999999999995,128.020377246475078437
0.151999999999999996,125.907744699736255711
0.152999999999999997,123.730578491865188084
0.153999999999999998,121.610377840383961257
0.154999999999999999,119.566836704022236404
0.156000000000000000,117.581736378038343105
0.157000000000000001,115.629868430812805968
0.158000000000000002,113.691718404452601021
0.159000000000000002,111.756742850211850282
0.160000000000000003,109.822343931860842758
0.161000000000000004,107.891339902336127921
0.162000000000000005,105.969343510571590627
0.163000000000000006,104.062658675710167699
0.164000000000000007,102.176867604912061438
0.165000000000000008,100.316062175581393490
0.166000000000000009,98.482582862530989587
0.167000000000000010,96.677108113718261961
0.168000000000000010,94.898951707805196065
0.169000000000000011,93.146454615132171284
0.170000000000000012,91.417389759860014919
0.171000000000000013,89.709327031873868918
0.172000000000000014,88.019929477635429294
0.173000000000000015,86.347169269819488591
0.174000000000000016,84.689464268502050004
0.175000000000000017,83.045743633617547630
0.176000000000000018,81.415455041213647291
0.177000000000000018,79.798527554746712553
0.178000000000000019,78.195303934306451765
0.179000000000000020,76.606454797676065027
0.180000000000000021,75.032885085818975313
0.181000000000000022,73.475641099304397130
0.182000000000000023,71.935824211781977056
0.183000000000000024,70.414515389610556895
0.184000000000000025,68.912712940707010034
0.185000000000000026,67.431284517443117466
0.186000000000000026,65.970933309932931365
0.187000000000000027,64.532177566867360952
0.188000000000000028,63.115342037713034529
0.189000000000000029,61.720559603002683957
0.190000000000000030,60.347781207626951527
0.191000000000000031,58.996792196278860843
0.192000000000000032,57.667233234956803756
0.193000000000000033,56.358624156815039896
0.194000000000000034,55.070389268811922534
0.195000000000000034,53.801882876641265341
0.196000000000000035,52.552414013051716779
0.197000000000000036,51.321269576683434366
0.198000000000000037,50.107735296332371888
0.199000000000000038,48.911114123401340237
0.200000000000000039,47.730741819910697643
0.201000000000000040,46.565999649394015591
0.202000000000000041,45.416324193297370471
0.203000000000000042,44.281214407167638569
0.204000000000000042,43.160236100702178419
0.205000000000000043,42.053024075834557038
0.206000000000000044,40.959282189877214364
0.207000000000000045,39.878781628846212470
0.208000000000000046,38.811357681920732432
0.209000000000000047,37.756905303884522596
0.210000000000000048,36.715373740512312395
0.211000000000000049,35.686760474146993261
0.212000000000000050,34.671104724858963664
0.213000000000000050,33.668480718063605650
0.214000000000000051,32.678990903520421796
0.215000000000000052,31.702759284269923512
0.216000000000000053,30.739924988090557179
0.217000000000000054,29.790636189110976773
0.218000000000000055,28.855044463762936857
0.219000000000000056,27.933299643642623522
0.220000000000000057,27.025545208271768871
0.221000000000000058,26.131914243341832105
0.222000000000000058,25.252525974807316089
0.223000000000000059,24.387482876154216171
0.224000000000000060,23.536868335219374160
0.225000000000000061,22.700744857966746792
0.226000000000000062,21.879152779495946390
0.227000000000000063,21.072109447107919777
0.228000000000000064,20.279608836317610354
0.229000000000000065,19.501621558108581667
0.230000000000000066,18.738095214305893421
0.231000000000000066,17.988955057530844783
0.232000000000000067,17.254104912642855396
0.233000000000000068,16.533428317719518930
0.234000000000000069,15.826789844343156943
0.235000000000000070,15.134036559126650801
0.236000000000000071,14.454999590913677920
0.237000000000000072,13.789495770828796850
0.238000000000000073,13.137329315247788131
0.239000000000000073,12.498293524734092941
0.240000000000000074,11.872172474976084189
0.241000000000000075,11.258742678716691543
0.242000000000000076,10.657774700541725821
0.243000000000000077,10.069034709154763618
0.244000000000000078,9.492285954387250868
0.245000000000000079,8.927290158651262075
0.246000000000000080,8.373808814826725566
0.247000000000000081,7.831604384672907315
0.248000000000000081,7.300441393764278253
0.249000000000000082,6.780087420670428244
0.250000000000000111,6.270313979631049861
0.251000000000000112,5.770897297326135877
0.252000000000000113,5.281618985512631426
0.253000000000000114,4.802266612305098548
0.254000000000000115,4.332634175722539283
0.255000000000000115,3.872522483823234385
0.256000000000000116,3.421739446310765764
0.257000000000000117,2.980100282930530309
0.258000000000000118,2.547427654298989985
0.259000000000000119,2.123551721026609496
0.260000000000000120,1.708310137122707406
0.261000000000000121,1.301547983716931256
0.262000000000000122,0.903117649106103371
0.263000000000000123,0.512878661048839946
0.264000000000000123,0.130697477089950637
0.265000000000000124,-0.243552761486786729
0.266000000000000125,-0.609992506700086090
0.267000000000000126,-0.968736106779041428
0.268000000000000127,-1.319892130083644144
0.269000000000000128,-1.663563705473726895
0.270000000000000129,-1.999848874865011172
0.271000000000000130,-2.328840954020809484
0.272000000000000131,-2.650628897940523920
0.273000000000000131,-2.965297667519093405
0.274000000000000132,-3.272928594460390972
0.275000000000000133,-3.573599741730922208
0.276000000000000134,-3.867386257135012606
0.277000000000000135,-4.154360717876611986
0.278000000000000136,-4.434593464246634476
0.279000000000000137,-4.708152920834253408
0.280000000000000138,-4.975105903906770877
0.281000000000000139,-5.235517913835115777
0.282000000000000139,-5.489453411658387516
0.283000000000000140,-5.736976079083572877
0.284000000000000141,-5.978149061402915798
0.285000000000000142,-6.213035192983793031
0.286000000000000143,-6.441697205142967952
0.287000000000000144,-6.664197916359687390
0.288000000000000145,-6.880600404911461965
0.289000000000000146,-7.090968164130762474
0.290000000000000147,-7.295365240584184008
0.291000000000000147,-7.493856355564810556
0.292000000000000148,-7.686507010367736648
0.293000000000000149,-7.873383575885116059
0.294000000000000150,-8.054553367114950291
0.295000000000000151,-8.230084703224608944
0.296000000000000152,-8.400046953848725906
0.297000000000000153,-8.564510572331066385
0.298000000000000154,-8.723547116642420107
0.299000000000000155,-8.877229258722039162
0.300000000000000155,-9.025630782999202850
0.301000000000000156,-9.168826574854666234
0.302000000000000157,-9.306892599780162811
0.303000000000000158,-9.439905873987342488
0.304000000000000159,-9.567944427207045521
0.305000000000000160,-9.691087258405556071
0.306000000000000161,-9.809414285127076027
0.307000000000000162,-9.923006287151661553
0.308000000000000163,-10.031944845135280175
0.309000000000000163,-10.136312274874473616
0.310000000000000164,-10.236191557812155395
0.311000000000000165,-10.331666268373840722
0.312000000000000166,-10.422820498695568148
0.313000000000000167,-10.509738781275911990
0.314000000000000168,-10.592506010055085852
0.315000000000000169,-10.671207360394843633
0.316000000000000170,-10.745928208403237036
0.317000000000000171,-10.816754050018861477
0.318000000000000171,-10.883770420240137966
0.319000000000000172,-10.947062812856763969
0.320000000000000173,-11.006716601012053403
0.321000000000000174,-11.062816958897727204
0.322000000000000175,-11.115448784856024389
0.323000000000000176,-11.164696626138123747
0.324000000000000177,-11.210644605543201635
0.325000000000000178,-11.253376350137994422
0.326000000000000179,-11.292974922234565227
0.327000000000000179,-11.329522752781221229
0.328000000000000180,-11.363101577301117473
0.329000000000000181,-11.393792374493258990
0.330000000000000182,-11.421675307591446114
0.331000000000000183,-11.446829668559519888
0.332000000000000184,-11.469333825184133246
0.333000000000000185,-11.489265171110904618
0.334000000000000186,-11.506700078855217839
0.335000000000000187,-11.521713855805154836
0.336000000000000187,-11.534380703221749798
0.337000000000000188,-11.544773678229621083
0.338000000000000189,-11.552964658780904728
0.339000000000000190,-11.559024311565096355
0.340000000000000191,-11.563022062828546055
0.341000000000000192,-11.565026072059490403
0.342000000000000193,-11.565103208486650743
0.343000000000000194,-11.563319030333463644
0.344000000000000195,-11.559737766763335642
0.345000000000000195,-11.554422302447120430
0.346000000000000196,-11.547434164678492152
0.347000000000000197,-11.538833512959730143
0.348000000000000198,-11.528679130976716039
0.349000000000000199,-11.517028420879190875
0.350000000000000200,-11.503937399780216566
0.351000000000000201,-11.489460698386775306
0.352000000000000202,-11.473651561672211230
0.353000000000000203,-11.456561851500286053
0.354000000000000203,-11.438242051110069752
0.355000000000000204,-11.418741271370516088
0.356000000000000205,-11.398107258714032852
0.357000000000000206,-11.376386404658591189
0.358000000000000207,-11.353623756828502778
0.359000000000000208,-11.329863031385254857
0.360000000000000209,-11.305146626780778973
0.361000000000000210,-11.279515638746911321
0.362000000000000210,-11.253009876436509629
0.363000000000000211,-11.225667879633213886
0.364000000000000212,-11.197526936948998255
0.365000000000000213,-11.168623104930343715
0.366000000000000214,-11.138991227996255517
0.367000000000000215,-11.108664959133308869
0.368000000000000216,-11.077676781275449969
0.369000000000000217,-11.046058029298297498
0.370000000000000218,-11.013838912560467875
0.371000000000000218,-10.981048537926479725
0.372000000000000219,-10.947714933208557042
0.373000000000000220,-10.913865070967048609
0.374000000000000221,-10.879524892611597053
0.375000000000000222,-10.844719332747640550
0.376000000000000223,-10.809472343715588849
0.377000000000000224,-10.773806920272106069
0.378000000000000225,-10.737745124365609684
0.379000000000000226,-10.701308109960370629
0.380000000000000226,-10.664516147866233808
0.381000000000000227,-10.627388650532822112
0.382000000000000228,-10.589944196769954132
0.383000000000000229,-10.552200556357849592
0.384000000000000230,-10.514174714512988018
0.385000000000000231,-10.475882896177827419
0.386000000000000232,-10.437340590104318139
0.387000000000000233,-10.398562572703555773
0.388000000000000234,-10.359562931635519334
0.389000000000000234,-10.320355089115199831
0.390000000000000235,-10.280951824912712311
0.391000000000000236,-10.241365299027346936
0.392000000000000237,-10.201607074016756371
0.393000000000000238,-10.161688136964523110
0.394000000000000239,-10.121618921070584918
0.395000000000000240,-10.081409326850890196
0.396000000000000241,-10.041068742933841662
0.397000000000000242,-10.000606066442596642
0.398000000000000242,-9.960029722953759546
0.399000000000000243,-9.919347686024011068
0.400000000000000244,-9.878567496277671722
0.401000000000000245,-9.837696280049422981
0.402000000000000246,-9.796740767577119868
0.403000000000000247,-9.755707310741170701
0.404000000000000248,-9.714601900347656027
0.405000000000000249,-9.673430182953349998
0.406000000000000250,-9.632197477231752458
0.407000000000000250,-9.590908789880037588
0.408000000000000251,-9.549568831067583474
0.409000000000000252,-9.508182029427565851
0.410000000000000253,-9.466752546593722784
0.411000000000000254,-9.425284291285032978
0.412000000000000255,-9.383780932941681030
0.413000000000000256,-9.342245914916345484
0.414000000000000257,-9.300682467225026784
0.415000000000000258,-9.259093618862596742
0.416000000000000258,-9.217482209688272476
0.417000000000000259,-9.175850901886787980
0.418000000000000260,-9.134202191011510763
0.419000000000000261,-9.092538416615841612
0.420000000000000262,-9.050861772479750655
0.421000000000000263,-9.009174316438549823
0.422000000000000264,-8.967477979821024903
0.423000000000000265,-8.925774576504592162
0.424000000000000266,-8.884065811595190709
0.425000000000000266,-8.842353289739612876
0.426000000000000267,-8.800638523078475828
0.427000000000000268,-8.758922938847813811
0.428000000000000269,-8.717207886637581282
0.429000000000000270,-8.675494645315398046
0.430000000000000271,-8.633784429623776902
0.431000000000000272,-8.592078396459379874
0.432000000000000273,-8.550377650842600374
0.433000000000000274,-8.508683251585987151
0.434000000000000274,-8.466996216669871345
0.435000000000000275,-8.425317528333630790
0.436000000000000276,-8.383648137890983065
0.437000000000000277,-8.341988970277515847
0.438000000000000278,-8.300340928338858504
0.439000000000000279,-8.258704896867628875
0.440000000000000280,-8.217081746397209230
0.441000000000000281,-8.175472336760474690
0.442000000000000282,-8.133877520421410878
0.443000000000000282,-8.092298145587321301
0.444000000000000283,-8.050735059109545233
0.445000000000000284,-8.009189109180152144
0.446000000000000285,-7.967661147832072466
0.447000000000000286,-7.926152033250263962
0.448000000000000287,-7.884662631900792640
0.449000000000000288,-7.843193820485264034
0.450000000000000289,-7.801746487727318602
0.451000000000000290,-7.760321535998142117
0.452000000000000290,-7.718919882787643516
0.453000000000000291,-7.677542462027796333
0.454000000000000292,-7.636190225274577692
0.455000000000000293,-7.594864142754683023
0.456000000000000294,-7.553565204283143153
0.457000000000000295,-7.512294420057813227
0.458000000000000296,-7.471052821336381378
0.459000000000000297,-7.429841461001716496
0.460000000000000298,-7.388661414020859297
0.461000000000000298,-7.347513777803145629
0.462000000000000299,-7.306399672462518424
0.463000000000000300,-7.265320240989106892
0.464000000000000301,-7.224276649334987255
0.465000000000000302,-7.183270086418835021
0.466000000000000303,-7.142301764054013624
0.467000000000000304,-7.101372916804645108
0.468000000000000305,-7.060484801773874608
0.469000000000000306,-7.019638698328522608
0.470000000000000306,-6.978835907764225688
0.471000000000000307,-6.938077752914753482
0.472000000000000308,-6.897365577709517304
0.473000000000000309,-6.856700746682676595
0.474000000000000310,-6.816084644437426121
0.475000000000000311,-6.775518675068793684
0.476000000000000312,-6.735004261548271032
0.477000000000000313,-6.694542845073232051
0.478000000000000314,-6.654135884384258404
0.479000000000000314,-6.613784855053235212
0.480000000000000315,-6.573491248744863569
0.481000000000000316,-6.533256572454422262
0.482000000000000317,-6.493082347724123515
0.483000000000000318,-6.452970109840615365
0.484000000000000319,-6.412921407015899078
0.485000000000000320,-6.372937799553904270
0.486000000000000321,-6.333020859004832026
0.487000000000000322,-6.293172167309293741
0.488000000000000322,-6.253393315934117069
0.489000000000000323,-6.213685905001783638
0.490000000000000324,-6.174051542415121219
0.491000000000000325,-6.134491842978985865
0.492000000000000326,-6.095008427520411942
0.493000000000000327,-6.055602922008898936
0.494000000000000328,-6.016276956678035859
0.495000000000000329,-5.977032165150001575
0.496000000000000330,-5.937870183564017523
0.497000000000000330,-5.898792649710148162
0.498000000000000331,-5.859801202169311551
0.499000000000000332,-5.820897479460865220
0.500000000000000333,-5.782083119198480503
0.501000000000000334,-5.743359757255380948
0.502000000000000335,-5.704729026939767245
0.503000000000000336,-5.666192558181259997
0.504000000000000337,-5.627751976729086891
0.505000000000000338,-5.589408903362697245
0.506000000000000338,-5.551164953115512724
0.507000000000000339,-5.513021734512330241
0.508000000000000340,-5.474980848820937496
0.509000000000000341,-5.437043889318561085
0.510000000000000342,-5.399212440573375460
0.511000000000000343,-5.361488077741716651
0.512000000000000344,-5.323872365881199720
0.513000000000000345,-5.286366859280159147
0.514000000000000346,-5.248973100803723035
0.515000000000000346,-5.211692621256696967
0.516000000000000347,-5.174526938763530204
0.517000000000000348,-5.137477558165623570
0.518000000000000349,-5.100545970435957699
0.519000000000000350,-5.063733652111389816
0.520000000000000351,-5.027042064742529348
0.521000000000000352,-4.990472654361431282
0.522000000000000353,-4.954026850967011342
0.523000000000000353,-4.917706068028286914
0.524000000000000354,-4.881511702005481013
0.525000000000000355,-4.845445131888840073
0.526000000000000356,-4.809507718755234862
0.527000000000000357,-4.773700805342505404
0.528000000000000358,-4.738025715641280833
0.529000000000000359,-4.702483754504459768
0.530000000000000360,-4.667076207273967547
0.531000000000000361,-4.631804339424853367
0.532000000000000361,-4.596669396226459980
0.533000000000000362,-4.561672602420587808
0.534000000000000363,-4.526815161916444730
0.535000000000000364,-4.492098257502180836
0.536000000000000365,-4.457523050572868684
0.537000000000000366,-4.423090680874693703
0.538000000000000367,-4.388802266265082075
0.539000000000000368,-4.354658902488710126
0.540000000000000369,-4.320661662968936056
0.541000000000000369,-4.286811598614637120
0.542000000000000370,-4.253109737642034816
0.543000000000000371,-4.219557085411365094
0.544000000000000372,-4.186154624278079162
0.545000000000000373,-4.152903313458365275
0.546000000000000374,-4.119804088908638029
0.547000000000000375,-4.086857863218815723
0.548000000000000376,-4.054065525519078506
0.549000000000000377,-4.021427941399814188
0.550000000000000377,-3.988945952844479503
0.551000000000000378,-3.956620378175097930
0.552000000000000379,-3.924452012010144930
0.553000000000000380,-3.892441625234467573
0.554000000000000381,-3.860589964980984945
0.555000000000000382,-3.828897754623952210
0.556000000000000383,-3.797365693783328222
0.557000000000000384,-3.765994458340195195
0.558000000000000385,-3.734784700462703277
0.559000000000000385,-3.703737048642452123
0.560000000000000386,-3.672852107740904870
0.561000000000000387,-3.642130459045607616
0.562000000000000388,-3.611572660335887974
0.563000000000000389,-3.581179245957818669
0.564000000000000390,-3.550950726908101984
0.565000000000000391,-3.520887590926634836
0.566000000000000392,-3.490990302597461348
0.567000000000000393,-3.461259303457889125
0.568000000000000393,-3.431695012115424159
0.569000000000000394,-3.402297824372291224
0.570000000000000395,-3.373068113357356790
0.571000000000000396,-3.344006229665017038
0.572000000000000397,-3.315112501501000342
0.573000000000000398,-3.286387234834649007
0.574000000000000399,-3.257830713557571922
0.575000000000000400,-3.229443199648315499
0.576000000000000401,-3.201224933342867729
0.577000000000000401,-3.173176133310781744
0.578000000000000402,-3.145296996836584480
0.579000000000000403,-3.117587700006316354
0.580000000000000404,-3.090048397899002541
0.581000000000000405,-3.062679224782713927
0.582000000000000406,-3.035480294315136884
0.583000000000000407,-3.008451699748298402
0.584000000000000408,-2.981593514137375500
0.585000000000000409,-2.954905790553256306
0.586000000000000409,-2.928388562298714248
0.587000000000000410,-2.902041843128011500
0.588000000000000411,-2.875865627469644803
0.589000000000000412,-2.849859890652186145
0.590000000000000413,-2.824024589132863916
0.591000000000000414,-2.798359660728829468
0.592000000000000415,-2.772865024850907467
0.593000000000000416,-2.747540582739560033
0.594000000000000417,-2.722386217703006039
0.595000000000000417,-2.697401795357335264
0.596000000000000418,-2.672587163868273663
0.597000000000000419,-2.647942154194722342
0.598000000000000420,-2.623466580333636777
0.599000000000000421,-2.599160239566303154
0.600000000000000422,-2.575022912705739575
0.601000000000000423,-2.551054364345128000
0.602000000000000424,-2.527254343107142809
0.603000000000000425,-2.503622581894002330
0.604000000000000425,-2.480158798138150100
0.605000000000000426,-2.456862694053401075
0.606000000000000427,-2.433733956886503513
0.607000000000000428,-2.410772259168814546
0.608000000000000429,-2.387977258968271066
0.609000000000000430,-2.365348600141174540
0.610000000000000431,-2.342885912584031782
0.611000000000000432,-2.320588812485085306
