# CNT15-OH-14_CS-234-AC
# h[nm],U(h)[kJ/mol]
0.200000000000000011,72.787627791995447524
0.201000000000000012,71.647346899675909526
0.202000000000000013,70.411780019522652196
0.203000000000000014,69.137328518380542164
0.204000000000000015,67.854539546879593104
0.205000000000000016,66.578311767357291728
0.206000000000000016,65.314574689838892141
0.207000000000000017,64.064532694087716891
0.208000000000000018,62.827256015048376980
0.209000000000000019,61.601173583038665527
0.210000000000000020,60.384856340447456091
0.211000000000000021,59.177359049911501643
0.212000000000000022,57.978301938162687179
0.213000000000000023,56.787811918309316184
0.214000000000000024,55.606399924193794959
0.215000000000000024,54.434821068201713956
0.216000000000000025,53.273944165254718541
0.217000000000000026,52.124643882445866439
0.218000000000000027,50.987720336730994575
0.219000000000000028,49.863845881721374553
0.220000000000000029,48.753536019113695943
0.221000000000000030,47.657140066691326297
0.222000000000000031,46.574846865515610261
0.223000000000000032,45.506701032545066710
0.224000000000000032,44.452625801237488190
0.225000000000000033,43.412449168799959409
0.226000000000000034,42.385930773965341700
0.227000000000000035,41.372787596465371962
0.228000000000000036,40.372717161773621797
0.229000000000000037,39.385417435432856337
0.230000000000000038,38.410602996691082467
0.231000000000000039,37.448017395657075213
0.232000000000000040,36.497441830749991709
0.233000000000000040,35.558700445064346241
0.234000000000000041,34.631662643247182132
0.235000000000000042,33.716242886077992580
0.236000000000000043,32.812398438701507075
0.237000000000000044,31.920125539693174233
0.238000000000000045,31.039454429772735722
0.239000000000000046,30.170443637613988841
0.240000000000000047,29.313173871135440152
0.241000000000000048,28.467741810070986475
0.242000000000000048,27.634254042673326524
0.243000000000000049,26.812821338408706850
0.244000000000000050,26.003553401070757189
0.245000000000000051,25.206554203894789623
0.246000000000000052,24.421917970576437540
0.247000000000000053,23.649725833802694552
0.248000000000000054,22.890043175952005328
0.249000000000000055,22.142917634776527080
0.250000000000000056,21.408377739780299009
0.251000000000000056,20.686432132204863876
0.252000000000000057,19.977069312536933410
0.253000000000000058,19.280257853756680220
0.254000000000000059,18.595947015647396938
0.255000000000000060,17.924067694913212279
0.256000000000000061,17.264533647154667761
0.257000000000000062,16.617242919528798950
0.258000000000000063,15.982079436808021455
0.259000000000000064,15.358914688234808210
0.260000000000000064,14.747609467772658576
0.261000000000000065,14.148015625847913057
0.262000000000000066,13.559977796267943972
0.263000000000000067,12.983335067536605933
0.264000000000000068,12.417922573141026987
0.265000000000000069,11.863572980462274487
0.266000000000000070,11.320117862697554045
0.267000000000000071,10.787388942523616464
0.268000000000000071,10.265219200153481438
0.269000000000000072,9.753443841925347968
0.270000000000000073,9.251901128613527092
0.271000000000000074,8.760433065274698450
0.272000000000000075,8.278885956654541189
0.273000000000000076,7.807110834003315070
0.274000000000000077,7.344963760609192427
0.275000000000000078,6.892306024485726823
0.276000000000000079,6.449004227475060524
0.277000000000000079,6.014930280582009736
0.278000000000000080,5.589961315670135988
0.279000000000000081,5.173979523756157661
0.280000000000000082,4.766871930066763241
0.281000000000000083,4.368530115796981583
0.282000000000000084,3.978849896159945221
0.283000000000000085,3.597730963866784926
0.284000000000000086,3.225076506644248830
0.285000000000000087,2.860792806808225563
0.286000000000000087,2.504788830278179113
0.287000000000000088,2.156975811758948591
0.288000000000000089,1.817266842144358963
0.289000000000000090,1.485576463523573087
0.290000000000000091,1.161820276507133265
0.291000000000000092,0.845914563941105313
0.292000000000000093,0.537775934454272297
0.293000000000000094,0.237320988688124096
0.294000000000000095,-0.055533989501971207
0.295000000000000095,-0.340873315111795805
0.296000000000000096,-0.618782156042934295
0.297000000000000097,-0.889346758317879127
0.298000000000000098,-1.152654642032452825
0.299000000000000099,-1.408794767988950092
0.300000000000000100,-1.657857675279295950
0.301000000000000101,-1.899935590375784411
0.302000000000000102,-2.135122508536456909
0.303000000000000103,-2.363514248547800900
0.304000000000000103,-2.585208482007316455
0.305000000000000104,-2.800304738498152091
0.306000000000000105,-3.008904388127316754
0.307000000000000106,-3.211110602990842722
0.308000000000000107,-3.407028299196423582
0.309000000000000108,-3.596764061117705413
0.310000000000000109,-3.780426049578115233
0.311000000000000110,-3.958123895666030734
0.312000000000000111,-4.129968581872261346
0.313000000000000111,-4.296072312213633282
0.314000000000000112,-4.456548372968088145
0.315000000000000113,-4.611510985596831702
0.316000000000000114,-4.761075153370329716
0.317000000000000115,-4.905356503148391667
0.318000000000000116,-5.044471123692273906
0.319000000000000117,-5.178535401809289063
0.320000000000000118,-5.307665857549525690
0.321000000000000119,-5.431978979591120194
0.322000000000000119,-5.551591061865515542
0.323000000000000120,-5.666618042388654963
0.324000000000000121,-5.777175345179224486
0.325000000000000122,-5.883377726060341040
0.326000000000000123,-5.985339123058449395
0.327000000000000124,-6.083172512032361645
0.328000000000000125,-6.176989768087109312
0.329000000000000126,-6.266901533251624912
0.330000000000000127,-6.353017090827011160
0.331000000000000127,-6.435444246743143637
0.332000000000000128,-6.514289218195870035
0.333000000000000129,-6.589656529775472116
0.334000000000000130,-6.661648917238833789
0.335000000000000131,-6.730367239024182879
0.336000000000000132,-6.795910395556362005
0.337000000000000133,-6.858375256344727333
0.338000000000000134,-6.917856594833051709
0.339000000000000135,-6.974447030921564483
0.340000000000000135,-7.028236981046677379
0.341000000000000136,-7.079314615671549404
0.342000000000000137,-7.127765824012877616
0.343000000000000138,-7.173674185803816883
0.344000000000000139,-7.217120949871448587
0.345000000000000140,-7.258185019287944684
0.346000000000000141,-7.296942942838695600
0.347000000000000142,-7.333468912537066231
0.348000000000000143,-7.367834766904712396
0.349000000000000143,-7.400109999727606969
0.350000000000000144,-7.430361773991705832
0.351000000000000145,-7.458654940697603486
0.352000000000000146,-7.485052062251313032
0.353000000000000147,-7.509613440127222539
0.354000000000000148,-7.532397146500306562
0.355000000000000149,-7.553459059546801413
0.356000000000000150,-7.572852902116028240
0.357000000000000151,-7.590630283480867213
0.358000000000000151,-7.606840743879931033
0.359000000000000152,-7.621531801571217457
0.360000000000000153,-7.634749002124520345
0.361000000000000154,-7.646535969687795031
0.362000000000000155,-7.656934459971630247
0.363000000000000156,-7.665984414705059535
0.364000000000000157,-7.673724017325564084
0.365000000000000158,-7.680189749676292976
0.366000000000000159,-7.685416449493379432
0.367000000000000159,-7.689437368477004320
0.368000000000000160,-7.692284230750141560
0.369000000000000161,-7.693987291519507998
0.370000000000000162,-7.694575395763959769
0.371000000000000163,-7.694076036785960859
0.372000000000000164,-7.692515414472214097
0.373000000000000165,-7.689918493119920484
0.374000000000000166,-7.686309058695276697
0.375000000000000167,-7.681709775400582529
0.376000000000000167,-7.676142241436364699
0.377000000000000168,-7.669627043854118753
0.378000000000000169,-7.662183812404578021
0.379000000000000170,-7.653831272295368748
0.380000000000000171,-7.644587295780493896
0.381000000000000172,-7.634468952512290407
0.382000000000000173,-7.623492558594618274
0.383000000000000174,-7.611673724283638087
0.384000000000000175,-7.599027400289770640
0.385000000000000175,-7.585567922641432759
0.386000000000000176,-7.571309056077910604
0.387000000000000177,-7.556264035944673552
0.388000000000000178,-7.540445608570851554
0.389000000000000179,-7.523866070113735205
0.390000000000000180,-7.506537303860784327
0.391000000000000181,-7.488470815984467954
0.392000000000000182,-7.469677769749836216
0.393000000000000183,-7.450169018179157554
0.394000000000000183,-7.429955135181904424
0.395000000000000184,-7.409046445162166705
0.396000000000000185,-7.387453051118922254
0.397000000000000186,-7.365184861257804805
0.398000000000000187,-7.342251614135965276
0.399000000000000188,-7.318662902364131639
0.400000000000000189,-7.294428194892434547
0.401000000000000190,-7.269556857908746395
0.402000000000000191,-7.244058174380151982
0.403000000000000191,-7.217941362269833405
0.404000000000000192,-7.191215591463328671
0.405000000000000193,-7.163889999439154721
0.406000000000000194,-7.135973705720145333
0.407000000000000195,-7.107475825142712367
0.408000000000000196,-7.078405479981898729
0.409000000000000197,-7.048771810970857032
0.410000000000000198,-7.018583987253869338
0.411000000000000199,-6.987851215312102404
0.412000000000000199,-6.956582746901853298
0.413000000000000200,-6.924787886044788010
0.414000000000000201,-6.892475995109902165
0.415000000000000202,-6.859656500026568793
0.416000000000000203,-6.826338894667967949
0.417000000000000204,-6.792532744443798620
0.418000000000000205,-6.758247689140729264
0.419000000000000206,-6.723493445048701389
0.420000000000000207,-6.688279806410382555
0.421000000000000207,-6.652616646230855579
0.422000000000000208,-6.616513916483460100
0.423000000000000209,-6.579981647747507267
0.424000000000000210,-6.543029948312403477
0.425000000000000211,-6.505669002782116017
0.426000000000000212,-6.467909070213162082
0.427000000000000213,-6.429760481818118656
0.428000000000000214,-6.391233638266198724
0.429000000000000214,-6.352339006611090966
0.430000000000000215,-6.313087116875673033
0.431000000000000216,-6.273488558322084963
0.432000000000000217,-6.233553975434754868
0.433000000000000218,-6.193294063642952985
0.434000000000000219,-6.152719564808622366
0.435000000000000220,-6.111841262504139394
0.436000000000000221,-6.070669977103740678
0.437000000000000222,-6.029216560711404327
0.438000000000000222,-5.987491891947033018
0.439000000000000223,-5.945506870611834138
0.440000000000000224,-5.903272412252844603
0.441000000000000225,-5.860799442645591384
0.442000000000000226,-5.818098892213160234
0.443000000000000227,-5.775181690398710543
0.444000000000000228,-5.732058760008008846
0.445000000000000229,-5.688741011537318926
0.446000000000000230,-5.645239337501367416
0.447000000000000230,-5.601564606775269795
0.448000000000000231,-5.557727658963381501
0.449000000000000232,-5.513739298807303513
0.450000000000000233,-5.469610290644669526
0.451000000000000234,-5.425351352929244975
0.452000000000000235,-5.380973152822588368
0.453000000000000236,-5.336486300866375210
0.454000000000000237,-5.291901345744250307
0.455000000000000238,-5.247228769141012883
0.456000000000000238,-5.202478980706627176
0.457000000000000239,-5.157662313131718079
0.458000000000000240,-5.112789017340812592
0.459000000000000241,-5.067869257808757411
0.460000000000000242,-5.022913108005583105
0.461000000000000243,-4.977930545974109222
0.462000000000000244,-4.932931450044565125
0.463000000000000245,-4.887925594689453312
0.464000000000000246,-4.842922646522080932
0.465000000000000246,-4.797932160441166438
0.466000000000000247,-4.752963575923835116
0.467000000000000248,-4.708026213468810006
0.468000000000000249,-4.663129271191277070
0.469000000000000250,-4.618281821570467294
0.470000000000000251,-4.573492808350749783
0.471000000000000252,-4.528771043596538703
0.472000000000000253,-4.484125204901346251
0.473000000000000254,-4.439563832750541117
0.474000000000000254,-4.395095328037575300
0.475000000000000255,-4.350727949732843491
0.476000000000000256,-4.306469812704280642
0.477000000000000257,-4.262328885688547508
0.478000000000000258,-4.218312989411322711
0.479000000000000259,-4.174429794855257114
0.480000000000000260,-4.130686821673717368
0.481000000000000261,-4.087091436748415241
0.482000000000000262,-4.043650852888863945
0.483000000000000262,-4.000372127671409039
0.484000000000000263,-3.957262162415429607
0.485000000000000264,-3.914327701294287642
0.486000000000000265,-3.871575330578401974
0.487000000000000266,-3.829011478007703140
0.488000000000000267,-3.786642412290755821
0.489000000000000268,-3.744474242727660052
0.490000000000000269,-3.702512918953738907
0.491000000000000270,-3.660764230801115904
0.492000000000000270,-3.619233808275027720
0.493000000000000271,-3.577927121641838681
0.494000000000000272,-3.536849481625630176
0.495000000000000273,-3.496006039710102264
0.496000000000000274,-3.455401788542760588
0.497000000000000275,-3.415041562438010381
0.498000000000000276,-3.374930037976056951
0.499000000000000277,-3.335071734694371237
0.500000000000000222,-3.295471015868417730
0.501000000000000334,-3.256132089378543704
0.502000000000000224,-3.217059008659760799
0.503000000000000336,-3.178255673731176678
0.504000000000000226,-3.139725832302063591
0.505000000000000338,-3.101473080951176797
0.506000000000000227,-3.063500866376478893
0.507000000000000339,-3.025812486711891847
0.508000000000000229,-2.988411092908276778
0.509000000000000341,-2.951299690175366752
0.510000000000000231,-2.914481139481968519
0.511000000000000343,-2.877958159111145164
0.512000000000000233,-2.841733326267799953
0.513000000000000345,-2.805809078735546080
0.514000000000000234,-2.770187716580337689
0.515000000000000346,-2.734871403897758846
0.516000000000000236,-2.699862170601641687
0.517000000000000348,-2.665161914251049868
0.518000000000000238,-2.630772401913275882
0.519000000000000350,-2.596695272060098869
0.520000000000000240,-2.562932036495001675
0.521000000000000352,-2.529484082308804282
0.522000000000000242,-2.496352673861405247
0.523000000000000353,-2.463538954787260149
0.524000000000000243,-2.431043950022419686
0.525000000000000355,-2.398868567850853672
0.526000000000000245,-2.367013601968029235
0.527000000000000357,-2.335479733559509885
0.528000000000000247,-2.304267533392761802
0.529000000000000359,-2.273377463920003727
0.530000000000000249,-2.242809881390383175
0.531000000000000361,-2.212565037969477011
0.532000000000000250,-2.182643083864497235
0.533000000000000362,-2.153044069453321718
0.534000000000000252,-2.123767947415803548
0.535000000000000364,-2.094814574865675905
0.536000000000000254,-2.066183715481579419
0.537000000000000366,-2.037875041635567541
0.538000000000000256,-2.009888136517873569
0.539000000000000368,-1.982222496256294875
0.540000000000000258,-1.954877532029123399
0.541000000000000369,-1.927852572170071443
0.542000000000000259,-1.901146864264242620
0.543000000000000371,-1.874759577233724217
0.544000000000000261,-1.848689803411848631
0.545000000000000373,-1.822936560604953460
0.546000000000000263,-1.797498794140688361
0.547000000000000375,-1.772375378901741128
0.548000000000000265,-1.747565121344314409
0.549000000000000377,-1.723066761500133381
0.550000000000000266,-1.698878974961452570
0.551000000000000378,-1.675000374848034657
0.552000000000000268,-1.651429513755490408
0.553000000000000380,-1.628164885684176166
0.554000000000000270,-1.605204927948061577
0.555000000000000382,-1.582548023062812392
0.556000000000000272,-1.560192500612672672
0.557000000000000384,-1.538136639095366354
0.558000000000000274,-1.516378667744754161
0.559000000000000385,-1.494916768330502022
0.560000000000000275,-1.473749076934553370
0.561000000000000387,-1.452873685703804485
0.562000000000000277,-1.432288644578717740
0.563000000000000389,-1.411991962997465322
0.564000000000000279,-1.391981611575326738
0.565000000000000391,-1.372255523759011275
0.566000000000000281,-1.352811597455682691
0.567000000000000393,-1.333647696636418134
0.568000000000000282,-1.314761652913973622
0.569000000000000394,-1.296151267094551196
0.570000000000000284,-1.277814310703566436
0.571000000000000396,-1.259748527485159197
0.572000000000000286,-1.241951634875468669
0.573000000000000398,-1.224421325449446041
0.574000000000000288,-1.207155268341295606
0.575000000000000400,-1.190151110638410836
0.576000000000000290,-1.173406478748831638
0.577000000000000401,-1.156918979742199038
0.578000000000000291,-1.140686202664267679
0.579000000000000403,-1.124705719824970584
0.580000000000000293,-1.108975088060147218
0.581000000000000405,-1.093491849966938823
0.582000000000000295,-1.078253535113037120
0.583000000000000407,-1.063257661219784600
0.584000000000000297,-1.048501735319335548
0.585000000000000409,-1.033983254885953551
0.586000000000000298,-1.019699708941634420
0.587000000000000410,-1.005648579136172227
0.588000000000000300,-0.991827340801893720
0.589000000000000412,-0.978233463983160911
0.590000000000000302,-0.964864414440933849
0.591000000000000414,-0.951717654632532550
0.592000000000000304,-0.938790644666827823
0.593000000000000416,-0.926080843235063123
0.594000000000000306,-0.913585708517604678
0.595000000000000417,-0.901302699066765300
0.596000000000000307,-0.889229274666018421
0.597000000000000419,-0.877362897165818723
0.598000000000000309,-0.865701031296332801
0.599000000000000421,-0.854241145457253159
0.600000000000000311,-0.842980712485100758
0.601000000000000423,-0.831917210398155027
0.602000000000000313,-0.821048123119416773
0.603000000000000425,-0.810370941177759874
0.604000000000000314,-0.799883162387718505
0.605000000000000426,-0.789582292508027139
0.606000000000000316,-0.779465845879379060
0.607000000000000428,-0.769531346041550157
0.608000000000000318,-0.759776326330335205
0.609000000000000430,-0.750198330454461604
0.610000000000000320,-0.740794913052915005
0.611000000000000432,-0.731563640232872126
0.612000000000000322,-0.722502090088638305
0.613000000000000433,-0.713607853201847275
0.614000000000000323,-0.704878533123256323
0.615000000000000435,-0.696311746836444589
0.616000000000000325,-0.687905125203725043
0.617000000000000437,-0.679656313394577660
0.618000000000000327,-0.671562971296941980
0.619000000000000439,-0.663622773911626163
0.620000000000000329,-0.655833411730210925
0.621000000000000441,-0.648192591096713011
0.622000000000000330,-0.640698034553329521
0.623000000000000442,-0.633347481170575710
0.624000000000000332,-0.626138686862117155
0.625000000000000444,-0.619069424684616232
0.626000000000000334,-0.612137485122874692
0.627000000000000446,-0.605340676360589969
0.628000000000000336,-0.598676824537027974
0.629000000000000448,-0.592143773989892708
0.630000000000000338,-0.585739387484717877
0.631000000000000449,-0.579461546431044305
0.632000000000000339,-0.573308151085691775
0.633000000000000451,-0.567277120743414409
0.634000000000000341,-0.561366393915216921
0.635000000000000453,-0.555573928494634495
0.636000000000000343,-0.549897701912219206
0.637000000000000455,-0.544335711278562284
0.638000000000000345,-0.538885973516093908
0.639000000000000457,-0.533546525479922762
0.640000000000000346,-0.528315424068032669
0.641000000000000458,-0.523190746321043676
0.642000000000000348,-0.518170589511851021
0.643000000000000460,-0.513253071225360236
0.644000000000000350,-0.508436329428612277
0.645000000000000462,-0.503718522531518054
0.646000000000000352,-0.499097829438483687
0.647000000000000464,-0.494572449591129615
0.648000000000000353,-0.490140603002418462
0.649000000000000465,-0.485800530282334442
0.650000000000000355,-0.481550492655447471
0.651000000000000467,-0.477388771970514880
0.652000000000000357,-0.473313670702414868
0.653000000000000469,-0.469323511946575511
0.654000000000000359,-0.465416639406187826
0.655000000000000471,-0.461591417372347546
0.656000000000000361,-0.457846230697416978
0.657000000000000473,-0.454179484761748242
0.658000000000000362,-0.450589605434035256
0.659000000000000474,-0.447075039025447207
0.660000000000000364,-0.443634252237793736
0.661000000000000476,-0.440265732105873997
0.662000000000000366,-0.436967985934230030
0.663000000000000478,-0.433739541228497394
