# CNT15-OH-14_CS-8897-AC
# h[nm],U(h)[kJ/mol]
0.200000000000000011,68.260466970501880724
0.201000000000000012,66.718196058582691421
0.202000000000000013,65.473066843638633827
0.203000000000000014,64.357566077579292596
0.204000000000000015,63.278199703217943295
0.205000000000000016,62.188624508197882790
0.206000000000000016,61.071215313117832579
0.207000000000000017,59.924695309191221781
0.208000000000000018,58.756070446901659921
0.209000000000000019,57.575573436467223587
0.210000000000000020,56.393673240283433756
0.211000000000000021,55.219468583570417763
0.212000000000000022,54.059979675868817139
0.213000000000000023,52.919997041656969827
0.214000000000000024,51.802252469421617320
0.215000000000000024,50.707754122567429533
0.216000000000000025,49.636183113001415279
0.217000000000000026,48.586287897747183706
0.218000000000000027,47.556239965457073993
0.219000000000000028,46.543932647828981430
0.220000000000000029,45.547216941845576343
0.221000000000000030,44.564075774586086709
0.222000000000000031,43.592742529646294258
0.223000000000000032,42.631771875014038642
0.224000000000000032,41.680071710154017239
0.225000000000000033,40.736904906358752498
0.226000000000000034,39.801868819054789128
0.227000000000000035,38.874859561212403491
0.228000000000000036,37.956026918021983363
0.229000000000000037,37.045724669020934527
0.230000000000000038,36.144460036003223991
0.231000000000000039,35.252845033804064201
0.232000000000000040,34.371551685703124690
0.233000000000000040,33.501272380744566703
0.234000000000000041,32.642686092533693909
0.235000000000000042,31.796430738258010251
0.236000000000000043,30.963081619994518690
0.237000000000000044,30.143135643750298414
0.238000000000000045,29.337000841009562180
0.239000000000000046,28.544990609385603619
0.240000000000000047,27.767322030980274405
0.241000000000000048,27.004117608292467878
0.242000000000000048,26.255409768484650357
0.243000000000000049,25.521147519442859419
0.244000000000000050,24.801204688640801521
0.245000000000000051,24.095389232856369688
0.246000000000000052,23.403453168924876593
0.247000000000000053,22.725102739528534102
0.248000000000000054,22.060008490932389691
0.249000000000000055,21.407814999688874025
0.250000000000000056,20.768150041325114330
0.251000000000000056,20.140633045046108407
0.252000000000000057,19.524882724051657590
0.253000000000000058,18.920523810986864532
0.254000000000000059,18.327192862355911274
0.255000000000000060,17.744543124626840580
0.256000000000000061,17.172248478553072459
0.257000000000000062,16.610006497329557362
0.258000000000000063,16.057540669025652136
0.259000000000000064,15.514601844754992044
0.260000000000000064,14.980968981719659183
0.261000000000000065,14.456449255056565306
0.262000000000000066,13.940877614749444646
0.263000000000000067,13.434115864158462372
0.264000000000000068,12.936051335331189449
0.265000000000000069,12.446595233531720481
0.266000000000000070,11.965680719662035614
0.267000000000000071,11.493260794714267092
0.268000000000000071,11.029306045318428176
0.269000000000000072,10.573802304033575794
0.270000000000000073,10.126748272439836995
0.271000000000000074,9.688153149464838521
0.272000000000000075,9.258034301832845259
0.273000000000000076,8.836415008152595618
0.274000000000000077,8.423322303028818681
0.275000000000000078,8.018784942748419908
0.276000000000000079,7.622831509592591814
0.277000000000000079,7.235488667684734310
0.278000000000000080,6.856779579518028633
0.279000000000000081,6.486722488916340623
0.280000000000000082,6.125329473169148109
0.281000000000000083,5.772605364433266217
0.282000000000000084,5.428546838199672209
0.283000000000000085,5.093141664664369905
0.284000000000000086,4.766368117197465892
0.285000000000000087,4.448194530754347120
0.286000000000000087,4.138579001991771200
0.287000000000000088,3.837469222017934278
0.288000000000000089,3.544802432094936506
0.289000000000000090,3.260505492201013489
0.290000000000000091,2.984495052126888925
0.291000000000000092,2.716677814702350702
0.292000000000000093,2.456950880806917592
0.293000000000000094,2.205202165991624774
0.294000000000000095,1.961310878810255121
0.295000000000000095,1.725148051310401387
0.296000000000000096,1.496577112553614697
0.297000000000000097,1.275454496504138113
0.298000000000000098,1.061630276136332984
0.299000000000000099,0.854948816149455837
0.300000000000000100,0.655249437236240850
0.301000000000000101,0.462367085418664892
0.302000000000000102,0.276133000534496686
0.303000000000000103,0.096375378522909075
0.304000000000000103,-0.077079977286244494
0.305000000000000104,-0.244409020134324695
0.306000000000000105,-0.405788842778928793
0.307000000000000106,-0.561397082652694834
0.308000000000000107,-0.711411351989516105
0.309000000000000108,-0.856008695220094373
0.310000000000000109,-0.995365075514874853
0.311000000000000110,-1.129654891955574447
0.312000000000000111,-1.259050528449449313
0.313000000000000111,-1.383721935160580729
0.314000000000000112,-1.503836242922041544
0.315000000000000113,-1.619557410809633113
0.316000000000000114,-1.731045906802336942
0.317000000000000115,-1.838458421225057648
0.318000000000000116,-1.941947612465413142
0.319000000000000117,-2.041661884276415151
0.320000000000000118,-2.137745193820148160
0.321000000000000119,-2.230336889472693152
0.322000000000000119,-2.319571577295858056
0.323000000000000120,-2.405579014985830710
0.324000000000000121,-2.488484032031458959
0.325000000000000122,-2.568406474753476054
0.326000000000000123,-2.645461174850013641
0.327000000000000124,-2.719757940041531263
0.328000000000000125,-2.791401565388903716
0.329000000000000126,-2.860491863849998762
0.330000000000000127,-2.927123714642397623
0.331000000000000127,-2.991387127991115946
0.332000000000000128,-3.053367324859564302
0.333000000000000129,-3.113144830288607334
0.334000000000000130,-3.170795579001135067
0.335000000000000131,-3.226391031967943857
0.336000000000000132,-3.279998302672959110
0.337000000000000133,-3.331680291862464394
0.338000000000000134,-3.381495829612483739
0.339000000000000135,-3.429499823600069330
0.340000000000000135,-3.475743412518471409
0.341000000000000136,-3.520274123630842134
0.342000000000000137,-3.563136033513367273
0.343000000000000138,-3.604369931094859147
0.344000000000000139,-3.644013482156419403
0.345000000000000140,-3.682101394510696846
0.346000000000000141,-3.718665583135729147
0.347000000000000142,-3.753735334592864348
0.348000000000000143,-3.787337470111678872
0.349000000000000143,-3.819496506776791644
0.350000000000000144,-3.850234816302059215
0.351000000000000145,-3.879572780926427100
0.352000000000000146,-3.907528946012929882
0.353000000000000147,-3.934120168977435661
0.354000000000000148,-3.959361764217124602
0.355000000000000149,-3.983267643749896170
0.356000000000000150,-4.005850453315234816
0.357000000000000151,-4.027121703724183099
0.358000000000000151,-4.047091897281307027
0.359000000000000152,-4.065770649134504922
0.360000000000000153,-4.083166803439771009
0.361000000000000154,-4.099288544256780575
0.362000000000000155,-4.114143501118549651
0.363000000000000156,-4.127738849243316466
0.364000000000000157,-4.140081404380144825
0.365000000000000158,-4.151177712301328704
0.366000000000000159,-4.161034132974041455
0.367000000000000159,-4.169656919461957045
0.368000000000000160,-4.177052291623729374
0.369000000000000161,-4.183226504690011005
0.370000000000000162,-4.188185912814000211
0.371000000000000163,-4.191937027702316243
0.372000000000000164,-4.194486572443475225
0.373000000000000165,-4.195841530660423757
0.374000000000000166,-4.196009191121678583
0.375000000000000167,-4.194997187952194118
0.376000000000000167,-4.192813536591147638
0.377000000000000168,-4.189466665648343024
0.378000000000000169,-4.184965444814777058
0.379000000000000170,-4.179319208985945444
0.380000000000000171,-4.172537778758377058
0.381000000000000172,-4.164631477461392173
0.382000000000000173,-4.155611144886567132
0.383000000000000174,-4.145488147877568252
0.384000000000000175,-4.134274387942209472
0.385000000000000175,-4.121982306047612177
0.386000000000000176,-4.108624884757708706
0.387000000000000177,-4.094215647870103503
0.388000000000000178,-4.078768657707148471
0.389000000000000179,-4.062298510212897895
0.390000000000000180,-4.044820328004808729
0.391000000000000181,-4.026349751525398979
0.392000000000000182,-4.006902928435570388
0.393000000000000183,-3.986496501387317259
0.394000000000000183,-3.965147594309615275
0.395000000000000184,-3.942873797336982733
0.396000000000000185,-3.919693150505970003
0.397000000000000186,-3.895624126340355708
0.398000000000000187,-3.870685611441408103
0.399000000000000188,-3.844896887194964474
0.400000000000000189,-3.818277609702565911
0.401000000000000190,-3.790847789039248905
0.402000000000000191,-3.762627767936120193
0.403000000000000191,-3.733638199981097472
0.404000000000000192,-3.703900027426905606
0.405000000000000193,-3.673434458690708393
0.406000000000000194,-3.642262945625502901
0.407000000000000195,-3.610407160638999358
0.408000000000000196,-3.577888973731349953
0.409000000000000197,-3.544730429519006520
0.410000000000000198,-3.510953724307884549
0.411000000000000199,-3.476581183274853437
0.412000000000000199,-3.441635237812892711
0.413000000000000200,-3.406138403091284239
0.414000000000000201,-3.370113255878654179
0.415000000000000202,-3.333582412672979611
0.416000000000000203,-3.296568508179405832
0.417000000000000204,-3.259094174173177372
0.418000000000000205,-3.221182018781971745
0.419000000000000206,-3.182854606218743942
0.420000000000000207,-3.144134436993132553
0.421000000000000207,-3.105043928626920913
0.422000000000000208,-3.065605396895897616
0.423000000000000209,-3.025841037618296703
0.424000000000000210,-2.985772909007185838
0.425000000000000211,-2.945422914601925068
0.426000000000000212,-2.904812786791638235
0.427000000000000213,-2.863964070941281914
0.428000000000000214,-2.822898110129169247
0.429000000000000214,-2.781636030502569135
0.430000000000000215,-2.740198727256404787
0.431000000000000216,-2.698606851238351645
0.432000000000000217,-2.656880796181860571
0.433000000000000218,-2.615040686567298156
0.434000000000000219,-2.573106366109921606
0.435000000000000220,-2.531097386872070754
0.436000000000000221,-2.489032998995715396
0.437000000000000222,-2.446932141050373932
0.438000000000000222,-2.404813430990372147
0.439000000000000223,-2.362695157714394423
0.440000000000000224,-2.320595273219384858
0.441000000000000225,-2.278531385339982673
0.442000000000000226,-2.236520751064098089
0.443000000000000227,-2.194580270414209000
0.444000000000000228,-2.152726480883708327
0.445000000000000229,-2.110975552416790801
0.446000000000000230,-2.069343282919962945
0.447000000000000230,-2.027845094292886952
0.448000000000000231,-1.986496028965729410
0.449000000000000232,-1.945310746929916679
0.450000000000000233,-1.904303523248986441
0.451000000000000234,-1.863488246035794660
0.452000000000000235,-1.822878414882325826
0.453000000000000236,-1.782487139728009762
0.454000000000000237,-1.742327140152543974
0.455000000000000238,-1.702410745078870802
0.456000000000000238,-1.662749892872164015
0.457000000000000239,-1.623356131820441250
0.458000000000000240,-1.584240620982639625
0.459000000000000241,-1.545414131389766021
0.460000000000000242,-1.506887047585131034
0.461000000000000243,-1.468669369489406407
0.462000000000000244,-1.430770714576717229
0.463000000000000245,-1.393200320347713683
0.464000000000000246,-1.355967047086157562
0.465000000000000246,-1.319079380885359587
0.466000000000000247,-1.282545436931182836
0.467000000000000248,-1.246372963028469671
0.468000000000000249,-1.210569343358015582
0.469000000000000250,-1.175141602451334588
0.470000000000000251,-1.140096409370829011
0.471000000000000252,-1.105440082083067432
0.472000000000000253,-1.071178592013352304
0.473000000000000254,-1.037317568769741571
0.474000000000000254,-1.003862305025215784
0.475000000000000255,-0.970817761546787894
0.476000000000000256,-0.938188572360701301
0.477000000000000257,-0.905979050043172029
0.478000000000000258,-0.874193191126308222
0.479000000000000259,-0.842834681609278769
0.480000000000000260,-0.811906902564976329
0.481000000000000261,-0.781412935832726641
0.482000000000000262,-0.751355569787983013
0.483000000000000262,-0.721737305180113808
0.484000000000000263,-0.692560361029731286
0.485000000000000264,-0.663826680577341621
0.486000000000000265,-0.635537937275319376
0.487000000000000266,-0.607695540815514135
0.488000000000000267,-0.580300643185097886
0.489000000000000268,-0.553354144743564591
0.490000000000000269,-0.526856700313947934
0.491000000000000270,-0.500808725281810085
0.492000000000000270,-0.475210401695571272
0.493000000000000271,-0.450061684362256353
0.494000000000000272,-0.425362306932813017
0.495000000000000273,-0.401111787971490052
0.496000000000000274,-0.377309437004073822
0.497000000000000275,-0.353954360539858459
0.498000000000000276,-0.331045468062675208
0.499000000000000277,-0.308581477986386299
0.500000000000000222,-0.286560923570530812
0.501000000000000334,-0.264982158792077094
0.502000000000000224,-0.243843364169414434
0.503000000000000336,-0.223142552534882743
0.504000000000000226,-0.202877574752520939
0.505000000000000338,-0.183046125377651470
0.506000000000000227,-0.163645748255453055
0.507000000000000339,-0.144673842055492691
0.508000000000000229,-0.126127665739734995
0.509000000000000341,-0.108004343961421528
0.510000000000000231,-0.090300872392685444
0.511000000000000343,-0.073014122978603629
0.512000000000000233,-0.056140849115894800
0.513000000000000345,-0.039677690754344012
0.514000000000000234,-0.023621179419463113
0.515000000000000346,-0.007967743154699308
0.516000000000000236,0.007286288617935816
0.517000000000000348,0.022144680320184525
0.518000000000000238,0.036611285523768598
0.519000000000000350,0.050690042341544783
0.520000000000000240,0.064384968904339451
0.521000000000000352,0.077700158924181972
0.522000000000000242,0.090639777344533864
0.523000000000000353,0.103208056077950763
0.524000000000000243,0.115409289831573017
0.525000000000000355,0.127247832020686791
0.526000000000000245,0.138728090770515067
0.527000000000000357,0.149854525006361705
0.528000000000000247,0.160631640632013351
0.529000000000000359,0.171063986796391149
0.530000000000000249,0.181156152248195756
0.531000000000000361,0.190912761778348344
0.532000000000000250,0.200338472749851393
0.533000000000000362,0.209437971714724336
0.534000000000000252,0.218215971117522001
0.535000000000000364,0.226677206084900801
0.536000000000000254,0.234826431300681454
0.537000000000000366,0.242668417965778038
0.538000000000000256,0.250207950842244398
0.539000000000000368,0.257449825380794861
0.540000000000000258,0.264398844930915089
0.541000000000000369,0.271059818032837074
0.542000000000000259,0.277437555790426227
0.543000000000000371,0.283536869324143903
0.544000000000000261,0.289362567303105778
0.545000000000000373,0.294919453555287814
0.546000000000000263,0.300212324754870974
0.547000000000000375,0.305245968185720973
0.548000000000000265,0.310025159579897902
0.549000000000000377,0.314554661030193583
0.550000000000000266,0.318839218975546068
0.551000000000000378,0.322883562258234891
0.552000000000000268,0.326692400251743509
0.553000000000000380,0.330270421058115771
0.554000000000000270,0.333622289773660485
0.555000000000000382,0.336752646821852741
0.556000000000000272,0.339666106352199126
0.557000000000000384,0.342367254703965063
0.558000000000000274,0.344860648933463854
0.559000000000000385,0.347150815403813318
0.560000000000000275,0.349242248435870761
0.561000000000000387,0.351139409019192161
0.562000000000000277,0.352846723581802135
0.563000000000000389,0.354368582817537026
0.564000000000000279,0.355709340569797416
0.565000000000000391,0.356873312770463524
0.566000000000000281,0.357864776432825715
0.567000000000000393,0.358687968697274207
0.568000000000000282,0.359347085928596321
0.569000000000000394,0.359846282863686306
0.570000000000000284,0.360189671808495482
0.571000000000000396,0.360381321883028405
0.572000000000000286,0.360425258313236629
0.573000000000000398,0.360325461768681021
0.574000000000000288,0.360085867744782850
0.575000000000000400,0.359710365988518521
0.576000000000000290,0.359202799966507891
0.577000000000000401,0.358566966374287088
0.578000000000000291,0.357806614685741764
0.579000000000000403,0.356925446741577335
0.580000000000000293,0.355927116375765129
0.581000000000000405,0.354815229078879413
0.582000000000000295,0.353593341697317931
0.583000000000000407,0.352264962167322393
0.584000000000000297,0.350833549282834334
0.585000000000000409,0.349302512496108997
0.586000000000000298,0.347675211750180735
0.587000000000000410,0.345954957342110903
0.588000000000000300,0.344145009816142711
0.589000000000000412,0.342248579885752469
0.590000000000000302,0.340268828383711530
0.591000000000000414,0.338208866239182449
0.592000000000000304,0.336071754481034879
0.593000000000000416,0.333860504266420832
0.594000000000000306,0.331578076933770061
0.595000000000000417,0.329227384079349983
0.596000000000000307,0.326811287656575022
0.597000000000000419,0.324332600097186730
0.598000000000000309,0.321794084453545237
0.599000000000000421,0.319198454561251066
0.600000000000000311,0.316548375221265998
0.601000000000000423,0.313846462400829029
0.602000000000000313,0.311095283452399063
0.603000000000000425,0.308297357349906043
0.604000000000000314,0.305455154941579821
0.605000000000000426,0.302571099218686745
0.606000000000000316,0.299647565599473142
0.607000000000000428,0.296686882227659654
0.608000000000000318,0.293691330284822583
0.609000000000000430,0.290663144316038735
0.610000000000000320,0.287604512568174708
0.611000000000000432,0.284517577340186456
0.612000000000000322,0.281404435344888570
0.613000000000000433,0.278267138081553622
0.614000000000000323,0.275107692218830857
0.615000000000000435,0.271928059987391557
0.616000000000000325,0.268730159581816175
0.617000000000000437,0.265515865571142373
0.618000000000000327,0.262287009317610953
0.619000000000000439,0.259045379403102904
0.620000000000000329,0.255792722062772815
0.621000000000000441,0.252530741625422883
0.622000000000000330,0.249261100960168541
0.623000000000000442,0.245985421928921477
0.624000000000000332,0.242705285844317359
0.625000000000000444,0.239422233932588824
0.626000000000000334,0.236137767801067794
0.627000000000000446,0.232853349909841884
0.628000000000000336,0.229570404047245630
0.629000000000000448,0.226290315808766213
0.630000000000000338,0.223014433079051277
0.631000000000000449,0.219744066516611547
0.632000000000000339,0.216480490040951767
0.633000000000000451,0.213224941321732725
0.634000000000000341,0.209978622269710258
0.635000000000000453,0.206742699529072815
0.636000000000000343,0.203518304970983943
0.637000000000000455,0.200306536187916967
0.638000000000000345,0.197108456988623032
0.639000000000000457,0.193925097893385467
0.640000000000000346,0.190757456629344235
0.641000000000000458,0.187606498625617846
0.642000000000000348,0.184473157508008356
0.643000000000000460,0.181358335593025111
0.644000000000000350,0.178262904381047416
0.645000000000000462,0.175187705048359871
0.646000000000000352,0.172133548937915382
0.647000000000000464,0.169101218048565621
0.648000000000000353,0.166091465522621523
0.649000000000000465,0.163105016131522312
0.650000000000000355,0.160142566759468308
0.651000000000000467,0.157204786884830278
0.652000000000000357,0.154292319059175037
0.653000000000000469,0.151405779383772449
0.654000000000000359,0.148545757983407856
0.655000000000000471,0.145712819477392536
0.656000000000000361,0.142907503447609302
0.657000000000000473,0.140130324903481818
0.658000000000000362,0.137381774743740859
0.659000000000000474,0.134662320214879005
0.660000000000000364,0.131972405366170414
0.661000000000000476,0.129312451501160469
0.662000000000000366,0.126682857625536743
0.663000000000000478,0.124084000891257151
0.664000000000000368,0.121516237036892960
0.665000000000000480,0.118979900824045942
0.666000000000000369,0.116475306469828732
0.667000000000000481,0.114002748075265642
