# CNT15-OH-14_CS-7720-AC
# h[nm],U(h)[kJ/mol]
0.149999999999999994,140.813029733478174421
0.150999999999999995,138.273789668482436355
0.151999999999999996,136.245302767405064515
0.152999999999999997,134.329632544465908950
0.153999999999999998,132.382507617511976150
0.154999999999999999,130.378468950290852035
0.156000000000000000,128.338226688163643985
0.157000000000000001,126.292563162907370611
0.158000000000000002,124.266810940946086816
0.159000000000000002,122.276213325881784044
0.160000000000000003,120.326477418262555830
0.161000000000000004,118.416331399370008626
0.162000000000000005,116.540421710253212950
0.163000000000000006,114.691783047375309934
0.164000000000000007,112.863617261560492011
0.165000000000000008,111.050378773126539045
0.166000000000000009,109.248282409159699569
0.167000000000000010,107.455386979197598407
0.168000000000000010,105.671403000797070604
0.169000000000000011,103.897348864325095974
0.170000000000000012,102.135149595575242643
0.171000000000000013,100.387243262502380503
0.172000000000000014,98.656235255113728044
0.173000000000000015,96.944621240718760191
0.174000000000000016,95.254585466832565999
0.175000000000000017,93.587871579601454641
0.176000000000000018,91.945717359535734658
0.177000000000000018,90.328841848852761132
0.178000000000000019,88.737472447139893461
0.179000000000000020,87.171400010024626681
0.180000000000000021,85.630051267874890186
0.181000000000000022,84.112569590155359833
0.182000000000000023,82.617896972427502078
0.183000000000000024,81.144851926888563298
0.184000000000000025,79.692199596200111955
0.185000000000000026,78.258711820766478695
0.186000000000000026,76.843216046934088581
0.187000000000000027,75.444632869419336885
0.188000000000000028,74.062002673917533002
0.189000000000000029,72.694502313013515504
0.190000000000000030,71.341453042181186106
0.191000000000000031,70.002321095468687417
0.192000000000000032,68.676712323431999607
0.193000000000000033,67.364362276964200760
0.194000000000000034,66.065123024120197215
0.195000000000000034,64.778947853121422895
0.196000000000000035,63.505874859852738723
0.197000000000000036,62.246010255153976232
0.198000000000000037,60.999512065705381758
0.199000000000000038,59.766574749222982632
0.200000000000000039,58.547415104657986262
0.201000000000000040,57.342259733926212562
0.202000000000000041,56.151334204732350486
0.203000000000000042,54.974853974545588642
0.204000000000000042,53.813017063168310017
0.205000000000000043,52.665998404505614872
0.206000000000000044,51.533945765610937428
0.207000000000000045,50.416977091181735204
0.208000000000000046,49.315179112655435745
0.209000000000000047,48.228607051171422881
0.210000000000000048,47.157285241261398312
0.211000000000000049,46.101208505670683735
0.212000000000000050,45.060344119808064534
0.213000000000000050,44.034634215751410125
0.214000000000000051,43.023998489438092463
0.215000000000000052,42.028337089754543854
0.216000000000000053,41.047533583966313131
0.217000000000000054,40.081457909703750886
0.218000000000000055,39.129969239072224241
0.219000000000000056,38.192918695036183863
0.220000000000000057,37.270151873775141382
0.221000000000000058,36.361511139064006670
0.222000000000000058,35.466837665777731559
0.223000000000000059,34.585973219328835171
0.224000000000000060,33.718761666210362193
0.225000000000000061,32.865050217877929128
0.226000000000000062,32.024690416026814432
0.227000000000000063,31.197538871987159581
0.228000000000000064,30.383457776569866127
0.229000000000000065,29.582315199351079116
0.230000000000000066,28.793985198193059460
0.231000000000000066,28.018347760869669827
0.232000000000000067,27.255288601101575807
0.233000000000000068,26.504698831207186061
0.234000000000000069,25.766474533035818695
0.235000000000000070,25.040516247952837148
0.236000000000000071,24.326728405473566852
0.237000000000000072,23.625018708759697006
0.238000000000000073,22.935297493664240420
0.239000000000000073,22.257477076390983939
0.240000000000000074,21.591471103165908119
0.241000000000000075,20.937193913645181453
0.242000000000000076,20.294559928134766835
0.243000000000000077,19.663483067099306822
0.244000000000000078,19.043876209913253916
0.245000000000000079,18.435650698370526612
0.246000000000000080,17.838715889133521131
0.247000000000000081,17.252978758073332699
0.248000000000000081,16.678343558338283970
0.249000000000000082,16.114711532987548992
0.250000000000000111,15.561980682139841647
0.251000000000000112,15.020045583813814716
0.252000000000000113,14.488797266969680066
0.253000000000000114,13.968123134700727306
0.254000000000000115,13.457906935056621833
0.255000000000000115,12.958028776607184440
0.256000000000000116,12.468365185564392661
0.257000000000000117,11.988789201066524015
0.258000000000000118,11.519170505084668221
0.259000000000000119,11.059375583329202897
0.260000000000000120,10.609267913506695180
0.261000000000000121,10.168708177299404127
0.262000000000000122,9.737554492501844905
0.263000000000000123,9.315662661847898818
0.264000000000000123,8.902886435189723002
0.265000000000000124,8.499077781842563795
0.266000000000000125,8.104087170081545111
0.267000000000000126,7.717763850963788919
0.268000000000000127,7.339956143846622538
0.269000000000000128,6.970511721178505482
0.270000000000000129,6.609277890348228546
0.271000000000000130,6.256101870588112845
0.272000000000000131,5.910831063136518182
0.273000000000000131,5.573313313070210384
0.274000000000000132,5.243397161417889585
0.275000000000000133,4.920932086359565361
0.276000000000000134,4.605768732502186324
0.277000000000000135,4.297759127399027435
0.278000000000000136,3.996756884646733177
0.279000000000000137,3.702617393050913641
0.280000000000000138,3.415197991497496588
0.281000000000000139,3.134358129301635820
0.282000000000000139,2.859959511930818543
0.283000000000000140,2.591866232111778690
0.284000000000000141,2.329944886433696460
0.285000000000000142,2.074064677652177835
0.286000000000000143,1.824097502980472241
0.287000000000000144,1.579918028726833068
0.288000000000000145,1.341403751699081992
0.289000000000000146,1.108435047852278643
0.290000000000000147,0.880895208699855159
0.291000000000000147,0.658670466047003522
0.292000000000000148,0.441650005634525111
0.293000000000000149,0.229725970305321159
0.294000000000000150,0.022793453322153344
0.295000000000000151,-0.179249517523293933
0.296000000000000152,-0.376502004364292042
0.297000000000000153,-0.569060191629035539
0.298000000000000154,-0.757017425683299328
0.299000000000000155,-0.940464261109516309
0.300000000000000155,-1.119488512996684282
0.301000000000000156,-1.294175314629039786
0.302000000000000157,-1.464607179978092200
0.303000000000000158,-1.630864070420649181
0.304000000000000159,-1.793023465126391658
0.305000000000000160,-1.951160434580201608
0.306000000000000161,-2.105347716727986374
0.307000000000000162,-2.255655795259030150
0.308000000000000163,-2.402152979562783841
0.309000000000000163,-2.544905485923750099
0.310000000000000164,-2.683977519543949697
0.311000000000000165,-2.819431357008295613
0.312000000000000166,-2.951327428834363165
0.313000000000000167,-3.079724401773499931
0.314000000000000168,-3.204679260555702847
0.315000000000000169,-3.326247388795514404
0.316000000000000170,-3.444482648800625491
0.317000000000000171,-3.559437460048307855
0.318000000000000171,-3.671162876117808338
0.319000000000000172,-3.779708659889140510
0.320000000000000173,-3.885123356839590425
0.321000000000000174,-3.987454366289920671
0.322000000000000175,-4.086748010471609405
0.323000000000000176,-4.183049601304913878
0.324000000000000177,-4.276403504795229793
0.325000000000000178,-4.366853202971486603
0.326000000000000179,-4.454441353306416218
0.327000000000000179,-4.539209845572633739
0.328000000000000180,-4.621199856102505166
0.329000000000000181,-4.700451899432533942
0.330000000000000182,-4.777005877324462801
0.331000000000000183,-4.850901125166820371
0.332000000000000184,-4.922176455770066461
0.333000000000000185,-4.990870200578165772
0.334000000000000186,-5.057020248327622092
0.335000000000000187,-5.120664081192529693
0.336000000000000187,-5.181838808461423085
0.337000000000000188,-5.240581197797185453
0.338000000000000189,-5.296927704137480930
0.339000000000000190,-5.350914496297415113
0.340000000000000191,-5.402577481340427923
0.341000000000000192,-5.451952326787186998
0.342000000000000193,-5.499074480735013815
0.343000000000000194,-5.543979189963197385
0.344000000000000195,-5.586701516101046039
0.345000000000000195,-5.627276349937876176
0.346000000000000196,-5.665738423954469916
0.347000000000000197,-5.702122323156848971
0.348000000000000198,-5.736462494293379066
0.349000000000000199,-5.768793253536213861
0.350000000000000200,-5.799148792708055389
0.351000000000000201,-5.827563184134432639
0.352000000000000202,-5.854070384201002675
0.353000000000000203,-5.878704235694441671
0.354000000000000203,-5.901498469004174297
0.355000000000000204,-5.922486702260646219
0.356000000000000205,-5.941702440484531778
0.357000000000000206,-5.959179073819456107
0.358000000000000207,-5.974949874918634052
0.359000000000000208,-5.989047995554382275
0.360000000000000209,-6.001506462517039786
0.361000000000000210,-6.012358172867735995
0.362000000000000210,-6.021635888607363540
0.363000000000000211,-6.029372230821726575
0.364000000000000212,-6.035599673360648509
0.365000000000000213,-6.040350536106360302
0.366000000000000214,-6.043656977884318771
0.367000000000000215,-6.045550989067065117
0.368000000000000216,-6.046064383919640406
0.369000000000000217,-6.045228792732403988
0.370000000000000218,-6.043075653785149548
0.371000000000000218,-6.039636205183782636
0.372000000000000219,-6.034941476608795874
0.373000000000000220,-6.029022281012478501
0.374000000000000221,-6.021909206299575601
0.375000000000000222,-6.013632607023887466
0.376000000000000223,-6.004222596131519651
0.377000000000000224,-5.993709036779068633
0.378000000000000225,-5.982121534253243667
0.379000000000000226,-5.969489428016458987
0.380000000000000226,-5.955841783901173692
0.381000000000000227,-5.941207386473554841
0.382000000000000228,-5.925614731585873152
0.383000000000000229,-5.909092019134845941
0.384000000000000230,-5.891667146041686287
0.385000000000000231,-5.873367699468294845
0.386000000000000232,-5.854220950282035929
0.387000000000000233,-5.834253846780650399
0.388000000000000234,-5.813493008686990926
0.389000000000000234,-5.791964721422412588
0.390000000000000235,-5.769694930665994370
0.391000000000000236,-5.746709237205951837
0.392000000000000237,-5.723032892088101065
0.393000000000000238,-5.698690792065622013
0.394000000000000239,-5.673707475352841811
0.395000000000000240,-5.648107117685302825
0.396000000000000241,-5.621913528687149331
0.397000000000000242,-5.595150148546133018
0.398000000000000242,-5.567840044995879367
0.399000000000000243,-5.540005910604040018
0.400000000000000244,-5.511670060364538770
0.401000000000000245,-5.482854429591404788
0.402000000000000246,-5.453580572110944935
0.403000000000000247,-5.423869658748682987
0.404000000000000248,-5.393742476106858419
0.405000000000000249,-5.363219425627870685
0.406000000000000250,-5.332320522938536200
0.407000000000000250,-5.301065397469803209
0.408000000000000251,-5.269473292346063431
0.409000000000000252,-5.237563064538010238
0.410000000000000253,-5.205353185272612038
0.411000000000000254,-5.172861740693583066
0.412000000000000255,-5.140106432765525923
0.413000000000000256,-5.107104580414693729
0.414000000000000257,-5.073873120899130562
0.415000000000000258,-5.040428611400956882
0.416000000000000258,-5.006787230833233515
0.417000000000000259,-4.972964781853978167
0.418000000000000260,-4.938976693079665026
0.419000000000000261,-4.904838021490601108
0.420000000000000262,-4.870563455020491261
0.421000000000000263,-4.836167315322544624
0.422000000000000264,-4.801663560704398925
0.423000000000000265,-4.767065789224248284
0.424000000000000266,-4.732387241940631206
0.425000000000000266,-4.697640806308194250
0.426000000000000267,-4.662839019712061273
0.427000000000000268,-4.627994073133356423
0.428000000000000269,-4.593117814938515231
0.429000000000000270,-4.558221754785297897
0.430000000000000271,-4.523317067638178202
0.431000000000000272,-4.488414597886328572
0.432000000000000273,-4.453524863557138502
0.433000000000000274,-4.418658060618656513
0.434000000000000274,-4.383824067364233024
0.435000000000000275,-4.349032448872949708
0.436000000000000276,-4.314292461539519508
0.437000000000000277,-4.279613057667405407
0.438000000000000278,-4.245002890119176087
0.439000000000000279,-4.210470317018287112
0.440000000000000280,-4.176023406496430113
0.441000000000000281,-4.141669941480999206
0.442000000000000282,-4.107417424517317173
0.443000000000000282,-4.073273082620234575
0.444000000000000283,-4.039243872150231951
0.445000000000000284,-4.005336483708984652
0.446000000000000285,-3.971557347049644360
0.447000000000000286,-3.937912635997448341
0.448000000000000287,-3.904408273375947314
0.449000000000000288,-3.871049935934912867
0.450000000000000289,-3.837843059275588331
0.451000000000000290,-3.804792842769485706
0.452000000000000290,-3.771904254466972528
0.453000000000000291,-3.739182035991898800
0.454000000000000292,-3.706630707419002135
0.455000000000000293,-3.674254572130568164
0.456000000000000294,-3.642057721649379687
0.457000000000000295,-3.610044040444820190
0.458000000000000296,-3.578217210709289553
0.459000000000000297,-3.546580717102272295
0.460000000000000298,-3.515137851459355200
0.461000000000000298,-3.483891717463869497
0.462000000000000299,-3.452845235278765301
0.463000000000000300,-3.422001146136523175
0.464000000000000301,-3.391362016885118180
0.465000000000000302,-3.360930244488047780
0.466000000000000303,-3.330708060476593513
0.467000000000000304,-3.300697535352687506
0.468000000000000305,-3.270900582940743817
0.469000000000000306,-3.241318964686993986
0.470000000000000306,-3.211954293905056712
0.471000000000000307,-3.182808039966292579
0.472000000000000308,-3.153881532434016588
0.473000000000000309,-3.125175965140349454
0.474000000000000310,-3.096692400204825724
0.475000000000000311,-3.068431771993837209
0.476000000000000312,-3.040394891020254509
0.477000000000000313,-3.012582447782351291
0.478000000000000314,-2.984995016541571733
0.479000000000000314,-2.957633059038584200
0.480000000000000315,-2.930496928147091396
0.481000000000000316,-2.903586871465143382
0.482000000000000317,-2.876903034843526274
0.483000000000000318,-2.850445465851097371
0.484000000000000319,-2.824214117176795380
0.485000000000000320,-2.798208849968312428
0.486000000000000321,-2.772429437107307049
0.487000000000000322,-2.746875566421217663
0.488000000000000322,-2.721546843831660567
0.489000000000000323,-2.696442796439666001
0.490000000000000324,-2.671562875547790927
0.491000000000000325,-2.646906459619387419
0.492000000000000326,-2.622472857175242034
0.493000000000000327,-2.598261309627969418
0.494000000000000328,-2.574270994054398631
0.495000000000000329,-2.550501025906434016
0.496000000000000330,-2.526950461660709912
0.497000000000000330,-2.503618301407617430
0.498000000000000331,-2.480503491380013248
0.499000000000000332,-2.457604926422333413
0.500000000000000333,-2.434921452400500730
0.501000000000000334,-2.412451868553230128
0.502000000000000335,-2.390194929785383060
0.503000000000000336,-2.368149348903943796
0.504000000000000337,-2.346313798797254879
0.505000000000000338,-2.324686914558204087
0.506000000000000338,-2.303267295552024585
0.507000000000000339,-2.282053507429394834
0.508000000000000340,-2.261044084085555461
0.509000000000000341,-2.240237529566232233
0.510000000000000342,-2.219632319920974872
0.511000000000000343,-2.199226905004806110
0.512000000000000344,-2.179019710228824458
0.513000000000000345,-2.159009138260606253
0.514000000000000346,-2.139193570675193889
0.515000000000000346,-2.119571369557372353
0.516000000000000347,-2.100140879056103582
0.517000000000000348,-2.080900426891936217
0.518000000000000349,-2.061848325818069760
0.519000000000000350,-2.042982875036037704
0.520000000000000351,-2.024302361566675312
0.521000000000000352,-2.005805061577297543
0.522000000000000353,-1.987489241665807427
0.523000000000000353,-1.969353160102567557
0.524000000000000354,-1.951395068030908231
0.525000000000000355,-1.933613210626969448
0.526000000000000356,-1.916005828219744078
0.527000000000000357,-1.898571157372166862
0.528000000000000358,-1.881307431923913143
0.529000000000000359,-1.864212883996872794
0.530000000000000360,-1.847285744963929943
0.531000000000000361,-1.830524246381955322
0.532000000000000361,-1.813926620889705799
0.533000000000000362,-1.797491103071473306
0.534000000000000363,-1.781215930287186167
0.535000000000000364,-1.765099343469779924
0.536000000000000365,-1.749139587890545133
0.537000000000000366,-1.733334913893250562
0.538000000000000367,-1.717683577597699074
0.539000000000000368,-1.702183841573567946
0.540000000000000369,-1.686833975485112047
0.541000000000000369,-1.671632256707596298
0.542000000000000370,-1.656576970916013636
0.543000000000000371,-1.641666412646903606
0.544000000000000372,-1.626898885833895747
0.545000000000000373,-1.612272704317692984
0.546000000000000374,-1.597786192331110078
0.547000000000000375,-1.583437684959880798
0.548000000000000376,-1.569225528579879958
0.549000000000000377,-1.555148081271365612
0.550000000000000377,-1.541203713210886228
0.551000000000000378,-1.527390807041488774
0.552000000000000379,-1.513707758221835231
0.553000000000000380,-1.500152975354801965
0.554000000000000381,-1.486724880496163026
0.555000000000000382,-1.473421909443995315
0.556000000000000383,-1.460242512009240157
0.557000000000000384,-1.447185152268157138
0.558000000000000385,-1.434248308797049010
0.559000000000000385,-1.421430474889925133
0.560000000000000386,-1.408730158759567308
0.561000000000000387,-1.396145883722533343
0.562000000000000388,-1.383676188368596183
0.563000000000000389,-1.371319626715157503
0.564000000000000390,-1.359074768347062312
0.565000000000000391,-1.346940198542353251
0.566000000000000392,-1.334914518384379356
0.567000000000000393,-1.322996344860789764
0.568000000000000393,-1.311184310949772280
0.569000000000000394,-1.299477065694045752
0.570000000000000395,-1.287873274263028112
0.571000000000000396,-1.276371618003544262
0.572000000000000397,-1.264970794479587379
0.573000000000000398,-1.253669517501412312
0.574000000000000399,-1.242466517144483529
0.575000000000000400,-1.231360539758536543
0.576000000000000401,-1.220350347967211757
0.577000000000000401,-1.209434720658630891
0.578000000000000402,-1.198612452967197317
0.579000000000000403,-1.187882356247021765
0.580000000000000404,-1.177243258037355300
0.581000000000000405,-1.166694002020250753
0.582000000000000406,-1.156233447970879791
0.583000000000000407,-1.145860471700757444
0.584000000000000408,-1.135573964994215590
0.585000000000000409,-1.125372835538399841
0.586000000000000409,-1.115256006847095582
0.587000000000000410,-1.105222418178676058
0.588000000000000411,-1.095271024448398745
0.589000000000000412,-1.085400796135414625
0.590000000000000413,-1.075610719184621811
0.591000000000000414,-1.065899794903732545
0.592000000000000415,-1.056267039855754541
0.593000000000000416,-1.046711485747096271
0.594000000000000417,-1.037232179311567970
0.595000000000000417,-1.027828182190546613
0.596000000000000418,-1.018498570809366566
0.597000000000000419,-1.009242436250380015
0.598000000000000420,-1.000058884122660752
0.599000000000000421,-0.990947034428734441
0.600000000000000422,-0.981906021428421871
0.601000000000000423,-0.972934993500016221
0.602000000000000424,-0.964033112998993524
0.603000000000000425,-0.955199556114415316
0.604000000000000425,-0.946433512723182546
0.605000000000000426,-0.937734186242322076
0.606000000000000427,-0.929100793479518905
0.607000000000000428,-0.920532564481872151
0.608000000000000429,-0.912028742383318658
0.609000000000000430,-0.903588583250521493
0.610000000000000431,-0.895211355927683861
0.611000000000000432,-0.886896341880205497
0.612000000000000433,-0.878642835037382497
0.613000000000000433,-0.870450141634330654
