# CNT15-OH-14_CS-13420-AC
# h[nm],U(h)[kJ/mol]
0.200000000000000011,67.628224947474109285
0.201000000000000012,65.814674767101308817
0.202000000000000013,64.439348969177089543
0.203000000000000014,63.261204668264497286
0.204000000000000015,62.145109245717513602
0.205000000000000016,61.023167251294879065
0.206000000000000016,59.868325509600630596
0.207000000000000017,58.676755603977120757
0.208000000000000018,57.456431544062048999
0.209000000000000019,56.220012965193333798
0.210000000000000020,54.980663631075380238
0.211000000000000021,53.749822333550582698
0.212000000000000022,52.536230191039919646
0.213000000000000023,51.345729253805508563
0.214000000000000024,50.181500985712709451
0.215000000000000024,49.044523972159055347
0.216000000000000025,47.934109062789815425
0.217000000000000026,46.848425425912651576
0.218000000000000027,45.784968972096251605
0.219000000000000028,44.740950042020266153
0.220000000000000029,43.713593699225768319
0.221000000000000030,42.700356061865804236
0.222000000000000031,41.699065796140637019
0.223000000000000032,40.708002601070241155
0.224000000000000032,39.725925268463790019
0.225000000000000033,38.752061437228022100
0.226000000000000034,37.786069992207110602
0.227000000000000035,36.827985537828105578
0.228000000000000036,35.878152741437553175
0.229000000000000037,34.937156740976163860
0.230000000000000038,34.005754336877281219
0.231000000000000039,33.084809387095376110
0.232000000000000040,32.175234716689018910
0.233000000000000040,31.277941940337246507
0.234000000000000041,30.393799866749002803
0.235000000000000042,29.523601590584682697
0.236000000000000043,28.668039959408122996
0.237000000000000044,27.827690808547224322
0.238000000000000045,27.003003164351081722
0.239000000000000046,26.194295506489915226
0.240000000000000047,25.401757134958085516
0.241000000000000048,24.625453691869317652
0.242000000000000048,23.865335928798600662
0.243000000000000049,23.121250876335732727
0.244000000000000050,22.392954654689582128
0.245000000000000051,21.680126255434380766
0.246000000000000052,20.982381719221635308
0.247000000000000053,20.299288228236672893
0.248000000000000054,19.630377722246485916
0.249000000000000055,18.975159731092443138
0.250000000000000056,18.333133193019058638
0.251000000000000056,17.703797096499918950
0.252000000000000057,17.086659842898839656
0.253000000000000058,16.481247278427531455
0.254000000000000059,15.887109386730543292
0.255000000000000060,15.303825668537530902
0.256000000000000061,14.731009262784667158
0.257000000000000062,14.168309885110483393
0.258000000000000063,13.615415675397940731
0.259000000000000064,13.072054056789815135
0.260000000000000064,12.537991715054571884
0.261000000000000065,12.013033809996720436
0.262000000000000066,11.497022530411765473
0.263000000000000067,10.989835101456677080
0.264000000000000068,10.491381348753638036
0.265000000000000069,10.001600917527406764
0.266000000000000070,9.520460237995019170
0.267000000000000071,9.047949320425448860
0.268000000000000071,8.584078455062059021
0.269000000000000072,8.128874883697193354
0.270000000000000073,7.682379501310085068
0.271000000000000074,7.244643637989687690
0.272000000000000075,6.815725963491532369
0.273000000000000076,6.395689549321493139
0.274000000000000077,5.984599116269631480
0.275000000000000078,5.582518488883950525
0.276000000000000079,5.189508272505856112
0.277000000000000079,4.805623763198903831
0.278000000000000080,4.430913096192028888
0.279000000000000081,4.065415634314176963
0.280000000000000082,3.709160594302721936
0.281000000000000083,3.362165905795367671
0.282000000000000084,3.024437295235314238
0.283000000000000085,2.695967584797798189
0.284000000000000086,2.376736194746364994
0.285000000000000087,2.066708836314019138
0.286000000000000087,1.765837381238335224
0.287000000000000088,1.474059893425770484
0.288000000000000089,1.191300807842317733
0.289000000000000090,0.917471241590670950
0.290000000000000091,0.652469422207186955
0.291000000000000092,0.396181218462240414
0.292000000000000093,0.148480759349323088
0.293000000000000094,-0.090768872526712757
0.294000000000000095,-0.321714886326282590
0.295000000000000095,-0.544513979577070484
0.296000000000000096,-0.759331497698673252
0.297000000000000097,-0.966340567343044521
0.298000000000000098,-1.165721213612878060
0.299000000000000099,-1.357659470376762822
0.300000000000000100,-1.542346492054730289
0.301000000000000101,-1.719977674412059176
0.302000000000000102,-1.890751791079607447
0.303000000000000103,-2.054870151724610849
0.304000000000000103,-2.212535787030034395
0.305000000000000104,-2.363952664910143220
0.306000000000000105,-2.509324941696845279
0.307000000000000106,-2.648856251378627569
0.308000000000000107,-2.782749035363723422
0.309000000000000108,-2.911203914671760540
0.310000000000000109,-3.034419105934932581
0.311000000000000110,-3.152589882109285924
0.312000000000000111,-3.265908078360381772
0.313000000000000111,-3.374561643192108384
0.314000000000000112,-3.478734234533605640
0.315000000000000113,-3.578604860184305014
0.316000000000000114,-3.674347561739890633
0.317000000000000115,-3.766131140880266681
0.318000000000000116,-3.854118926692912339
0.319000000000000117,-3.938468582528728668
0.320000000000000118,-4.019331950740861359
0.321000000000000119,-4.096854933537997567
0.322000000000000119,-4.171177408089699057
0.323000000000000120,-4.242433173950889369
0.324000000000000121,-4.310749930823581266
0.325000000000000122,-4.376249284643886739
0.326000000000000123,-4.439046779969930689
0.327000000000000124,-4.499251956649388262
0.328000000000000125,-4.556968428762539602
0.329000000000000126,-4.612293983865698443
0.330000000000000127,-4.665320700600018355
0.331000000000000127,-4.716135082779758569
0.332000000000000128,-4.764818208131116783
0.333000000000000129,-4.811445889916537766
0.334000000000000130,-4.856088849748333658
0.335000000000000131,-4.898812899969412271
0.336000000000000132,-4.939679134055401377
0.337000000000000133,-4.978744123572382385
0.338000000000000134,-5.016060120305549930
0.339000000000000135,-5.051675262256230425
0.340000000000000135,-5.085633782287558802
0.341000000000000136,-5.117976218281194534
0.342000000000000137,-5.148739623749241545
0.343000000000000138,-5.177957777925763949
0.344000000000000139,-5.205661394441281509
0.345000000000000140,-5.231878327760353997
0.346000000000000141,-5.256633776637029243
0.347000000000000142,-5.279950483915141213
0.348000000000000143,-5.301848932069989750
0.349000000000000143,-5.322347533954600252
0.350000000000000144,-5.341462818277562086
0.351000000000000145,-5.359209609400174656
0.352000000000000146,-5.375601201098334059
0.353000000000000147,-5.390649523989057279
0.354000000000000148,-5.404365306373038358
0.355000000000000149,-5.416758228292814614
0.356000000000000150,-5.427837068651399477
0.357000000000000151,-5.437609845278312370
0.358000000000000151,-5.446083947869093222
0.359000000000000152,-5.453266263760602861
0.360000000000000153,-5.459163296537878907
0.361000000000000154,-5.463781277498743982
0.362000000000000155,-5.467126270030540525
0.363000000000000156,-5.469204266978660023
0.364000000000000157,-5.470021281109408662
0.365000000000000158,-5.469583428790651070
0.366000000000000159,-5.467897007031642609
0.367000000000000159,-5.464968564040067811
0.368000000000000160,-5.460804963468342876
0.369000000000000161,-5.455413442533656010
0.370000000000000162,-5.448801664206721185
0.371000000000000163,-5.440977763673252809
0.372000000000000164,-5.431950389279167624
0.373000000000000165,-5.421728738176759599
0.374000000000000166,-5.410322586893264507
0.375000000000000167,-5.397742317046498428
0.376000000000000167,-5.383998936434487348
0.377000000000000168,-5.369104095726746628
0.378000000000000169,-5.353070100984945512
0.379000000000000170,-5.335909922239838288
0.380000000000000171,-5.317637198349537186
0.381000000000000172,-5.298266238361701852
0.382000000000000173,-5.277812019599169346
0.383000000000000174,-5.256290182684776546
0.384000000000000175,-5.233717023716794259
0.385000000000000175,-5.210109483801746322
0.386000000000000176,-5.185485136146248841
0.387000000000000177,-5.159862170903835477
0.388000000000000178,-5.133259377967259063
0.389000000000000179,-5.105696127890328562
0.390000000000000180,-5.077192351117397529
0.391000000000000181,-5.047768515692024671
0.392000000000000182,-5.017445603609813176
0.393000000000000183,-4.986245085973805224
0.394000000000000183,-4.954188897104097933
0.395000000000000184,-4.921299407746640320
0.396000000000000185,-4.887599397519368338
0.397000000000000186,-4.853112026727244732
0.398000000000000187,-4.817860807670991896
0.399000000000000188,-4.781869575567829322
0.400000000000000189,-4.745162459195922722
0.401000000000000190,-4.707763851367922747
0.402000000000000191,-4.669698379332709592
0.403000000000000191,-4.630990875198188306
0.404000000000000192,-4.591666346462150550
0.405000000000000193,-4.551749946732182472
0.406000000000000194,-4.511266946710065007
0.407000000000000195,-4.470242705510495185
0.408000000000000196,-4.428702642378583576
0.409000000000000197,-4.386672208865483924
0.410000000000000198,-4.344176861516535482
0.411000000000000199,-4.301242035121289220
0.412000000000000199,-4.257893116570465430
0.413000000000000200,-4.214155419360199772
0.414000000000000201,-4.170054158779855413
0.415000000000000202,-4.125614427815452956
0.416000000000000203,-4.080861173797098118
0.417000000000000204,-4.035819175814856941
0.418000000000000205,-3.990513022924217612
0.419000000000000206,-3.944967093158845195
0.420000000000000207,-3.899205533365093235
0.421000000000000207,-3.853252239870033069
0.422000000000000208,-3.807130839991496707
0.423000000000000209,-3.760864674396460661
0.424000000000000210,-3.714476780311235071
0.425000000000000211,-3.667989875584706461
0.426000000000000212,-3.621426343603817877
0.427000000000000213,-3.574808219058144054
0.428000000000000214,-3.528157174548859132
0.429000000000000214,-3.481494508035326785
0.430000000000000215,-3.434841131111078028
0.431000000000000216,-3.388217558099491988
0.432000000000000217,-3.341643895957867816
0.433000000000000218,-3.295139834977587334
0.434000000000000219,-3.248724640266746011
0.435000000000000220,-3.202417144000661686
0.436000000000000221,-3.156235738424677084
0.437000000000000222,-3.110198369592842571
0.438000000000000222,-3.064322531825381279
0.439000000000000223,-3.018625262867077996
0.440000000000000224,-2.973123139728209630
0.441000000000000225,-2.927832275189100830
0.442000000000000226,-2.882768314949095245
0.443000000000000227,-2.837946435400135137
0.444000000000000228,-2.793381342005146539
0.445000000000000229,-2.749087268260978156
0.446000000000000230,-2.705077975225600007
0.447000000000000230,-2.661366751589160806
0.448000000000000231,-2.617966414268425357
0.449000000000000232,-2.574889309504045265
0.450000000000000233,-2.532147314440375219
0.451000000000000234,-2.489751839167328562
0.452000000000000235,-2.447713829204200220
0.453000000000000236,-2.406043768405252248
0.454000000000000237,-2.364751682267364874
0.455000000000000238,-2.323847141619953316
0.456000000000000238,-2.283339266677914203
0.457000000000000239,-2.243236731438382314
0.458000000000000240,-2.203547768402628115
0.459000000000000241,-2.164280173604463009
0.460000000000000242,-2.125441311927222188
0.461000000000000243,-2.087038122691376785
0.462000000000000244,-2.049077125495561980
0.463000000000000245,-2.011564426293817931
0.464000000000000246,-1.974505723692671966
0.465000000000000246,-1.937906315451711547
0.466000000000000247,-1.901771105171950804
0.467000000000000248,-1.866104609156626681
0.468000000000000249,-1.830910963429555505
0.469000000000000250,-1.796193930896529123
0.470000000000000251,-1.761956908635753605
0.471000000000000252,-1.728202935303691845
0.472000000000000253,-1.694934698643255633
0.473000000000000254,-1.662154543081510338
0.474000000000000254,-1.629864477404736389
0.475000000000000255,-1.598066182498946386
0.476000000000000256,-1.566761019144490286
0.477000000000000257,-1.535950035853819173
0.478000000000000258,-1.505633976741800995
0.479000000000000259,-1.475813289418556273
0.480000000000000260,-1.446488132895092926
0.481000000000000261,-1.417658385492433837
0.482000000000000262,-1.389323652745434678
0.483000000000000262,-1.361483275292775685
0.484000000000000263,-1.334136336745050055
0.485000000000000264,-1.307281671523288002
0.486000000000000265,-1.280917872660592760
0.487000000000000266,-1.255043299559931658
0.488000000000000267,-1.229656085701514634
0.489000000000000268,-1.204754146293574468
0.490000000000000269,-1.180335185860573954
0.491000000000000270,-1.156396705763430566
0.492000000000000270,-1.132936011646407559
0.493000000000000271,-1.109950220805898224
0.494000000000000272,-1.087436269476444561
0.495000000000000273,-1.065390920029726463
0.496000000000000274,-1.043810768082578333
0.497000000000000275,-1.022692249510247509
0.498000000000000276,-1.002031647361557365
0.499000000000000277,-0.981825098672751473
0.500000000000000222,-0.962068601177134219
0.501000000000000334,-0.942758019907863898
0.502000000000000224,-0.923889093691493302
0.503000000000000336,-0.905457441530022278
0.504000000000000226,-0.887458568869600173
0.505000000000000338,-0.869887873754012331
0.506000000000000227,-0.852740652861567305
0.507000000000000339,-0.836012107423886319
0.508000000000000229,-0.819697349025585553
0.509000000000000341,-0.803791405283779903
0.510000000000000231,-0.788289225406750060
0.511000000000000343,-0.773185685630997654
0.512000000000000233,-0.758475594536368258
0.513000000000000345,-0.744153698238832595
0.514000000000000234,-0.730214685460895518
0.515000000000000346,-0.716653192479432710
0.516000000000000236,-0.703463807951254627
0.517000000000000348,-0.690641077616511945
0.518000000000000238,-0.678179508880369597
0.519000000000000350,-0.666073575273376073
0.520000000000000240,-0.654317720791148361
0.521000000000000352,-0.642906364114046114
0.522000000000000242,-0.631833902707585993
0.523000000000000353,-0.621094716804515889
0.524000000000000243,-0.610683173269446322
0.525000000000000355,-0.600593629347125679
0.526000000000000245,-0.590820436295440787
0.527000000000000357,-0.581357942904311309
0.528000000000000247,-0.572200498901770160
0.529000000000000359,-0.563342458248465405
0.530000000000000249,-0.554778182322015034
0.531000000000000361,-0.546502042992575099
0.532000000000000250,-0.538508425591121109
0.533000000000000362,-0.530791731771921294
0.534000000000000252,-0.523346382270746591
0.535000000000000364,-0.516166819560436752
0.536000000000000254,-0.509247510405400283
0.537000000000000366,-0.502582948316683820
0.538000000000000256,-0.496167655909346361
0.539000000000000368,-0.489996187163747987
0.540000000000000258,-0.484063129592548769
0.541000000000000369,-0.478363106315082276
0.542000000000000259,-0.472890778040909954
0.543000000000000371,-0.467640844964268276
0.544000000000000261,-0.462608048571214070
0.545000000000000373,-0.457787173361230260
0.546000000000000263,-0.453173048485074059
0.547000000000000375,-0.448760549300645906
0.548000000000000265,-0.444544598848704342
0.549000000000000377,-0.440520169250152027
0.550000000000000266,-0.436682283026727902
0.551000000000000378,-0.433026014346863497
0.552000000000000268,-0.429546490198465136
0.553000000000000380,-0.426238891490413718
0.554000000000000270,-0.423098454084519016
0.555000000000000382,-0.420120469759662829
0.556000000000000272,-0.417300287109918844
0.557000000000000384,-0.414633312378267782
0.558000000000000274,-0.412115010227750378
0.559000000000000385,-0.409740904451609989
0.560000000000000275,-0.407506578624209137
0.561000000000000387,-0.405407676694317654
0.562000000000000277,-0.403439903522417709
0.563000000000000389,-0.401599025363676865
0.564000000000000279,-0.399880870298155000
0.565000000000000391,-0.398281328609854934
0.566000000000000281,-0.396796353116141365
0.567000000000000393,-0.395421959449107518
0.568000000000000282,-0.394154226290386878
0.569000000000000394,-0.392989295560890739
0.570000000000000284,-0.391923372566957584
0.571000000000000396,-0.390952726104374426
0.572000000000000286,-0.390073688521680229
0.573000000000000398,-0.389282655744132122
0.574000000000000288,-0.388576087259745850
0.575000000000000400,-0.387950506068764800
0.576000000000000290,-0.387402498597832046
0.577000000000000401,-0.386928714580243027
0.578000000000000291,-0.386525866903495774
0.579000000000000403,-0.386190731425425982
0.580000000000000293,-0.385920146760139970
0.581000000000000405,-0.385711014034967548
0.582000000000000295,-0.385560296619585463
0.583000000000000407,-0.385465019828499733
0.584000000000000297,-0.385422270597969852
0.585000000000000409,-0.385429197138548063
0.586000000000000298,-0.385483008564227680
0.587000000000000410,-0.385580974499345697
0.588000000000000300,-0.385720424664189931
0.589000000000000412,-0.385898748440378525
0.590000000000000302,-0.386113394416945310
0.591000000000000414,-0.386361869918155576
0.592000000000000304,-0.386641740513906429
0.593000000000000416,-0.386950629513677868
0.594000000000000306,-0.387286217444925918
0.595000000000000417,-0.387646241516753198
0.596000000000000307,-0.388028495069703716
0.597000000000000419,-0.388430827012540392
0.598000000000000309,-0.388851141246770449
0.599000000000000421,-0.389287396079674941
0.600000000000000311,-0.389737603626666984
0.601000000000000423,-0.390199829203643600
0.602000000000000313,-0.390672190710079525
0.603000000000000425,-0.391152858003538162
0.604000000000000314,-0.391640052266304939
0.605000000000000426,-0.392132045364736725
0.606000000000000316,-0.392627159202022624
0.607000000000000428,-0.393123765064912034
0.608000000000000318,-0.393620282965058410
0.609000000000000430,-0.394115180975506074
0.610000000000000320,-0.394606974562899837
0.611000000000000432,-0.395094225915962272
0.612000000000000322,-0.395575543270729191
0.613000000000000433,-0.396049580233086285
0.614000000000000323,-0.396515035099059499
0.615000000000000435,-0.396970650173355144
0.616000000000000325,-0.397415211086566411
0.617000000000000437,-0.397847546111530392
0.618000000000000327,-0.398266525479220923
0.619000000000000439,-0.398671060694585910
0.620000000000000329,-0.399060103852741932
0.621000000000000441,-0.399432646955881765
0.622000000000000330,-0.399787721231254167
0.623000000000000442,-0.400124396450588615
0.624000000000000332,-0.400441780251250823
0.625000000000000444,-0.400739017459514291
0.626000000000000334,-0.401015289416186804
0.627000000000000446,-0.401269813304935941
0.628000000000000336,-0.401501841483568600
0.629000000000000448,-0.401710660818544896
0.630000000000000338,-0.401895592022970649
0.631000000000000449,-0.402055988998341107
0.632000000000000339,-0.402191238180229671
0.633000000000000451,-0.402300757888183758
0.634000000000000341,-0.402383997680004879
0.635000000000000453,-0.402440437710666177
0.636000000000000343,-0.402469588095973496
0.637000000000000455,-0.402470988281259157
0.638000000000000345,-0.402444206415184247
0.639000000000000457,-0.402388838728869103
0.640000000000000346,-0.402304508920488080
0.641000000000000458,-0.402190867545471176
0.642000000000000348,-0.402047591412450944
0.643000000000000460,-0.401874382985085710
0.644000000000000350,-0.401670969789868160
0.645000000000000462,-0.401437103830048769
0.646000000000000352,-0.401172561005753381
0.647000000000000464,-0.400877140540414789
0.648000000000000353,-0.400550664413600710
0.649000000000000465,-0.400192976800302969
0.650000000000000355,-0.399803943516796489
0.651000000000000467,-0.399383451473101281
0.652000000000000357,-0.398931408132147503
0.653000000000000469,-0.398447740975657660
0.654000000000000359,-0.397932396976844849
0.655000000000000471,-0.397385342079923265
0.656000000000000361,-0.396806560686512544
0.657000000000000473,-0.396196055148938575
0.658000000000000362,-0.395553845270485427
0.659000000000000474,-0.394879967812596988
0.660000000000000364,-0.394174476009073071
0.661000000000000476,-0.393437439087256813
0.662000000000000366,-0.392668941796226689
0.663000000000000478,-0.391869083942011698
