# CNT15-OH-14_ATRAZINE-AC
# h[nm],U(h)[kJ/mol]
0.149999999999999994,160.658175183086711968
0.150999999999999995,159.653541272985080468
0.151999999999999996,157.392681725719057795
0.152999999999999997,154.918750528955030177
0.153999999999999998,152.596098341109353669
0.154999999999999999,150.478039588713158992
0.156000000000000000,148.502435531055681395
0.157000000000000001,146.586888818826679426
0.158000000000000002,144.668031123113649983
0.159000000000000002,142.711736829312940245
0.160000000000000003,140.709882157041590744
0.161000000000000004,138.672292300810653387
0.162000000000000005,136.618295001479594930
0.163000000000000006,134.569833981457833261
0.164000000000000007,132.546732083644883460
0.165000000000000008,130.564001644635794719
0.166000000000000009,128.630801762654584763
0.167000000000000010,126.750563967896184181
0.168000000000000010,124.921841886322724235
0.169000000000000011,123.139522957377067769
0.170000000000000012,121.396135067535709595
0.171000000000000013,119.683069333117103383
0.172000000000000014,117.991613862476441454
0.173000000000000015,116.313749797314272882
0.174000000000000016,114.642701128333143856
0.175000000000000017,112.973256054578044427
0.176000000000000018,111.301892858332664105
0.177000000000000018,109.626750191816924485
0.178000000000000019,107.947482780632753929
0.179000000000000020,106.265040866880980275
0.180000000000000021,104.581406818642861367
0.181000000000000022,102.899316389461020549
0.182000000000000023,101.221985941397321085
0.183000000000000024,99.552861087756340908
0.184000000000000025,97.895396990010738136
0.185000000000000026,96.252876121249386188
0.186000000000000026,94.628265735920109591
0.187000000000000027,93.024114537404770431
0.188000000000000028,91.442486038851839680
0.189000000000000029,89.884924771027016277
0.190000000000000030,88.352450695880250464
0.191000000000000031,86.845576828442034412
0.192000000000000032,85.364345051863409708
0.193000000000000033,83.908375340977769952
0.194000000000000034,82.476924011434306294
0.195000000000000034,81.068947120053636013
0.196000000000000035,79.683165706024823294
0.197000000000000036,78.318130141897256635
0.198000000000000037,76.972281428200545861
0.199000000000000038,75.644007794851887638
0.200000000000000039,74.331695452396317592
0.201000000000000040,73.033772758519731383
0.202000000000000041,71.748747426682925266
0.203000000000000042,70.475236704114365693
0.204000000000000042,69.211990688237136737
0.205000000000000043,67.957909138097150503
0.206000000000000044,66.712052275785566735
0.207000000000000045,65.473646168087185515
0.208000000000000046,64.242083336707338503
0.209000000000000047,63.016919272414689601
0.210000000000000048,61.797865529978309951
0.211000000000000049,60.584780062126071698
0.212000000000000050,59.377655416653013276
0.213000000000000050,58.176605375444623292
0.214000000000000051,56.981850561166126568
0.215000000000000052,55.793703479766804776
0.216000000000000053,54.612553407296459795
0.217000000000000054,53.438851469880788159
0.218000000000000055,52.273096207669745183
0.219000000000000056,51.115819858392363528
0.220000000000000057,49.967575544706434698
0.221000000000000058,48.828925502442608320
0.222000000000000058,47.700430444457232682
0.223000000000000059,46.582640117310340599
0.224000000000000060,45.476085075369212518
0.225000000000000061,44.381269669091771846
0.226000000000000062,43.298666220951837147
0.227000000000000063,42.228710343447943387
0.228000000000000064,41.171797338557766466
0.229000000000000065,40.128279606500157684
0.230000000000000066,39.098464983376501891
0.231000000000000066,38.082615921799799708
0.232000000000000067,37.080949425622421245
0.233000000000000068,36.093637648980617882
0.234000000000000069,35.120809070755882431
0.235000000000000070,34.162550157897271674
0.236000000000000071,33.218907434570851933
0.237000000000000072,32.289889878542844315
0.238000000000000073,31.375471571332916199
0.239000000000000073,30.475594534292117288
0.240000000000000074,29.590171688681202511
0.241000000000000075,28.719089883908246463
0.242000000000000076,27.862212944191007580
0.243000000000000077,27.019384689936465804
0.244000000000000078,26.190431895989160438
0.245000000000000079,25.375167154520120505
0.246000000000000080,24.573391615655971520
0.247000000000000081,23.784897583941862820
0.248000000000000081,23.009470953365916301
0.249000000000000082,22.246893467927733923
0.250000000000000111,21.496944798601937521
0.251000000000000112,20.759404431028180227
0.252000000000000113,20.034053361356424006
0.253000000000000114,19.320675600404562999
0.254000000000000115,18.619059488652965229
0.255000000000000115,17.928998826632035701
0.256000000000000116,17.250293826968707833
0.257000000000000117,16.582751895771004058
0.258000000000000118,15.926188252168667958
0.259000000000000119,15.280426395713282872
0.260000000000000120,14.645298431999123068
0.261000000000000121,14.020645267318332827
0.262000000000000122,13.406316683431521497
0.263000000000000123,12.802171303642131406
0.264000000000000123,12.208076461326756501
0.265000000000000124,11.623907981916648424
0.266000000000000125,11.049549889063680297
0.267000000000000126,10.484894045375144245
0.268000000000000127,9.929839737680163481
0.269000000000000128,9.384293216312773467
0.270000000000000129,8.848167197372671211
0.271000000000000130,8.321380336367798947
0.272000000000000131,7.803856681063926715
0.273000000000000131,7.295525110772811850
0.274000000000000132,6.796318768712124481
0.275000000000000133,6.306174493473011289
0.276000000000000134,5.825032255041263873
0.277000000000000135,5.352834600242116103
0.278000000000000136,4.889526111917757767
0.279000000000000137,4.435052885608008033
0.280000000000000138,3.989362026989156540
0.281000000000000139,3.552401172835155219
0.282000000000000139,3.124118037803591541
0.283000000000000140,2.704459988914078572
0.284000000000000141,2.293373649182448126
0.285000000000000142,1.890804531498658125
0.286000000000000143,1.496696703490830505
0.287000000000000144,1.110992483801972686
0.288000000000000145,0.733632169917742050
0.289000000000000146,0.364553797425496096
0.290000000000000147,0.003692930351280577
0.291000000000000147,-0.349017517983430614
0.292000000000000148,-0.693647434325809997
0.293000000000000149,-1.030269625973591952
0.294000000000000150,-1.358959913407907338
0.295000000000000151,-1.679797196223779210
0.296000000000000152,-1.992863493599875024
0.297000000000000153,-2.298243960625062865
0.298000000000000154,-2.596026881859130775
0.299000000000000155,-2.886303643548497888
0.300000000000000155,-3.169168685947682640
0.301000000000000156,-3.444719437213495716
0.302000000000000157,-3.713056230344649045
0.303000000000000158,-3.974282204633078130
0.304000000000000159,-4.228503193078962497
0.305000000000000160,-4.475827597197784335
0.306000000000000161,-4.716366250617481271
0.307000000000000162,-4.950232272826755597
0.308000000000000163,-5.177540914393294003
0.309000000000000163,-5.398409394923745275
0.310000000000000164,-5.612956734986749296
0.311000000000000165,-5.821303583166235640
0.312000000000000166,-6.023572039356289487
0.313000000000000167,-6.219885475350598547
0.314000000000000168,-6.410368353720241608
0.315000000000000169,-6.595146045913526045
0.316000000000000170,-6.774344650451280536
0.317000000000000171,-6.948090812030433661
0.318000000000000171,-7.116511542289072345
0.319000000000000172,-7.279734042927262117
0.320000000000000173,-7.437885531819487639
0.321000000000000174,-7.591093072698216204
0.322000000000000175,-7.739483408932860797
0.323000000000000176,-7.883182801874772494
0.324000000000000177,-8.022316874187509939
0.325000000000000178,-8.157010458531607000
0.326000000000000179,-8.287387451925951609
0.327000000000000179,-8.413570676061919329
0.328000000000000180,-8.535681743803419153
0.329000000000000181,-8.653840932065113734
0.330000000000000182,-8.768167061221719294
0.331000000000000183,-8.878777381165637195
0.332000000000000184,-8.985787464095061239
0.333000000000000185,-9.089311104083062531
0.334000000000000186,-9.189460223448396192
0.335000000000000187,-9.286344785920636724
0.336000000000000187,-9.380072716567266156
0.337000000000000188,-9.470749828425928385
0.338000000000000189,-9.558479755764468067
0.339000000000000190,-9.643363893870967374
0.340000000000000191,-9.725501345258459551
0.341000000000000192,-9.804988872153062474
0.342000000000000193,-9.881920855119767921
0.343000000000000194,-9.956389257667677128
0.344000000000000195,-10.028483596664782951
0.345000000000000195,-10.098290918383582948
0.346000000000000196,-10.165895779989524428
0.347000000000000197,-10.231380236278145190
0.348000000000000198,-10.294823831460414354
0.349000000000000199,-10.356303595791510830
0.350000000000000200,-10.415894046834754505
0.351000000000000201,-10.473667195149712228
0.352000000000000202,-10.529692554192120468
0.353000000000000203,-10.584037154212492027
0.354000000000000203,-10.636765559940561943
0.355000000000000204,-10.687939891843159401
0.356000000000000205,-10.737619850745138805
0.357000000000000206,-10.785862745604950064
0.358000000000000207,-10.832723524238870638
0.359000000000000208,-10.878254806791584741
0.360000000000000209,-10.922506921754298048
0.361000000000000210,-10.965527944335422106
0.362000000000000210,-11.007363736993752923
0.363000000000000211,-11.048057991948363465
0.364000000000000212,-11.087652275484867204
0.365000000000000213,-11.126186073882637473
0.366000000000000214,-11.163696840793265963
0.367000000000000215,-11.200220045905956212
0.368000000000000216,-11.235789224741644432
0.369000000000000217,-11.270436029423001045
0.370000000000000218,-11.304190280273935798
0.371000000000000218,-11.337080018107723589
0.372000000000000219,-11.369131557069199090
0.373000000000000220,-11.400369537902488304
0.374000000000000221,-11.430816981521376263
0.375000000000000222,-11.460495342765673499
0.376000000000000223,-11.489424564232974646
0.377000000000000224,-11.517623130080520966
0.378000000000000225,-11.545108119698165083
0.379000000000000226,-11.571895261158687163
0.380000000000000226,-11.597998984357664298
0.381000000000000227,-11.623432473760001216
0.382000000000000228,-11.648207720676175825
0.383000000000000229,-11.672335574995832630
0.384000000000000230,-11.695825796311851263
0.385000000000000231,-11.718687104372685681
0.386000000000000232,-11.740927228805611904
0.387000000000000233,-11.762552958058130059
0.388000000000000234,-11.783570187509116778
0.389000000000000234,-11.803983966705903441
0.390000000000000235,-11.823798545687198569
0.391000000000000236,-11.843017420356146019
0.392000000000000237,-11.861643376871347400
0.393000000000000238,-11.879678535027617059
0.394000000000000239,-11.897124390601444333
0.395000000000000240,-11.913981856639827228
0.396000000000000241,-11.930251303674118901
0.397000000000000242,-11.945932598843633343
0.398000000000000242,-11.961025143916804936
0.399000000000000243,-11.975527912200231384
0.400000000000000244,-11.989439484328698882
0.401000000000000245,-12.002758082931819672
0.402000000000000246,-12.015481606174972740
0.403000000000000247,-12.027607660174819415
0.404000000000000248,-12.039133590291440257
0.405000000000000249,-12.050056511301230344
0.406000000000000250,-12.060373336456436277
0.407000000000000250,-12.070080805439006966
0.408000000000000251,-12.079175511217943750
0.409000000000000252,-12.087653925820816880
0.410000000000000253,-12.095512425031516912
0.411000000000000254,-12.102747312027528181
0.412000000000000255,-12.109354839971155471
0.413000000000000256,-12.115331233570335812
0.414000000000000257,-12.120672709625372576
0.415000000000000258,-12.125375496579112067
0.416000000000000258,-12.129435853088606834
0.417000000000000259,-12.132850085637267412
0.418000000000000260,-12.135614565206882531
0.419000000000000261,-12.137725743029703196
0.420000000000000262,-12.139180165441084469
0.421000000000000263,-12.139974487853729457
0.422000000000000264,-12.140105487874777168
0.423000000000000265,-12.139570077587469754
0.424000000000000266,-12.138365315019346014
0.425000000000000266,-12.136488414818803250
0.426000000000000267,-12.133936758162459313
0.427000000000000268,-12.130707901915538827
0.428000000000000269,-12.126799587067514707
0.429000000000000270,-12.122209746465511415
0.430000000000000271,-12.116936511867592685
0.431000000000000272,-12.110978220338292743
0.432000000000000273,-12.104333420008348554
0.433000000000000274,-12.097000875220707883
0.434000000000000274,-12.088979571084516706
0.435000000000000275,-12.080268717458652716
0.436000000000000276,-12.070867752386233107
0.437000000000000277,-12.060776345001057663
0.438000000000000278,-12.049994397926903744
0.439000000000000279,-12.038522049190151009
0.440000000000000280,-12.026359673665954375
0.441000000000000281,-12.013507884077791132
0.442000000000000282,-11.999967531570034041
0.443000000000000282,-11.985739705872550331
0.444000000000000283,-11.970825735076326524
0.445000000000000284,-11.955227185038374671
0.446000000000000285,-11.938945858434017566
0.447000000000000286,-11.921983793474316471
0.448000000000000287,-11.904343262305616236
0.449000000000000288,-11.886026769108312351
0.450000000000000289,-11.867037047911072278
0.451000000000000290,-11.847377060136548010
0.452000000000000290,-11.827049991894302394
0.453000000000000291,-11.806059251035874169
0.454000000000000292,-11.784408463986919102
0.455000000000000293,-11.762101472370664723
0.456000000000000294,-11.739142329436589307
0.457000000000000295,-11.715535296307860946
0.458000000000000296,-11.691284838060466811
0.459000000000000297,-11.666395619646932502
0.460000000000000298,-11.640872501676552631
0.461000000000000298,-11.614720536064314871
0.462000000000000299,-11.587944961559690782
0.463000000000000300,-11.560551199166420488
0.464000000000000301,-11.532544847464029303
0.465000000000000302,-11.503931677841190861
0.466000000000000303,-11.474717629650879047
0.467000000000000304,-11.444908805296883259
0.468000000000000305,-11.414511465260661183
0.469000000000000306,-11.383532023077430395
0.470000000000000306,-11.351977040269943586
0.471000000000000307,-11.319853221247800690
0.472000000000000308,-11.287167408180318162
0.473000000000000309,-11.253926575850110581
0.474000000000000310,-11.220137826494553934
0.475000000000000311,-11.185808384641841684
0.476000000000000312,-11.150945591948095981
0.477000000000000313,-11.115556902041626941
0.478000000000000314,-11.079649875380130908
0.479000000000000314,-11.043232174126494272
0.480000000000000315,-11.006311557048231720
0.481000000000000316,-10.968895874445838245
0.482000000000000317,-10.930993063114453179
0.483000000000000318,-10.892611141343493841
0.484000000000000319,-10.853758203958406625
0.485000000000000320,-10.814442417408436370
0.486000000000000321,-10.774672014904187023
0.487000000000000322,-10.734455291608490768
0.488000000000000322,-10.693800599883630298
0.489000000000000323,-10.652716344598321285
0.490000000000000324,-10.611210978496979251
0.491000000000000325,-10.569292997634036624
0.492000000000000326,-10.526970936875716944
0.493000000000000327,-10.484253365471579045
0.494000000000000328,-10.441148882697770972
0.495000000000000329,-10.397666113574079105
0.496000000000000330,-10.353813704656211314
0.497000000000000330,-10.309600319905296573
0.498000000000000331,-10.265034636635459009
0.499000000000000332,-10.220125341541304920
0.500000000000000333,-10.174881126805995990
0.501000000000000334,-10.129310686291040255
0.502000000000000335,-10.083422711808708527
0.503000000000000336,-10.037225889477657148
0.504000000000000337,-9.990728896162478279
0.505000000000000338,-9.943940395997517001
0.506000000000000338,-9.896869036995443736
0.507000000000000339,-9.849523447740761384
0.508000000000000340,-9.801912234168378646
0.509000000000000341,-9.754043976427505314
0.510000000000000342,-9.705927225830492944
0.511000000000000343,-9.657570501886883818
0.512000000000000344,-9.608982289422124623
0.513000000000000345,-9.560171035780873794
0.514000000000000346,-9.511145148114581005
0.515000000000000346,-9.461912990752633590
0.516000000000000347,-9.412482882656908245
0.517000000000000348,-9.362863094958992605
0.518000000000000349,-9.313061848579417656
0.519000000000000350,-9.263087311928412504
0.520000000000000351,-9.212947598687213357
0.521000000000000352,-9.162650765669454245
0.522000000000000353,-9.112204810761456386
0.523000000000000353,-9.061617670940853131
0.524000000000000354,-9.010897220372561023
0.525000000000000355,-8.960051268581048944
0.526000000000000356,-8.909087558698033149
0.527000000000000357,-8.858013765784637172
0.528000000000000358,-8.806837495226799817
0.529000000000000359,-8.755566281203114087
0.530000000000000360,-8.704207585223736388
0.531000000000000361,-8.652768794739504443
0.532000000000000361,-8.601257221819976095
0.533000000000000362,-8.549680101899303608
0.534000000000000363,-8.498044592588753332
0.535000000000000364,-8.446357772554724974
0.536000000000000365,-8.394626640461051892
0.537000000000000366,-8.342858113974418899
0.538000000000000367,-8.291059028831575972
0.539000000000000368,-8.239236137967370865
0.540000000000000369,-8.187396110702055196
0.541000000000000369,-8.135545531986974055
0.542000000000000370,-8.083690901707104359
0.543000000000000371,-8.031838634039456082
0.544000000000000372,-7.979995056865952563
0.545000000000000373,-7.928166411239669920
0.546000000000000374,-7.876358850903075748
0.547000000000000375,-7.824578441857172884
0.548000000000000376,-7.772831161980297665
0.549000000000000377,-7.721122900695294611
0.550000000000000377,-7.669459458683955511
0.551000000000000378,-7.617846547647386224
0.552000000000000379,-7.566289790111348168
0.553000000000000380,-7.514794719275089463
0.554000000000000381,-7.463366778902686960
0.555000000000000382,-7.412011323255802253
0.556000000000000383,-7.360733617066363088
0.557000000000000384,-7.309538835548503144
0.558000000000000385,-7.258432064448159693
0.559000000000000385,-7.207418300129563526
0.560000000000000386,-7.156502449697353718
0.561000000000000387,-7.105689331153230981
0.562000000000000388,-7.054983673586076698
0.563000000000000389,-7.004390117394561521
0.564000000000000390,-6.953913214541058707
0.565000000000000391,-6.903557428835900289
0.566000000000000392,-6.853327136250948470
0.567000000000000393,-6.803226625261521221
0.568000000000000393,-6.753260097215554758
0.569000000000000394,-6.703431666729128935
0.570000000000000395,-6.653745362107464700
0.571000000000000396,-6.604205125790201691
0.572000000000000397,-6.554814814820351998
0.573000000000000398,-6.505578201335746158
0.574000000000000399,-6.456498973082259063
0.575000000000000400,-6.407580733947814799
0.576000000000000401,-6.358827004516362180
0.577000000000000401,-6.310241222641066905
0.578000000000000402,-6.261826744035673187
0.579000000000000403,-6.213586842883399797
0.580000000000000404,-6.165524712462586265
0.581000000000000405,-6.117643465788125567
0.582000000000000406,-6.069946136268174364
0.583000000000000407,-6.022435678375114954
0.584000000000000408,-5.975114968330324849
0.585000000000000409,-5.927986804801816945
0.586000000000000409,-5.881053909614114339
0.587000000000000410,-5.834318928469793164
0.588000000000000411,-5.787784431681783914
0.589000000000000412,-5.741452914916088446
0.590000000000000413,-5.695326799943953411
0.591000000000000414,-5.649408435403128870
0.592000000000000415,-5.603700097567537952
0.593000000000000416,-5.558203991124639920
0.594000000000000417,-5.512922249960070076
0.595000000000000417,-5.467856937949056473
0.596000000000000418,-5.423010049753673734
0.597000000000000419,-5.378383511626013913
0.598000000000000420,-5.333979182216136650
0.599000000000000421,-5.289798853384789723
0.600000000000000422,-5.245844251020067794
0.601000000000000423,-5.202117035857741101
0.602000000000000424,-5.158618804304706096
0.603000000000000425,-5.115351089265109508
0.604000000000000425,-5.072315360968728370
0.605000000000000426,-5.029513027801173486
0.606000000000000427,-4.986945437135585912
0.607000000000000428,-4.944613876165164790
0.608000000000000429,-4.902519572736592224
0.609000000000000430,-4.860663696183461724
