# CNT15-OH-14_CHLORANE-AC
# h[nm],U(h)[kJ/mol]
0.149999999999999994,93.746192260703494981
0.150999999999999995,92.513868352659315519
0.151999999999999996,91.241541696494024904
0.152999999999999997,89.928729730000029008
0.153999999999999998,88.596807742223788296
0.154999999999999999,87.267460463543031324
0.156000000000000000,85.955180562280375511
0.157000000000000001,84.666477364483199608
0.158000000000000002,83.401763223706709027
0.159000000000000002,82.157853049903962983
0.160000000000000003,80.930142560359072945
0.161000000000000004,79.714146485847109602
0.162000000000000005,78.506386686980945910
0.163000000000000006,77.304752609115865880
0.164000000000000007,76.108493320231886514
0.165000000000000008,74.917989840770786714
0.166000000000000009,73.734426434351561852
0.167000000000000010,72.559445135420077122
0.168000000000000010,71.394836533154901304
0.169000000000000011,70.242294746961448482
0.170000000000000012,69.103246209632800401
0.171000000000000013,67.978749690143985163
0.172000000000000014,66.869457806545270273
0.173000000000000015,65.775626865447719638
0.174000000000000016,64.697161085009497583
0.175000000000000017,63.633678169651410883
0.176000000000000018,62.584585074629693224
0.177000000000000018,61.549155092570345005
0.178000000000000019,60.526599746309990735
0.179000000000000020,59.516131151834159141
0.180000000000000021,58.517012392727977499
0.181000000000000022,57.528594967677804561
0.182000000000000023,56.550343529318674030
0.183000000000000024,55.581848951648865409
0.184000000000000025,54.622831287502073394
0.185000000000000026,53.673134458156575022
0.186000000000000026,52.732714606144057257
0.187000000000000027,51.801623988636286811
0.188000000000000028,50.879992135780703677
0.189000000000000029,49.968005782648162949
0.190000000000000030,49.065888834686987252
0.191000000000000031,48.173883367720115700
0.192000000000000032,47.292232411549818494
0.193000000000000033,46.421165032929103234
0.194000000000000034,45.560884026515324763
0.195000000000000034,44.711556345478378205
0.196000000000000035,43.873306258086323339
0.197000000000000036,43.046211102259952952
0.198000000000000037,42.230299424828913857
0.199000000000000038,41.425551233197111856
0.200000000000000039,40.631900050995973572
0.201000000000000040,39.849236452521594742
0.202000000000000041,39.077412749786773816
0.203000000000000042,38.316248517510743454
0.204000000000000042,37.565536662236667098
0.205000000000000043,36.825049769267117483
0.206000000000000044,36.094546492864125753
0.207000000000000045,35.373777789176315878
0.208000000000000046,34.662492825990419476
0.209000000000000047,33.960444437361893222
0.210000000000000048,33.267394023462884434
0.211000000000000049,32.583115825878579130
0.212000000000000050,31.907400535591097679
0.213000000000000050,31.240058214728868791
0.214000000000000051,30.580920533694534669
0.215000000000000052,29.929842342520327492
0.216000000000000053,29.286702609337602610
0.217000000000000054,28.651404769864164734
0.218000000000000055,28.023876540039612593
0.219000000000000056,27.404069249642880379
0.220000000000000057,26.791956758188245402
0.221000000000000058,26.187534015914376795
0.222000000000000058,25.590815332537054871
0.223000000000000059,25.001832414915547531
0.224000000000000060,24.420632232141763041
0.225000000000000061,23.847274763046407031
0.226000000000000062,23.281830676945354242
0.227000000000000063,22.724378993819364325
0.228000000000000064,22.175004765204157309
0.229000000000000065,21.633796812012295874
0.230000000000000066,21.100845550442226539
0.231000000000000066,20.576240932154895802
0.232000000000000067,20.060070520101845659
0.233000000000000068,19.552417716835030603
0.234000000000000069,19.053360157870077529
0.235000000000000070,18.562968278746303952
0.236000000000000071,18.081304060852964710
0.237000000000000072,17.608419957883381102
0.238000000000000073,17.144358001942055836
0.239000000000000073,16.689149085860329080
0.240000000000000074,16.242812416162042410
0.241000000000000075,15.805355129349479171
0.242000000000000076,15.376772062731433266
0.243000000000000077,14.957045669868231030
0.244000000000000078,14.546146069839995363
0.245000000000000079,14.144031218929924876
0.246000000000000080,13.750647192928955320
0.247000000000000081,13.365928568086221873
0.248000000000000081,12.989798888727984050
0.249000000000000082,12.622171209721821938
0.250000000000000111,12.262948702249966360
0.251000000000000112,11.912025311755339629
0.252000000000000113,11.569286457414843738
0.253000000000000114,11.234609763060570131
0.254000000000000115,10.907865810091047720
0.255000000000000115,10.588918903579157771
0.256000000000000116,10.277627843474970604
0.257000000000000117,9.973846693509646144
0.258000000000000118,9.677425541119820451
0.259000000000000119,9.388211242420783975
0.260000000000000120,9.106048146953579447
0.261000000000000121,8.830778797609855957
0.262000000000000122,8.562244601792039944
0.263000000000000123,8.300286470492007851
0.264000000000000123,8.044745422564258064
0.265000000000000124,7.795463152027724441
0.266000000000000125,7.552282556751554132
0.267000000000000126,7.315048227363258881
0.268000000000000127,7.083606895661716862
0.269000000000000128,6.857807842223320627
0.270000000000000129,6.637503263256360420
0.271000000000000130,6.422548597087905264
0.272000000000000131,6.212802810960131872
0.273000000000000131,6.008128649070096472
0.274000000000000132,5.808392843010271811
0.275000000000000133,5.613466285958268465
0.276000000000000134,5.423224172124814224
0.277000000000000135,5.237546103101644590
0.278000000000000136,5.056316162856333563
0.279000000000000137,4.879422963202567409
0.280000000000000138,4.706759661633015845
0.281000000000000139,4.538223953439820768
0.282000000000000139,4.373718040067179125
0.283000000000000140,4.213148575642884808
0.284000000000000141,4.056426593623094767
0.285000000000000142,3.903467415458661716
0.286000000000000143,3.754190543153582471
0.287000000000000144,3.608519537538543265
0.288000000000000145,3.466381884025548032
0.289000000000000146,3.327708847546276161
0.290000000000000147,3.192435318306265035
0.291000000000000147,3.060499649912604259
0.292000000000000148,2.931843491353618436
0.293000000000000149,2.806411614227894979
0.294000000000000150,2.684151736536096511
0.295000000000000151,2.565014344264521462
0.296000000000000152,2.448952511904222806
0.297000000000000153,2.335921722964662273
0.298000000000000154,2.225879691456806864
0.299000000000000155,2.118786185237927722
0.300000000000000155,2.014602852029305780
0.301000000000000156,1.913293048839423305
0.302000000000000157,1.814821675448596183
0.303000000000000158,1.719155012537687099
0.304000000000000159,1.626260564972572542
0.305000000000000160,1.536106910688756599
0.306000000000000161,1.448663555555994353
0.307000000000000162,1.363900794541933026
0.308000000000000163,1.281789579436283244
0.309000000000000163,1.202301393342846580
0.310000000000000164,1.125408132096077596
0.311000000000000165,1.051081992711753399
0.312000000000000166,0.979295368937306399
0.313000000000000167,0.910020753927030968
0.314000000000000168,0.843230650030084350
0.315000000000000169,0.778897485645120957
0.316000000000000170,0.716993539064376129
0.317000000000000171,0.657490869202083661
0.318000000000000171,0.600361253076875268
0.319000000000000172,0.545576129895317119
0.320000000000000173,0.493106551563993356
0.321000000000000174,0.442923139440176805
0.322000000000000175,0.394996047116011662
0.323000000000000176,0.349294929018453104
0.324000000000000177,0.305788914596403338
0.325000000000000178,0.264446587857852466
0.326000000000000179,0.225235972012657909
0.327000000000000179,0.188124518971630988
0.328000000000000180,0.153079103448803988
0.329000000000000181,0.120066021411439475
0.330000000000000182,0.089050992621766065
0.331000000000000183,0.059999167014431046
0.332000000000000184,0.032875134655427310
0.333000000000000185,0.007642939030575269
0.334000000000000186,-0.015733906584922176
0.335000000000000187,-0.037292399920065722
0.336000000000000187,-0.057070027904170685
0.337000000000000188,-0.075104742499080390
0.338000000000000189,-0.091434934395165743
0.339000000000000190,-0.106099404791982876
0.340000000000000191,-0.119137335477366241
0.341000000000000192,-0.130588257411516778
0.342000000000000193,-0.140492018014720499
0.343000000000000194,-0.148888747349651324
0.344000000000000195,-0.155818823380773963
0.345000000000000195,-0.161322836485579685
0.346000000000000196,-0.165441553383640916
0.347000000000000197,-0.168215880641414378
0.348000000000000198,-0.169686827902277265
0.349000000000000199,-0.169895470982919350
0.350000000000000200,-0.168882914969112258
0.351000000000000201,-0.166690257435527428
0.352000000000000202,-0.163358551906410521
0.353000000000000203,-0.158928771665954621
0.354000000000000203,-0.153441774019504928
0.355000000000000204,-0.146938265099117754
0.356000000000000205,-0.139458765299758508
0.357000000000000206,-0.131043575425240338
0.358000000000000207,-0.121732743615945396
0.359000000000000208,-0.111566033123900080
0.360000000000000209,-0.100582890994175250
0.361000000000000210,-0.088822417705350598
0.362000000000000210,-0.076323337815904987
0.363000000000000211,-0.063123971657571137
0.364000000000000212,-0.049262208111320538
0.365000000000000213,-0.034775478496315813
0.366000000000000214,-0.019700731597296794
0.367000000000000215,-0.004074409851051408
0.368000000000000216,0.012067573291726719
0.369000000000000217,0.028689854817287898
0.370000000000000218,0.045757642404278508
0.371000000000000218,0.063236733479644910
0.372000000000000219,0.081093533074159119
0.373000000000000220,0.099295070480197131
0.374000000000000221,0.117809014717342952
0.375000000000000222,0.136603688814429747
0.376000000000000223,0.155648082919025904
0.377000000000000224,0.174911866248093184
0.378000000000000225,0.194365397895616465
0.379000000000000226,0.213979736515190366
0.380000000000000226,0.233726648897301936
0.381000000000000227,0.253578617462976053
0.382000000000000228,0.273508846696754293
0.383000000000000229,0.293491268543550010
0.384000000000000230,0.313500546795129786
0.385000000000000231,0.333512080492928242
0.386000000000000232,0.353502006375087219
0.387000000000000233,0.373447200396201218
0.388000000000000234,0.393325278349162311
0.389000000000000234,0.413114595618861657
0.390000000000000235,0.432794246098192226
0.391000000000000236,0.452344060296959671
0.392000000000000237,0.471744602674754987
0.393000000000000238,0.490977168228846850
0.394000000000000239,0.510023778368385639
0.395000000000000240,0.528867176106101788
0.396000000000000241,0.547490820598658834
0.397000000000000242,0.565878881066714690
0.398000000000000242,0.584016230125419478
0.399000000000000243,0.601888436555952699
0.400000000000000244,0.619481757548314915
0.401000000000000245,0.636783130445114365
0.402000000000000246,0.653780164015897669
0.403000000000000247,0.670461129290882196
0.404000000000000248,0.686814949982568868
0.405000000000000249,0.702831192523124870
0.406000000000000250,0.718500055744928590
0.407000000000000250,0.733812360230942984
0.408000000000000251,0.748759537361119554
0.409000000000000252,0.763333618080247578
0.410000000000000253,0.777527221412120051
0.411000000000000254,0.791333542744121265
0.412000000000000255,0.804746341905732132
0.413000000000000256,0.817759931063654077
0.414000000000000257,0.830369162455676602
0.415000000000000258,0.842569415984527614
0.416000000000000258,0.854356586692427866
0.417000000000000259,0.865727072136154296
0.418000000000000260,0.876677759681852464
0.419000000000000261,0.887206013738029098
0.420000000000000262,0.897309662944481223
0.421000000000000263,0.906986987334170713
0.422000000000000264,0.916236705484402614
0.423000000000000265,0.925057961672937745
0.424000000000000266,0.933450313053903580
0.425000000000000266,0.941413716867880113
0.426000000000000267,0.948948517699621519
0.427000000000000268,0.956055434796421189
0.428000000000000269,0.962735549459351803
0.429000000000000270,0.968990292519000596
0.430000000000000271,0.974821431906755409
0.431000000000000272,0.980231060331975157
0.432000000000000273,0.985221583074893936
0.433000000000000274,0.989795705904430334
0.434000000000000274,0.993956423129565669
0.435000000000000275,0.997707005792367596
0.436000000000000276,1.001050990010200259
0.437000000000000277,1.003992165474147935
0.438000000000000278,1.006534564110154184
0.439000000000000279,1.008682448908883700
0.440000000000000280,1.010440302929845213
0.441000000000000281,1.011812818484866705
0.442000000000000282,1.012804886505459523
0.443000000000000282,1.013421586098392613
0.444000000000000283,1.013668174293085089
0.445000000000000284,1.013550075984297916
0.446000000000000285,1.013072874073070340
0.447000000000000286,1.012242299808430390
0.448000000000000287,1.011064223332232226
0.449000000000000288,1.009544644428908233
0.450000000000000289,1.007689683481778342
0.451000000000000290,1.005505572637119815
0.452000000000000290,1.002998647176938762
0.453000000000000291,1.000175337101142148
0.454000000000000292,0.997042158919427046
0.455000000000000293,0.993605707653049341
0.456000000000000294,0.989872649046313002
0.457000000000000295,0.985849711987410005
0.458000000000000296,0.981543681138013491
0.459000000000000297,0.976961389770808153
0.460000000000000298,0.972109712813932547
0.461000000000000298,0.966995560101145069
0.462000000000000299,0.961625869826285951
0.463000000000000300,0.956007602200533491
0.464000000000000301,0.950147733310666376
0.465000000000000302,0.944053249176512788
0.466000000000000303,0.937731140005559238
0.467000000000000304,0.931188394642579076
0.468000000000000305,0.924431995212007585
0.469000000000000306,0.917468911950718002
0.470000000000000306,0.910306098228667260
0.471000000000000307,0.902950485754902443
0.472000000000000308,0.895408979966191287
0.473000000000000309,0.887688455595582959
0.474000000000000310,0.879795752418058852
0.475000000000000311,0.871737671170376927
0.476000000000000312,0.863520969642179281
0.477000000000000313,0.855152358935347578
0.478000000000000314,0.846638499888584084
0.479000000000000314,0.837985999664075387
0.480000000000000315,0.829201408493186021
0.481000000000000316,0.820291216577949234
0.482000000000000317,0.811261851145241963
0.483000000000000318,0.802119673650387610
0.484000000000000319,0.792870977127011933
0.485000000000000320,0.783521983679891232
0.486000000000000321,0.774078842117572830
0.487000000000000322,0.764547625721531898
0.488000000000000322,0.754934330148630650
0.489000000000000323,0.745244871463626390
0.490000000000000324,0.735485084298529213
0.491000000000000325,0.725660720135586579
0.492000000000000326,0.715777445710700344
0.493000000000000327,0.705840841534089103
0.494000000000000328,0.695856400525038943
0.495000000000000329,0.685829526757615326
0.496000000000000330,0.675765534314212379
0.497000000000000330,0.665669646243839619
0.498000000000000331,0.655546993622144858
0.499000000000000332,0.645402614710087308
0.500000000000000333,0.635241454208291478
0.501000000000000334,0.625068362604160876
0.502000000000000335,0.614888095608771890
0.503000000000000336,0.604705313680720224
0.504000000000000337,0.594524581634043647
0.505000000000000338,0.584350368327437364
0.506000000000000338,0.574187046431996029
0.507000000000000339,0.564038892274760117
0.508000000000000340,0.553910085755415227
0.509000000000000341,0.543804710333472108
0.510000000000000342,0.533726753083394789
0.511000000000000343,0.523680104815089975
0.512000000000000344,0.513668560257298346
0.513000000000000345,0.503695818301433063
0.514000000000000346,0.493765482303431369
0.515000000000000346,0.483881060441332334
0.516000000000000347,0.474045966126220741
0.517000000000000348,0.464263518464288427
0.518000000000000349,0.454536942767824637
0.519000000000000350,0.444869371112956269
0.520000000000000351,0.435263842942021306
0.521000000000000352,0.425723305708507138
0.522000000000000353,0.416250615562551662
0.523000000000000353,0.406848538075009813
0.524000000000000354,0.397519748998173439
0.525000000000000355,0.388266835061257254
0.526000000000000356,0.379092294798840768
0.527000000000000357,0.369998539410438532
0.528000000000000358,0.360987893649500957
0.529000000000000359,0.352062596740117195
0.530000000000000360,0.343224803319803984
0.531000000000000361,0.334476584406734057
0.532000000000000361,0.325819928389879665
0.533000000000000362,0.317256742040527340
0.534000000000000363,0.308788851543714105
0.535000000000000364,0.300418003548117762
0.536000000000000365,0.292145866233054829
0.537000000000000366,0.283974030391191845
0.538000000000000367,0.275904010525713950
0.539000000000000368,0.267937245960614578
0.540000000000000369,0.260075101962958022
0.541000000000000369,0.252318870875846646
0.542000000000000370,0.244669773261012080
0.543000000000000371,0.237128959049866805
0.544000000000000372,0.229697508701958431
0.545000000000000373,0.222376434369791459
0.546000000000000374,0.215166681069008353
0.547000000000000375,0.208069127852955754
0.548000000000000376,0.201084588990700031
0.549000000000000377,0.194213815147612129
0.550000000000000377,0.187457494567614930
0.551000000000000378,0.180816254256302822
0.552000000000000379,0.174290661164088617
0.553000000000000380,0.167881223368630206
0.554000000000000381,0.161588391255793856
0.555000000000000382,0.155412558698411057
0.556000000000000383,0.149354064232199907
0.557000000000000384,0.143413192228128372
0.558000000000000385,0.137590174060656933
0.559000000000000385,0.131885189271206293
0.560000000000000386,0.126298366726306677
0.561000000000000387,0.120829785769868442
0.562000000000000388,0.115479477369062278
0.563000000000000389,0.110247425253274425
0.564000000000000390,0.105133567045715234
0.565000000000000391,0.100137795387178485
0.566000000000000392,0.095259959051557180
0.567000000000000393,0.090499864052679027
0.568000000000000393,0.085857274742105180
0.569000000000000394,0.081331914897498747
0.570000000000000395,0.076923468801233755
0.571000000000000396,0.072631582308926454
0.572000000000000397,0.068455863907544795
0.573000000000000398,0.064395885762863453
0.574000000000000399,0.060451184755941190
0.575000000000000400,0.056621263508408813
0.576000000000000401,0.052905591396314441
0.577000000000000401,0.049303605552286842
0.578000000000000402,0.045814711855856172
0.579000000000000403,0.042438285911725347
0.580000000000000404,0.039173674015786850
0.581000000000000405,0.036020194108792515
0.582000000000000406,0.032977136717463232
0.583000000000000407,0.030043765882962627
0.584000000000000408,0.027219320076576421
0.585000000000000409,0.024503013102521717
0.586000000000000409,0.021894034987775639
0.587000000000000410,0.019391552858833726
0.588000000000000411,0.016994711805375162
0.589000000000000412,0.014702635730691393
0.590000000000000413,0.012514428188928162
0.591000000000000414,0.010429173209027415
0.592000000000000415,0.008445936105363649
0.593000000000000416,0.006563764275076716
0.594000000000000417,0.004781687982064386
0.595000000000000417,0.003098721127623122
0.596000000000000418,0.001513862007803179
0.597000000000000419,0.000026094057401366
0.598000000000000420,-0.001365613419290551
0.599000000000000421,-0.002662304531029730
0.600000000000000422,-0.003865036095376850
0.601000000000000423,-0.004974876947622780
0.602000000000000424,-0.005992907262860369
0.603000000000000425,-0.006920217891130937
0.604000000000000425,-0.007757909705561844
0.605000000000000426,-0.008507092963466707
0.606000000000000427,-0.009168886680331351
0.607000000000000428,-0.009744418016537132
0.608000000000000429,-0.010234821676884720
0.609000000000000430,-0.010641239322641060
0.610000000000000431,-0.010964818996207871
0.611000000000000432,-0.011206714558172303
0.612000000000000433,-0.011368085136704276
0.613000000000000433,-0.011450094589209203
0.614000000000000434,-0.011453910976091424
0.615000000000000435,-0.011380706046525657
0.616000000000000436,-0.011231654736149444
0.617000000000000437,-0.011007934676548431
0.618000000000000438,-0.010710725716397562
0.619000000000000439,-0.010341209454148487
0.620000000000000440,-0.009900568782161955
