# CNT15-OH-14_ACETALDEHYDE-AC
# h[nm],U(h)[kJ/mol]
0.149999999999999994,103.106465180093735512
0.150999999999999995,101.323988323178852511
0.151999999999999996,99.917942778552259142
0.152999999999999997,98.572188794308004844
0.153999999999999998,97.183975117544505906
0.154999999999999999,95.744790485192964979
0.156000000000000000,94.278619127418181733
0.157000000000000001,92.812981972326184632
0.158000000000000002,91.367771517679884141
0.159000000000000002,89.953017228462044841
0.160000000000000003,88.570548343377339506
0.161000000000000004,87.216858539935188332
0.162000000000000005,85.885859989940769310
0.163000000000000006,84.570998237452855051
0.164000000000000007,83.266615907861464052
0.165000000000000008,81.968651622459304917
0.166000000000000009,80.674834823779036697
0.167000000000000010,79.384545629940959088
0.168000000000000010,78.098486106382978278
0.169000000000000011,76.818275394625032959
0.170000000000000012,75.546046651393695015
0.171000000000000013,74.284093822552264896
0.172000000000000014,73.034592759613374824
0.173000000000000015,71.799404171088738735
0.174000000000000016,70.579954611627798045
0.175000000000000017,69.377185041427736678
0.176000000000000018,68.191553292891882165
0.177000000000000018,67.023076030656596913
0.178000000000000019,65.871396630702406583
0.179000000000000020,64.735867168803153504
0.180000000000000021,63.615634907519904573
0.181000000000000022,62.509725963014737715
0.182000000000000023,61.417120996908394659
0.183000000000000024,60.336819684923668206
0.184000000000000025,59.267892301061770866
0.185000000000000026,58.209518008194699235
0.186000000000000026,57.161010378379820907
0.187000000000000027,56.121831312249675250
0.188000000000000028,55.091594929010035742
0.189000000000000029,54.070063202284600834
0.190000000000000030,53.057135166377712210
0.191000000000000031,52.052831452750183416
0.192000000000000032,51.057275772679709291
0.193000000000000033,50.070674768520703424
0.194000000000000034,49.093297436302968606
0.195000000000000034,48.125455094894633135
0.196000000000000035,47.167482655145398951
0.197000000000000036,46.219721735802096418
0.198000000000000037,45.282505987660748303
0.199000000000000038,44.356148826801437224
0.200000000000000039,43.440933643159439725
0.201000000000000040,42.537106441872133189
0.202000000000000041,41.644870790445537523
0.203000000000000042,40.764384882709620683
0.204000000000000042,39.895760488235140429
0.205000000000000043,39.039063530623238307
0.206000000000000044,38.194316027069213249
0.207000000000000045,37.361499122164538278
0.208000000000000046,36.540556958533720433
0.209000000000000047,35.731401143344896809
0.210000000000000048,34.933915590990316957
0.211000000000000049,34.147961546593393223
0.212000000000000050,33.373382621019722194
0.213000000000000050,32.610009694579105144
0.214000000000000051,31.857665572663542264
0.215000000000000052,31.116169301458796781
0.216000000000000053,30.385340075065933263
0.217000000000000054,29.665000686514684247
0.218000000000000055,28.954980494018144555
0.219000000000000056,28.255117890303985462
0.220000000000000057,27.565262276941052022
0.221000000000000058,26.885275557326689722
0.222000000000000058,26.215033171512448718
0.223000000000000059,25.554424703485096870
0.224000000000000060,24.903354097057519567
0.225000000000000061,24.261739520358354127
0.226000000000000062,23.629512921240113599
0.227000000000000063,23.006619316955173815
0.228000000000000064,22.393015861373701370
0.229000000000000065,21.788670732023263099
0.230000000000000066,21.193561877492903989
0.231000000000000066,20.607675663422490686
0.232000000000000067,20.031005452538870770
0.233000000000000068,19.463550151129460630
0.234000000000000069,18.905312751077257616
0.235000000000000070,18.356298893213526924
0.236000000000000071,17.816515474360947735
0.237000000000000072,17.285969317106239629
0.238000000000000073,16.764665918116346432
0.239000000000000073,16.252608287739214177
0.240000000000000074,15.749795890740838189
0.241000000000000075,15.256223695353615000
0.242000000000000076,14.771881335359646314
0.243000000000000077,14.296752387717779342
0.244000000000000078,13.830813766268937215
0.245000000000000079,13.374035230318066070
0.246000000000000080,12.926379005389335930
0.247000000000000081,12.487799512172955474
0.248000000000000081,12.058243198618717074
0.249000000000000082,11.637648469268729201
0.250000000000000111,11.225945705244825490
0.251000000000000112,10.823057367801823148
0.252000000000000113,10.428898178007237618
0.253000000000000114,10.043375364899931768
0.254000000000000115,9.666388974393765210
0.255000000000000115,9.297832231217135757
0.256000000000000116,8.937591946297370527
0.257000000000000117,8.585548962198291889
0.258000000000000118,8.241578629486685514
0.259000000000000119,7.905551307225505475
0.260000000000000120,7.577332881158779898
0.261000000000000121,7.256785293554520067
0.262000000000000122,6.943767079097644235
0.263000000000000123,6.638133901668119563
0.264000000000000123,6.339739087290938713
0.265000000000000124,6.048434148999808357
0.266000000000000125,5.764069299807927038
0.267000000000000126,5.486493950423803945
0.268000000000000127,5.215557188782079301
0.269000000000000128,4.951108238876984480
0.270000000000000129,4.692996896785303740
0.271000000000000130,4.441073942144624809
0.272000000000000131,4.195191523710493975
0.273000000000000131,3.955203517950156566
0.274000000000000132,3.720965859941395504
0.275000000000000133,3.492336846131230743
0.276000000000000134,3.269177408771292814
0.277000000000000135,3.051351362084969043
0.278000000000000136,2.838725620435148311
0.279000000000000137,2.631170388952770889
0.280000000000000138,2.428559327255202849
0.281000000000000139,2.230769687030452531
0.282000000000000139,2.037682424390369729
0.283000000000000140,1.849182288003292651
0.284000000000000141,1.665157884105996189
0.285000000000000142,1.485501719566990619
0.286000000000000143,1.310110224229618092
0.287000000000000144,1.138883753805461474
0.288000000000000145,0.971726574616469163
0.289000000000000146,0.808546831501073981
0.290000000000000147,0.649256500203929221
0.291000000000000147,0.493771325564643981
0.292000000000000148,0.342010746806530097
0.293000000000000149,0.193897811205247989
0.294000000000000150,0.049359077388301455
0.295000000000000151,-0.091675490517999836
0.296000000000000152,-0.229272636717183564
0.297000000000000153,-0.363495934413789967
0.298000000000000154,-0.494405912241557555
0.299000000000000155,-0.622060185413331412
0.300000000000000155,-0.746513590609927613
0.301000000000000156,-0.867818323679212744
0.302000000000000157,-0.986024079272062925
0.303000000000000158,-1.101178191597308231
0.304000000000000159,-1.213325775534027429
0.305000000000000160,-1.322509867394939809
0.306000000000000161,-1.428771564689946816
0.307000000000000162,-1.532150164293049732
0.308000000000000163,-1.632683298468799560
0.309000000000000163,-1.730407068266242687
0.310000000000000164,-1.825356173838404983
0.311000000000000165,-1.917564041293586596
0.312000000000000166,-2.007062945731404202
0.313000000000000167,-2.093884130160847068
0.314000000000000168,-2.178057920040121331
0.315000000000000169,-2.259613833218327983
0.316000000000000170,-2.338580685097237044
0.317000000000000171,-2.414986688867235554
0.318000000000000171,-2.488859550705348589
0.319000000000000172,-2.560226559854896333
0.320000000000000173,-2.629114673535589031
0.321000000000000174,-2.695550596660226450
0.322000000000000175,-2.759560856359393632
0.323000000000000176,-2.821171871338638226
0.324000000000000177,-2.880410016113823524
0.325000000000000178,-2.937301680189521313
0.326000000000000179,-2.991873322262973645
0.327000000000000179,-3.044151519551451468
0.328000000000000180,-3.094163012355036546
0.329000000000000181,-3.141934743979176048
0.330000000000000182,-3.187493896151913475
0.331000000000000183,-3.230867920080410016
0.332000000000000184,-3.272084563298963467
0.333000000000000185,-3.311171892467624112
0.334000000000000186,-3.348158312285878679
0.335000000000000187,-3.383072580690134945
0.336000000000000187,-3.415943820507161721
0.337000000000000188,-3.446801527737553439
0.338000000000000189,-3.475675576645074649
0.339000000000000190,-3.502596221827940504
0.340000000000000191,-3.527594097447865007
0.341000000000000192,-3.550700213791905036
0.342000000000000193,-3.571945951340310010
0.343000000000000194,-3.591363052511638010
0.344000000000000195,-3.608983611253306467
0.345000000000000195,-3.624840060643121920
0.346000000000000196,-3.638965158663157951
0.347000000000000197,-3.651391972303807076
0.348000000000000198,-3.662153860151394547
0.349000000000000199,-3.671284453608135490
0.350000000000000200,-3.678817636888639608
0.351000000000000201,-3.684787525931932262
0.352000000000000202,-3.689228446363018943
0.353000000000000203,-3.692174910632702645
0.354000000000000203,-3.693661594459028752
0.355000000000000204,-3.693723312688203642
0.356000000000000205,-3.692394994687575149
0.357000000000000206,-3.689711659377729713
0.358000000000000207,-3.685708390005118851
0.359000000000000208,-3.680420308751509939
0.360000000000000209,-3.673882551270992280
0.361000000000000210,-3.666130241239940801
0.362000000000000210,-3.657198465000210952
0.363000000000000211,-3.647122246370598564
0.364000000000000212,-3.635936521696665036
0.365000000000000213,-3.623676115203978920
0.366000000000000214,-3.610375714715142514
0.367000000000000215,-3.596069847786208751
0.368000000000000216,-3.580792858313690097
0.369000000000000217,-3.564578883658798159
0.370000000000000218,-3.547461832331531006
0.371000000000000218,-3.529475362272892713
0.372000000000000219,-3.510652859769834322
0.373000000000000220,-3.491027419033595258
0.374000000000000221,-3.470631822468531968
0.375000000000000222,-3.449498521654996264
0.376000000000000223,-3.427659619066731889
0.377000000000000224,-3.405146850539833459
0.378000000000000225,-3.381991568507506596
0.379000000000000226,-3.358224726011951766
0.380000000000000226,-3.333876861502094613
0.381000000000000227,-3.308978084423134014
0.382000000000000228,-3.283558061601815403
0.383000000000000229,-3.257646004428775832
0.384000000000000230,-3.231270656837310185
0.385000000000000231,-3.204460284076090737
0.386000000000000232,-3.177242662271211771
0.387000000000000233,-3.149645068771524503
0.388000000000000234,-3.121694273269394415
0.389000000000000234,-3.093416529687778027
0.390000000000000235,-3.064837568822906810
0.391000000000000236,-3.035982591730884472
0.392000000000000237,-3.006876263845119190
0.393000000000000238,-2.977542709810732546
0.394000000000000239,-2.948005509020902970
0.395000000000000240,-2.918287691839492215
0.396000000000000241,-2.888411736493415649
0.397000000000000242,-2.858399566617567000
0.398000000000000242,-2.828272549434645899
0.399000000000000243,-2.798051494551573093
0.400000000000000244,-2.767756653353850460
0.401000000000000245,-2.737407718978933424
0.402000000000000246,-2.707023826849195292
0.403000000000000247,-2.676623555745038630
0.404000000000000248,-2.646224929398441450
0.405000000000000249,-2.615845418587150917
0.406000000000000250,-2.585501943709624051
0.407000000000000250,-2.555210877820909054
0.408000000000000251,-2.524988050109569837
0.409000000000000252,-2.494848749795963272
0.410000000000000253,-2.464807730432181820
0.411000000000000254,-2.434879214584221074
0.412000000000000255,-2.405076898877040570
0.413000000000000256,-2.375413959383508189
0.414000000000000257,-2.345903057338307729
0.415000000000000258,-2.316556345158382157
0.416000000000000258,-2.287385472751537918
0.417000000000000259,-2.258401594095375664
0.418000000000000260,-2.229615374068901534
0.419000000000000261,-2.201036995519588757
0.420000000000000262,-2.172676166549043053
0.421000000000000263,-2.144542128000781922
0.422000000000000264,-2.116643661134035348
0.423000000000000265,-2.088989095467876034
0.424000000000000266,-2.061586316780504191
0.425000000000000266,-2.034442775248717084
0.426000000000000267,-2.007565493713269422
0.427000000000000268,-1.980961076056087844
0.428000000000000269,-1.954635715675796970
0.429000000000000270,-1.928595204048523026
0.430000000000000271,-1.902844939361194587
0.431000000000000272,-1.877389935205252769
0.432000000000000273,-1.852234829318862852
0.433000000000000274,-1.827383892366384543
0.434000000000000274,-1.802841036744100567
0.435000000000000275,-1.778609825401773703
0.436000000000000276,-1.754693480669980987
0.437000000000000277,-1.731094893083524600
0.438000000000000278,-1.707816630191784313
0.439000000000000279,-1.684860945347165906
0.440000000000000280,-1.662229786463231607
0.441000000000000281,-1.639924804734517183
0.442000000000000282,-1.617947363310480613
0.443000000000000282,-1.596298545916226885
0.444000000000000283,-1.574979165413310289
0.445000000000000284,-1.553989772294020799
0.446000000000000285,-1.533330663103029234
0.447000000000000286,-1.513001888780749038
0.448000000000000287,-1.493003262922785623
0.449000000000000288,-1.473334369950580536
0.450000000000000289,-1.453994573188318595
0.451000000000000290,-1.434983022841750389
0.452000000000000290,-1.416298663874756336
0.453000000000000291,-1.397940243779777658
0.454000000000000292,-1.379906320238620143
0.455000000000000293,-1.362195268670286508
0.456000000000000294,-1.344805289662900805
0.457000000000000295,-1.327734416286949992
0.458000000000000296,-1.310980521287352207
0.459000000000000297,-1.294541324152145290
0.460000000000000298,-1.278414398055752965
0.461000000000000298,-1.262597176675091193
0.462000000000000299,-1.247086960876941486
0.463000000000000300,-1.231880925275219862
0.464000000000000301,-1.216976124657054736
0.465000000000000302,-1.202369500276699865
0.466000000000000303,-1.188057886016485210
0.467000000000000304,-1.174038014414283015
0.468000000000000305,-1.160306522557043918
0.469000000000000306,-1.146859957840138611
0.470000000000000306,-1.133694783592470223
0.471000000000000307,-1.120807384567315435
0.472000000000000308,-1.108194072299200972
0.473000000000000309,-1.095851090327048194
0.474000000000000310,-1.083774619284108232
0.475000000000000311,-1.071960781855211264
0.476000000000000312,-1.060405647602096879
0.477000000000000313,-1.049105237657535827
0.478000000000000314,-1.038055529289196643
0.479000000000000314,-1.027252460334274087
0.480000000000000315,-1.016691933505896595
0.481000000000000316,-1.006369820572569296
0.482000000000000317,-0.996281966411835862
0.483000000000000318,-0.986424192939528433
0.484000000000000319,-0.976792302915973965
0.485000000000000320,-0.967382083630644707
0.486000000000000321,-0.958189310466743160
0.487000000000000322,-0.949209750347323911
0.488000000000000322,-0.940439165064520521
0.489000000000000323,-0.931873314493644633
0.490000000000000324,-0.923507959693774416
0.491000000000000325,-0.915338865896642817
0.492000000000000326,-0.907361805385566100
0.493000000000000327,-0.899572560266286181
0.494000000000000328,-0.891966925131518096
0.495000000000000329,-0.884540709621100651
0.496000000000000330,-0.877289740879615865
0.497000000000000330,-0.870209865913429637
0.498000000000000331,-0.863296953848994186
0.499000000000000332,-0.856546898094441067
0.500000000000000333,-0.849955618406351809
0.501000000000000334,-0.843519062863638980
0.502000000000000335,-0.837233209750557039
0.503000000000000336,-0.831094069350742926
0.504000000000000337,-0.825097685654268220
0.505000000000000338,-0.819240137979652117
0.506000000000000338,-0.813517542512794400
0.507000000000000339,-0.807926053764755125
0.508000000000000340,-0.802461865950324538
0.509000000000000341,-0.797121214289346680
0.510000000000000342,-0.791900376232643977
0.511000000000000343,-0.786795672614517438
0.512000000000000344,-0.781803468733659357
0.513000000000000345,-0.776920175364385956
0.514000000000000346,-0.772142249700062289
0.515000000000000346,-0.767466196230503606
0.516000000000000347,-0.762888567555229935
0.517000000000000348,-0.758405965134387960
0.518000000000000349,-0.754015039979050727
0.519000000000000350,-0.749712493282743475
0.520000000000000351,-0.745495076995875694
0.521000000000000352,-0.741359594344841222
0.522000000000000353,-0.737302900297440944
0.523000000000000353,-0.733321901976315749
0.524000000000000354,-0.729413559022059066
0.525000000000000355,-0.725574883907590062
0.526000000000000356,-0.721802942205392428
0.527000000000000357,-0.718094852809231909
0.528000000000000358,-0.714447788111812865
0.529000000000000359,-0.710858974139992328
0.530000000000000360,-0.707325690648934358
0.531000000000000361,-0.703845271176768095
0.532000000000000361,-0.700415103061108657
0.533000000000000362,-0.697032627418899819
0.534000000000000363,-0.693695339090928842
0.535000000000000364,-0.690400786552387902
0.536000000000000365,-0.687146571790795857
0.537000000000000366,-0.683930350152595956
0.538000000000000367,-0.680749830159657066
0.539000000000000368,-0.677602773297012240
0.540000000000000369,-0.674486993772932752
0.541000000000000369,-0.671400358252647655
0.542000000000000370,-0.668340785566770124
0.543000000000000371,-0.665306246395633294
0.544000000000000372,-0.662294762930624947
0.545000000000000373,-0.659304408513593954
0.546000000000000374,-0.656333307255393072
0.547000000000000375,-0.653379633634587398
0.548000000000000376,-0.650441612077347964
0.549000000000000377,-0.647517516519476755
0.550000000000000377,-0.644605669951547555
0.551000000000000378,-0.641704443948071135
0.552000000000000379,-0.638812258181602699
0.553000000000000380,-0.635927579922665021
0.554000000000000381,-0.633048923526325358
0.555000000000000382,-0.630174849906305790
0.556000000000000383,-0.627303965997360713
0.557000000000000384,-0.624434924206790809
0.558000000000000385,-0.621566421855770601
0.559000000000000385,-0.618697200611302178
0.560000000000000386,-0.615826045909460884
0.561000000000000387,-0.612951786370655172
0.562000000000000388,-0.610073293207552991
0.563000000000000389,-0.607189479626364159
0.564000000000000390,-0.604299300222056912
0.565000000000000391,-0.601401750368173116
0.566000000000000392,-0.598495865601789467
0.567000000000000393,-0.595580721004243085
0.568000000000000393,-0.592655430578119202
0.569000000000000394,-0.589719146621078272
0.570000000000000395,-0.586771059097032976
0.571000000000000396,-0.583810395005128102
0.572000000000000397,-0.580836417747086386
0.573000000000000398,-0.577848426493279832
0.574000000000000399,-0.574845755548074711
0.575000000000000400,-0.571827773714787102
0.576000000000000401,-0.568793883660716593
0.577000000000000401,-0.565743521282659811
0.578000000000000402,-0.562676155073239981
0.579000000000000403,-0.559591285488433288
0.580000000000000404,-0.556488444316698527
0.581000000000000405,-0.553367194049944167
0.582000000000000406,-0.550227127256752602
0.583000000000000407,-0.547067865958099864
0.584000000000000408,-0.543889061005907615
0.585000000000000409,-0.540690391464689779
0.586000000000000409,-0.537471563996561486
0.587000000000000410,-0.534232312249888541
0.588000000000000411,-0.530972396251776724
0.589000000000000412,-0.527691601804700872
0.590000000000000413,-0.524389739887414996
0.591000000000000414,-0.521066646060414973
0.592000000000000415,-0.517722179876139776
0.593000000000000416,-0.514356224294062914
0.594000000000000417,-0.510968685100894549
0.595000000000000417,-0.507559490336070951
0.596000000000000418,-0.504128589722606213
0.597000000000000419,-0.500675954103584564
0.598000000000000420,-0.497201574884304498
0.599000000000000421,-0.493705463480300921
0.600000000000000422,-0.490187650771313543
0.601000000000000423,-0.486648186561330409
0.602000000000000424,-0.483087139044822589
0.603000000000000425,-0.479504594279260510
0.604000000000000425,-0.475900655663983652
0.605000000000000426,-0.472275443425533292
0.606000000000000427,-0.468629094109544120
0.607000000000000428,-0.464961760079149300
0.608000000000000429,-0.461273609020169784
0.609000000000000430,-0.457564823452885960
0.610000000000000431,-0.453835600250687698
0.611000000000000432,-0.450086150165467824
0.612000000000000433,-0.446316697359870507
0.613000000000000433,-0.442527478946449448
