# Au-001-PE_CYMSCA-AC
# h[nm],U(h)[kJ/mol]
0.200000000000000011,57.769983854667565026
0.201000000000000012,56.900969825542858871
0.202000000000000013,56.039433174636101853
0.203000000000000014,55.187703617521968624
0.204000000000000015,54.344837723923681949
0.205000000000000016,53.508712535348330164
0.206000000000000016,52.677160931098526930
0.207000000000000017,51.848506210452875109
0.208000000000000018,51.021737690099605800
0.209000000000000019,50.196487166086996012
0.210000000000000020,49.372908770359657638
0.211000000000000021,48.551525283147199730
0.212000000000000022,47.733077311674847465
0.213000000000000023,46.918394199515418563
0.214000000000000024,46.108294367610128006
0.215000000000000024,45.303516027921858722
0.216000000000000025,44.504675426974003472
0.217000000000000026,43.712247951702970283
0.218000000000000027,42.926566847915061942
0.219000000000000028,42.147834466078315074
0.220000000000000029,41.376141523452147908
0.221000000000000030,40.611490633145933771
0.222000000000000031,39.853821157937872499
0.223000000000000032,39.103033214273850149
0.224000000000000032,38.359009333021013788
0.225000000000000033,37.621632857155837826
0.226000000000000034,36.890802618002119573
0.227000000000000035,36.166443786342995281
0.228000000000000036,35.448515053769867222
0.229000000000000037,34.737012476684149931
0.230000000000000038,34.031970424788802632
0.231000000000000039,33.333460131509482949
0.232000000000000040,32.641586358139356605
0.233000000000000040,31.956482667585998314
0.234000000000000041,31.278305766686138156
0.235000000000000042,30.607229325740370030
0.236000000000000043,29.943437626251903083
0.237000000000000044,29.287119327493236653
0.238000000000000045,28.638461582938180783
0.239000000000000046,27.997644681253792243
0.240000000000000047,27.364837335084040149
0.241000000000000048,26.740192695266678413
0.242000000000000048,26.123845128874279453
0.243000000000000049,25.515907766646410693
0.244000000000000050,24.916470798786495067
0.245000000000000051,24.325600477333800598
0.246000000000000052,23.743338767871858153
0.247000000000000053,23.169703582598398128
0.248000000000000054,22.604689520136531655
0.249000000000000055,22.048269034285731038
0.250000000000000056,21.500393953593910368
0.251000000000000056,20.960997275616385593
0.252000000000000057,20.429995163502027822
0.253000000000000058,19.907289077654873211
0.254000000000000059,19.392767981259432020
0.255000000000000060,18.886310565088081148
0.256000000000000061,18.387787443939433984
0.257000000000000062,17.897063284049345100
0.258000000000000063,17.413998827680707393
0.259000000000000064,16.938452787683438316
0.260000000000000064,16.470283591010563384
0.261000000000000065,16.009350955900178093
0.262000000000000066,15.555517292630650417
0.263000000000000067,15.108648922401780368
0.264000000000000068,14.668617112973709737
0.265000000000000069,14.235298933213689665
0.266000000000000070,13.808577931676513373
0.267000000000000071,13.388344646800558024
0.268000000000000071,12.974496958274041702
0.269000000000000072,12.566940290649801781
0.270000000000000073,12.165587681404135267
0.271000000000000074,11.770359726386766752
0.272000000000000075,11.381184416036942864
0.273000000000000076,10.997996875886828505
0.274000000000000077,10.620739024776934656
0.275000000000000078,10.249359163907778125
0.276000000000000079,9.883811509382288918
0.277000000000000079,9.524055680287160541
0.278000000000000080,9.170056153649415620
0.279000000000000081,8.821781696811836326
0.280000000000000082,8.479204786923832060
0.281000000000000083,8.142301026362019911
0.282000000000000084,7.811048561997083084
0.283000000000000085,7.485427515325516978
0.284000000000000086,7.165419429599606538
0.285000000000000087,6.851006739228948206
0.286000000000000087,6.542172265899398376
0.287000000000000088,6.238898745068750529
0.288000000000000089,5.941168385758028414
0.289000000000000090,5.648962465866439686
0.290000000000000091,5.362260964600733537
0.291000000000000092,5.081042233025479860
0.292000000000000093,4.805282703212363060
0.293000000000000094,4.534956635992070773
0.294000000000000095,4.270035906891616939
0.295000000000000095,4.010489829470570200
0.296000000000000096,3.756285014950973000
0.297000000000000097,3.507385266763622500
0.298000000000000098,3.263751508406706137
0.299000000000000099,3.025341742827438729
0.300000000000000100,2.792111041391464710
0.301000000000000101,2.564011560393848477
0.302000000000000102,2.340992582988484116
0.303000000000000103,2.123000584363706533
0.304000000000000103,1.909979317971324475
0.305000000000000104,1.701869920617845366
0.306000000000000105,1.498611034250066698
0.307000000000000106,1.300138942308497914
0.308000000000000107,1.106387718578968338
0.309000000000000108,0.917289386543331808
0.310000000000000109,0.732774087311166888
0.311000000000000110,0.552770254305548159
0.312000000000000111,0.377204792972677116
0.313000000000000111,0.206003263889044996
0.314000000000000112,0.039090067746205291
0.315000000000000113,-0.123611369197181145
0.316000000000000114,-0.282178410495875942
0.317000000000000115,-0.436689026920283052
0.318000000000000116,-0.587221616959828219
0.319000000000000117,-0.733854831398910834
0.320000000000000118,-0.876667402831338705
0.321000000000000119,-1.015737980876961100
0.322000000000000119,-1.151144973765356738
0.323000000000000120,-1.282966396856713542
0.324000000000000121,-1.411279728580174142
0.325000000000000122,-1.536161774184048756
0.326000000000000123,-1.657688537611769819
0.327000000000000124,-1.775935101741827449
0.328000000000000125,-1.890975517159390051
0.329000000000000126,-2.002882699561657098
0.330000000000000127,-2.111728335838825910
0.331000000000000127,-2.217582798816937206
0.332000000000000128,-2.320515070598487828
0.333000000000000129,-2.420592674391049304
0.334000000000000130,-2.517881614672866419
0.335000000000000131,-2.612446325508219314
0.336000000000000132,-2.704349626792559746
0.337000000000000133,-2.793652688179634414
0.338000000000000134,-2.880415000418466764
0.339000000000000135,-2.964694353807109106
0.340000000000000135,-3.046546823453482045
0.341000000000000136,-3.126026761019248035
0.342000000000000137,-3.203186792612053413
0.343000000000000138,-3.278077822483254522
0.344000000000000139,-3.350749042183000626
0.345000000000000140,-3.421247944821236953
0.346000000000000141,-3.489620344082510428
0.347000000000000142,-3.555910397643444298
0.348000000000000143,-3.620160634644778774
0.349000000000000143,-3.682411986874333021
0.350000000000000144,-3.742703823323316747
0.351000000000000145,-3.801073987785555719
0.352000000000000146,-3.857558839177777088
0.353000000000000147,-3.912193294268303312
0.354000000000000148,-3.965010872511809392
0.355000000000000149,-4.016043742698693464
0.356000000000000150,-4.065322771139071811
0.357000000000000151,-4.112877571113448205
0.358000000000000151,-4.158736553334343888
0.359000000000000152,-4.202926977175859058
0.360000000000000153,-4.245475002440942447
0.361000000000000154,-4.286405741448829687
0.362000000000000155,-4.325743311238307243
0.363000000000000156,-4.363510885695067287
0.364000000000000157,-4.399730747424227317
0.365000000000000158,-4.434424339201868293
0.366000000000000159,-4.467612314851470146
0.367000000000000159,-4.499314589403634379
0.368000000000000160,-4.529550388409083084
0.369000000000000161,-4.558338296286505553
0.370000000000000162,-4.585696303598121304
0.371000000000000163,-4.611641853156454474
0.372000000000000164,-4.636191884876387448
0.373000000000000165,-4.659362879296470972
0.374000000000000166,-4.681170899703231747
0.375000000000000167,-4.701631632801103855
0.376000000000000167,-4.720760427879683974
0.377000000000000168,-4.738572334438107880
0.378000000000000169,-4.755082138234250522
0.379000000000000170,-4.770304395733940162
0.380000000000000171,-4.784253466942383959
0.381000000000000172,-4.796943546606490472
0.382000000000000173,-4.808388693783029133
0.383000000000000174,-4.818602859773312375
0.384000000000000175,-4.827599914430363626
0.385000000000000175,-4.835393670849502001
0.386000000000000176,-4.841997908457956967
0.387000000000000177,-4.847426394523080440
0.388000000000000178,-4.851692904102902659
0.389000000000000179,-4.854811238465892131
0.390000000000000180,-4.856795242010276681
0.391000000000000181,-4.857658817715917010
0.392000000000000182,-4.857415941164329176
0.393000000000000183,-4.856080673164717254
0.394000000000000183,-4.853667171025795923
0.395000000000000184,-4.850189698514959069
0.396000000000000185,-4.845662634547708514
0.397000000000000186,-4.840100480651551074
0.398000000000000187,-4.833517867249552680
0.399000000000000188,-4.825929558809497699
0.400000000000000189,-4.817350457905179795
0.401000000000000190,-4.807795608236805407
0.402000000000000191,-4.797280196657689899
0.403000000000000191,-4.785819554254437946
0.404000000000000192,-4.773429156527859263
0.405000000000000193,-4.760124622721464860
0.406000000000000194,-4.745921714344239817
0.407000000000000195,-4.730836332933782806
0.408000000000000196,-4.714884517105370598
0.409000000000000197,-4.698082438931874272
0.410000000000000198,-4.680446399698715787
0.411000000000000199,-4.661992825077079239
0.412000000000000199,-4.642738259757885899
0.413000000000000200,-4.622699361587927491
0.414000000000000201,-4.601892895248613335
0.415000000000000202,-4.580335725516645695
0.416000000000000203,-4.558044810144879833
0.417000000000000204,-4.535037192400463546
0.418000000000000205,-4.511329993296157248
0.419000000000000206,-4.486940403549558809
0.420000000000000207,-4.461885675303679299
0.421000000000000207,-4.436183113641211762
0.422000000000000208,-4.409850067923369643
0.423000000000000209,-4.382903922983208744
0.424000000000000210,-4.355362090201845504
0.425000000000000211,-4.327241998494839592
0.426000000000000212,-4.298561085234846146
0.427000000000000213,-4.269336787135228128
0.428000000000000214,-4.239586531118295198
0.429000000000000214,-4.209327725190472158
0.430000000000000215,-4.178577749345592451
0.431000000000000216,-4.147353946516393997
0.432000000000000217,-4.115673613592962354
0.433000000000000218,-4.083553992525952303
0.434000000000000219,-4.051012261531176328
0.435000000000000220,-4.018065526411155552
0.436000000000000221,-3.984730812008090872
0.437000000000000222,-3.951025053801764386
0.438000000000000222,-3.916965089664876221
0.439000000000000223,-3.882567651787309781
0.440000000000000224,-3.847849358779947604
0.441000000000000225,-3.812826707967650552
0.442000000000000226,-3.777516067880330120
0.443000000000000227,-3.741933670949921353
0.444000000000000228,-3.706095606420545696
0.445000000000000229,-3.670017813478124502
0.446000000000000230,-3.633716074605084945
0.447000000000000230,-3.597206009165073048
0.448000000000000231,-3.560503067221846951
0.449000000000000232,-3.523622523595816514
0.450000000000000233,-3.486579472161282833
0.451000000000000234,-3.449388820386482202
0.452000000000000235,-3.412065284118329433
0.453000000000000236,-3.374623382612880640
0.454000000000000237,-3.337077433812310368
0.455000000000000238,-3.299441549868436852
0.456000000000000238,-3.261729632912592880
0.457000000000000239,-3.223955371071038911
0.458000000000000240,-3.186132234724822876
0.459000000000000241,-3.148273473012438650
0.460000000000000242,-3.110392110573531710
0.461000000000000243,-3.072500944531235234
0.462000000000000244,-3.034612541710746125
0.463000000000000245,-2.996739236091069625
0.464000000000000246,-2.958893126487005976
0.465000000000000246,-2.921086074457854398
0.466000000000000247,-2.883329702439236364
0.467000000000000248,-2.845635392094202132
0.468000000000000249,-2.808014282879609969
0.469000000000000250,-2.770477270823505034
0.470000000000000251,-2.733035007509170722
0.471000000000000252,-2.695697899261261909
0.472000000000000253,-2.658476106529465532
0.473000000000000254,-2.621379543464807060
0.474000000000000254,-2.584417877683818254
0.475000000000000255,-2.547600530215555548
0.476000000000000256,-2.510936675626459724
0.477000000000000257,-2.474435242317994721
0.478000000000000258,-2.438104912991839512
0.479000000000000259,-2.401954125277567798
0.480000000000000260,-2.365991072517514837
0.481000000000000261,-2.330223704703652921
0.482000000000000262,-2.294659729561233430
0.483000000000000262,-2.259306613773993000
0.484000000000000263,-2.224171584345648434
0.485000000000000264,-2.189261630092533384
0.486000000000000265,-2.154583503262191613
0.487000000000000266,-2.120143721272742532
0.488000000000000267,-2.085948568567967509
0.489000000000000268,-2.052004098583051661
0.490000000000000269,-2.018316135815918066
0.491000000000000270,-1.984890277999307173
0.492000000000000270,-1.951731898368586737
0.493000000000000271,-1.918846148020586728
0.494000000000000272,-1.886237958358638833
0.495000000000000273,-1.853912043619122318
0.496000000000000274,-1.821872903475011185
0.497000000000000275,-1.790124825711776113
0.498000000000000276,-1.758671888971302666
0.499000000000000277,-1.727517965559430824
0.500000000000000222,-1.696666724312829500
0.501000000000000334,-1.666121633521091550
0.502000000000000224,-1.635885963899928353
0.503000000000000336,-1.605962791611442952
0.504000000000000226,-1.576355001327704120
0.505000000000000338,-1.547065289333634741
0.506000000000000227,-1.518096166665750424
0.507000000000000339,-1.489449962282893836
0.508000000000000229,-1.461128826265681191
0.509000000000000341,-1.433134733041048658
0.510000000000000231,-1.405469484628812937
0.511000000000000343,-1.378134713906781883
0.512000000000000233,-1.351131887891527494
0.513000000000000345,-1.324462311031614048
0.514000000000000234,-1.298127128510562667
0.515000000000000346,-1.272127329556474784
0.516000000000000236,-1.246463750755854472
0.517000000000000348,-1.221137079368765255
0.518000000000000238,-1.196147856642966634
0.519000000000000350,-1.171496481124420397
0.520000000000000240,-1.147183211961946059
0.521000000000000352,-1.123208172203675304
0.522000000000000242,-1.099571352083183351
0.523000000000000353,-1.076272612293153630
0.524000000000000243,-1.053311687244639527
0.525000000000000355,-1.030688188309951681
0.526000000000000245,-1.008401607047407333
0.527000000000000357,-0.986451318406088129
0.528000000000000247,-0.964836583909083778
0.529000000000000359,-0.943556554813478221
0.530000000000000249,-0.922610275245707490
0.531000000000000361,-0.901996685310743396
0.532000000000000250,-0.881714624173841388
0.533000000000000362,-0.861762833113475013
0.534000000000000252,-0.842139958544319001
0.535000000000000364,-0.822844555009075940
0.536000000000000254,-0.803875088138140237
0.537000000000000366,-0.785229937575969261
0.538000000000000256,-0.766907399873384854
0.539000000000000368,-0.748905691344725732
0.540000000000000258,-0.731222950889230061
0.541000000000000369,-0.713857242775677192
0.542000000000000259,-0.696806559389786306
0.543000000000000371,-0.680068823943546397
0.544000000000000261,-0.663641893146003636
0.545000000000000373,-0.647523559834898954
0.546000000000000263,-0.631711555568704952
0.547000000000000375,-0.616203553178543251
0.548000000000000265,-0.600997169279734678
0.549000000000000377,-0.586089966742441404
0.550000000000000266,-0.571479457121276124
0.551000000000000378,-0.557163103043494923
0.552000000000000268,-0.543138320555618725
0.553000000000000380,-0.529402481428273952
0.554000000000000270,-0.515952915419148894
0.555000000000000382,-0.502786912493894400
0.556000000000000272,-0.489901725005007838
0.557000000000000384,-0.477294569828532189
0.558000000000000274,-0.464962630458727044
0.559000000000000385,-0.452903059060582536
0.560000000000000275,-0.441112978480384943
0.561000000000000387,-0.429589484214317974
0.562000000000000277,-0.418329646335277416
0.563000000000000389,-0.407330511378024618
0.564000000000000279,-0.396589104182865526
0.565000000000000391,-0.386102429698029048
0.566000000000000281,-0.375867474740982366
0.567000000000000393,-0.365881209718914524
0.568000000000000282,-0.356140590308672955
0.569000000000000394,-0.346642559096383529
0.570000000000000284,-0.337384047177121005
0.571000000000000396,-0.328361975714888232
0.572000000000000286,-0.319573257463304172
0.573000000000000398,-0.311014798247263413
0.574000000000000288,-0.302683498406024931
0.575000000000000400,-0.294576254198060383
0.576000000000000290,-0.286689959168055342
0.577000000000000401,-0.279021505476486908
0.578000000000000291,-0.271567785192188271
0.579000000000000403,-0.264325691548316533
0.580000000000000293,-0.257292120162185223
0.581000000000000405,-0.250463970219376442
0.582000000000000295,-0.243838145622630176
0.583000000000000407,-0.237411556105925847
0.584000000000000297,-0.231181118314260525
0.585000000000000409,-0.225143756849593174
0.586000000000000298,-0.219296405283423146
0.587000000000000410,-0.213636007136513623
0.588000000000000300,-0.208159516826232238
0.589000000000000412,-0.202863900582005041
0.590000000000000302,-0.197746137329397526
0.591000000000000414,-0.192803219543329130
0.592000000000000304,-0.188032154070890190
0.593000000000000416,-0.183429962924304218
0.594000000000000306,-0.178993684044544465
0.595000000000000417,-0.174720372036081567
0.596000000000000307,-0.170607098873298613
0.597000000000000419,-0.166650954579084021
0.598000000000000309,-0.162849047876111208
0.599000000000000421,-0.159198506811278395
0.600000000000000311,-0.155696479353891137
0.601000000000000423,-0.152340133968015712
0.602000000000000313,-0.149126660159574376
0.603000000000000425,-0.146053268998618951
0.604000000000000314,-0.143117193617375682
0.605000000000000426,-0.140315689684452849
0.606000000000000316,-0.137646035855802956
0.607000000000000428,-0.135105534202864030
0.608000000000000318,-0.132691510618422936
0.609000000000000430,-0.130401315200641604
0.610000000000000320,-0.128232322615765143
0.611000000000000432,-0.126181932439973721
0.612000000000000322,-0.124247569480846254
0.613000000000000433,-0.122426684078935713
0.614000000000000323,-0.120716752389885773
0.615000000000000435,-0.119115276647585769
0.616000000000000325,-0.117619785408790228
0.617000000000000437,-0.116227833779676576
0.618000000000000327,-0.114937003624789910
0.619000000000000439,-0.113744903758789984
0.620000000000000329,-0.112649170121473616
0.621000000000000441,-0.111647465936484780
0.622000000000000330,-0.110737481854134207
0.623000000000000442,-0.109916936078771066
0.624000000000000332,-0.109183574481086773
0.625000000000000444,-0.108535170695812644
0.626000000000000334,-0.107969526205156360
0.627000000000000446,-0.107484470408426153
0.628000000000000336,-0.107077860678199424
0.629000000000000448,-0.106747582403449809
0.630000000000000338,-0.106491549019990361
0.631000000000000449,-0.106307702028635487
0.632000000000000339,-0.106194011001409350
0.633000000000000451,-0.106148473576216817
0.634000000000000341,-0.106169115440282957
0.635000000000000453,-0.106253990302763543
0.636000000000000343,-0.106401179856807707
0.637000000000000455,-0.106608793731490015
0.638000000000000345,-0.106874969433878392
0.639000000000000457,-0.107197872281597675
0.640000000000000346,-0.107575695326213319
0.641000000000000458,-0.108006659267735255
0.642000000000000348,-0.108489012360561257
0.643000000000000460,-0.109021030311167499
0.644000000000000350,-0.109601016167827553
0.645000000000000462,-0.110227300202684148
0.646000000000000352,-0.110898239786417524
0.647000000000000464,-0.111612219255831563
0.648000000000000353,-0.112367649774610515
0.649000000000000465,-0.113162969187522028
0.650000000000000355,-0.113996641868329140
0.651000000000000467,-0.114867158561668264
0.652000000000000357,-0.115773036219158909
0.653000000000000469,-0.116712817829969673
0.654000000000000359,-0.117685072246109135
0.655000000000000471,-0.118688394002649591
0.656000000000000361,-0.119721403133145138
0.657000000000000473,-0.120782744980447387
0.658000000000000362,-0.121871090003153548
0.659000000000000474,-0.122985133577890537
0.660000000000000364,-0.124123595797663480
0.661000000000000476,-0.125285221266459329
0.662000000000000366,-0.126468778890305222
0.663000000000000478,-0.127673061665001836
0.664000000000000368,-0.128896886460682758
