# Au-001-PE_AFUC-AC
# h[nm],U(h)[kJ/mol]
0.149999999999999994,152.021442815434284057
0.150999999999999995,147.772214941992842796
0.151999999999999996,144.632058226949311575
0.152999999999999997,141.865809746920660928
0.153999999999999998,139.165026891176410118
0.154999999999999999,136.435745283808785189
0.156000000000000000,133.679270847572894354
0.157000000000000001,130.929181802829901926
0.158000000000000002,128.221142635781120589
0.159000000000000002,125.580974461068947789
0.160000000000000003,123.022170070226735561
0.161000000000000004,120.547710745110180142
0.162000000000000005,118.153336273000235224
0.163000000000000006,115.830815606127771389
0.164000000000000007,113.570583920997734140
0.165000000000000008,111.363566190941440937
0.166000000000000009,109.202238485213953822
0.167000000000000010,107.081077252288395130
0.168000000000000010,104.996571821807606284
0.169000000000000011,102.946962224390702545
0.170000000000000012,100.931834727621946968
0.171000000000000013,98.951673509260061223
0.172000000000000014,97.007435111683008699
0.173000000000000015,95.100185682810860044
0.174000000000000016,93.230820384616535534
0.175000000000000017,91.399869495688292886
0.176000000000000018,89.607385864679159226
0.177000000000000018,87.852902510287293580
0.178000000000000019,86.135446337509890213
0.179000000000000020,84.453593279523758497
0.180000000000000021,82.805550954934133756
0.181000000000000022,81.189256579192274899
0.182000000000000023,79.602479956520483029
0.183000000000000024,78.042923596991073509
0.184000000000000025,76.508314145067629397
0.185000000000000026,74.996481242124090727
0.186000000000000026,73.505421606574131488
0.187000000000000027,72.033347474345887917
0.188000000000000028,70.578719601907124570
0.189000000000000029,69.140265815137141203
0.190000000000000030,67.716986622207144819
0.191000000000000031,66.308149734571827594
0.192000000000000032,64.913275495565059714
0.193000000000000033,63.532115237687094123
0.194000000000000034,62.164624510952123160
0.195000000000000034,60.810932974943874285
0.196000000000000035,59.471312551297032201
0.197000000000000036,58.146145211498847516
0.198000000000000037,56.835891543278009408
0.199000000000000038,55.541061009721261144
0.200000000000000039,54.262184597615203074
0.201000000000000040,52.999790351532759303
0.202000000000000041,51.754382111744106965
0.203000000000000042,50.526421619147342312
0.204000000000000042,49.316314019663096246
0.205000000000000043,48.124396693417502036
0.206000000000000044,46.950931249262978895
0.207000000000000045,45.796098460953700737
0.208000000000000046,44.659995875470528404
0.209000000000000047,43.542637794292510023
0.210000000000000048,42.443957312517191838
0.211000000000000049,41.363810096376916192
0.212000000000000050,40.301979584739996199
0.213000000000000050,39.258183312656591113
0.214000000000000051,38.232080073126752495
0.215000000000000052,37.223277655464734437
0.216000000000000053,36.231340923548202682
0.217000000000000054,35.255800023714755298
0.218000000000000055,34.296158539140421340
0.219000000000000056,33.351901434421833414
0.220000000000000057,32.422502660158208698
0.221000000000000058,31.507432312125807528
0.222000000000000058,30.606163262789625179
0.223000000000000059,29.718177204179522022
0.224000000000000060,28.842970060409509614
0.225000000000000061,27.980056745273952146
0.226000000000000062,27.128975255401051925
0.227000000000000063,26.289290102423841233
0.228000000000000064,25.460595098620732557
0.229000000000000065,24.642515519590070028
0.230000000000000066,23.834709674886717323
0.231000000000000066,23.036869923303541441
0.232000000000000067,22.248723173780796003
0.233000000000000068,21.470030915921604731
0.234000000000000069,20.700588825937195736
0.235000000000000070,19.940225994687416744
0.236000000000000071,19.188803824463882108
0.237000000000000072,18.446214640415721675
0.238000000000000073,17.712380061168666145
0.239000000000000073,16.987249171350118360
0.240000000000000074,16.270796536506811236
0.241000000000000075,15.563020098386502355
0.242000000000000076,14.863938985828735184
0.243000000000000077,14.173591273646323430
0.244000000000000078,13.492031718943811924
0.245000000000000079,12.819329501362464185
0.246000000000000080,12.155565990813537169
0.247000000000000081,11.500832563395539054
0.248000000000000081,10.855228483423092101
0.249000000000000082,10.218858866846494138
0.250000000000000111,9.591832738831657323
0.251000000000000112,8.974261195915323341
0.252000000000000113,8.366255680957070950
0.253000000000000114,7.767926377088729240
0.254000000000000115,7.179380725008738473
0.255000000000000115,6.600722066291135448
0.256000000000000116,6.032048413868095871
0.257000000000000117,5.473451349499527829
0.258000000000000118,4.925015046858179701
0.259000000000000119,4.386815417823729746
0.260000000000000120,3.858919378689441793
0.261000000000000121,3.341384232230714790
0.262000000000000122,2.834257160955903743
0.263000000000000123,2.337574826349076318
0.264000000000000123,1.851363068510086807
0.265000000000000124,1.375636700292320214
0.266000000000000125,0.910399389821972216
0.267000000000000126,0.455643625146783138
0.268000000000000127,0.011350754697099142
0.269000000000000128,-0.422508902758235105
0.270000000000000129,-0.845975884924612287
0.271000000000000130,-1.259101355723918791
0.272000000000000131,-1.661946823982415111
0.273000000000000131,-2.054583816901662807
0.274000000000000132,-2.437093513940898681
0.275000000000000133,-2.809566346507422541
0.276000000000000134,-3.172101568600448562
0.277000000000000135,-3.524806803287579449
0.278000000000000136,-3.867797569618235620
0.279000000000000137,-4.201196794294904002
0.280000000000000138,-4.525134312136792403
0.281000000000000139,-4.839746359083918925
0.282000000000000139,-5.145175061203713263
0.283000000000000140,-5.441567922881255015
0.284000000000000141,-5.729077317098007605
0.285000000000000142,-6.007859980435735103
0.286000000000000143,-6.278076515182130279
0.287000000000000144,-6.539890900663962725
0.288000000000000145,-6.793470015694428987
0.289000000000000146,-7.038983173791299564
0.290000000000000147,-7.276601672606389570
0.291000000000000147,-7.506498358800510751
0.292000000000000148,-7.728847209405600438
0.293000000000000149,-7.943822930533838367
0.294000000000000150,-8.151600574125218657
0.295000000000000151,-8.352355173267659083
0.296000000000000152,-8.546261396478751493
0.297000000000000153,-8.733493221204472690
0.298000000000000154,-8.914223626667858724
0.299000000000000155,-9.088624306088908256
0.300000000000000155,-9.256865398195929018
0.301000000000000156,-9.419115237857013767
0.302000000000000157,-9.575540125579141915
0.303000000000000158,-9.726304115549316620
0.304000000000000159,-9.871568821828274665
0.305000000000000160,-10.011493242251310321
0.306000000000000161,-10.146233599542316739
0.307000000000000162,-10.275943199105949333
0.308000000000000163,-10.400772302927988378
0.309000000000000163,-10.520868018985579440
0.310000000000000164,-10.636374205546299976
0.311000000000000165,-10.747431389717233330
0.312000000000000166,-10.854176699592780864
0.313000000000000167,-10.956743809341498164
0.314000000000000168,-11.055262896567935371
0.315000000000000169,-11.149860611284925227
0.316000000000000170,-11.240660055834565512
0.317000000000000171,-11.327780775101411237
0.318000000000000171,-11.411338756369888259
0.319000000000000172,-11.491446438188686940
0.320000000000000173,-11.568212727617080304
0.321000000000000174,-11.641743025242858423
0.322000000000000175,-11.712139257377497614
0.323000000000000176,-11.779499914851264464
0.324000000000000177,-11.843920097849485629
0.325000000000000178,-11.905491566250258728
0.326000000000000179,-11.964302794944151387
0.327000000000000179,-12.020439033636503012
0.328000000000000180,-12.073982370654219309
0.329000000000000181,-12.125011800300065090
0.330000000000000182,-12.173603293318338459
0.331000000000000183,-12.219829870057930421
0.332000000000000184,-12.263761675939111484
0.333000000000000185,-12.305466058852115196
0.334000000000000186,-12.345007648136100187
0.335000000000000187,-12.382448434807574955
0.336000000000000187,-12.417847852727721403
0.337000000000000188,-12.451262860417141809
0.338000000000000189,-12.482748023246514890
0.339000000000000190,-12.512355595749649950
0.340000000000000191,-12.540135603823753030
0.341000000000000192,-12.566135926599354633
0.342000000000000193,-12.590402377778957543
0.343000000000000194,-12.612978786260095276
0.344000000000000195,-12.633907075873599624
0.345000000000000195,-12.653227344083614270
0.346000000000000196,-12.670977939509372234
0.347000000000000197,-12.687195538143203777
0.348000000000000198,-12.701915218151805576
0.349000000000000199,-12.715170533160357280
0.350000000000000200,-12.726993583930930498
0.351000000000000201,-12.737415088357622039
0.352000000000000202,-12.746464449711403688
0.353000000000000203,-12.754169823077706525
0.354000000000000203,-12.760558179939053502
0.355000000000000204,-12.765655370863635554
0.356000000000000205,-12.769486186269222827
0.357000000000000206,-12.772074415239451639
0.358000000000000207,-12.773442902376217489
0.359000000000000208,-12.773613602679299461
0.360000000000000209,-12.772607634449899550
0.361000000000000210,-12.770445330220718816
0.362000000000000210,-12.767146285720466281
0.363000000000000211,-12.762729406885439332
0.364000000000000212,-12.757212954935315707
0.365000000000000213,-12.750614589534224663
0.366000000000000214,-12.742951410061895245
0.367000000000000215,-12.734239995023006742
0.368000000000000216,-12.724496439625760047
0.369000000000000217,-12.713736391563347894
0.370000000000000218,-12.701975085034538537
0.371000000000000218,-12.689227373041260805
0.372000000000000219,-12.675507758003341507
0.373000000000000220,-12.660830420731869594
0.374000000000000221,-12.645209247803913755
0.375000000000000222,-12.628657857382487251
0.376000000000000223,-12.611189623526749770
0.377000000000000224,-12.592817699037821555
0.378000000000000225,-12.573555036886231662
0.379000000000000226,-12.553414410267404122
0.380000000000000226,-12.532408431331962362
0.381000000000000227,-12.510549568637129525
0.382000000000000228,-12.487850163366232437
0.383000000000000229,-12.464322444362419873
0.384000000000000230,-12.439978542022732455
0.385000000000000231,-12.414830501098419901
0.386000000000000232,-12.388890292446401276
0.387000000000000233,-12.362169823776801181
0.388000000000000234,-12.334680949440237185
0.389000000000000234,-12.306435479298473368
0.390000000000000235,-12.277445186720544967
0.391000000000000236,-12.247721815746343665
0.392000000000000237,-12.217277087458208840
0.393000000000000238,-12.186122705600563876
0.394000000000000239,-12.154270361486339880
0.395000000000000240,-12.121731738228291420
0.396000000000000241,-12.088518514332051268
0.397000000000000242,-12.054642366686781685
0.398000000000000242,-12.020114972988434232
0.399000000000000243,-11.984948013629297847
0.400000000000000244,-11.949153173086660473
0.401000000000000245,-11.912742140842293992
0.402000000000000246,-11.875726611863370863
0.403000000000000247,-11.838118286674353286
0.404000000000000248,-11.799928871048447121
0.405000000000000249,-11.761170075346035091
0.406000000000000250,-11.721853613526498350
0.407000000000000250,-11.681991201858847873
0.408000000000000251,-11.641594557355507078
0.409000000000000252,-11.600675395952677604
0.410000000000000253,-11.559245430459558435
0.411000000000000254,-11.517316368297940699
0.412000000000000255,-11.474899909052556524
0.413000000000000256,-11.432007741851769822
0.414000000000000257,-11.388651542597125754
0.415000000000000258,-11.344842971059616588
0.416000000000000258,-11.300593667859361702
0.417000000000000259,-11.255915251344795536
0.418000000000000260,-11.210819314386560208
0.419000000000000261,-11.165317421100361628
0.420000000000000262,-11.119421103512463489
0.421000000000000263,-11.073141858180711949
0.422000000000000264,-11.026491142783019228
0.423000000000000265,-10.979480372684815137
0.424000000000000266,-10.932120917496254364
0.425000000000000266,-10.884424097628990324
0.426000000000000267,-10.836401180862120341
0.427000000000000268,-10.788063378926015190
0.428000000000000269,-10.739421844112177595
0.429000000000000270,-10.690487665916872828
0.430000000000000271,-10.641271867725397016
0.431000000000000272,-10.591785403543777733
0.432000000000000273,-10.542039154783699573
0.433000000000000274,-10.492043927106360357
0.434000000000000274,-10.441810447330253098
0.435000000000000275,-10.391349360407563296
0.436000000000000276,-10.340671226473372002
0.437000000000000277,-10.289786517971414526
0.438000000000000278,-10.238705616859913761
0.439000000000000279,-10.187438811900468849
0.440000000000000280,-10.135996296032692143
0.441000000000000281,-10.084388163836965902
0.442000000000000282,-10.032624409087421924
0.443000000000000282,-9.980714922396748179
0.444000000000000283,-9.928669488954451339
0.445000000000000284,-9.876497786359648146
0.446000000000000285,-9.824209382549286218
0.447000000000000286,-9.771813733822721559
0.448000000000000287,-9.719320182962738031
0.449000000000000288,-9.666737957453680252
0.450000000000000289,-9.614076167796406835
0.451000000000000290,-9.561343805920127892
0.452000000000000290,-9.508549743690798195
0.453000000000000291,-9.455702731515490456
0.454000000000000292,-9.402811397042260211
0.455000000000000293,-9.349884243954580398
0.456000000000000294,-9.296929650859606653
0.457000000000000295,-9.243955870269138231
0.458000000000000296,-9.190971027672119931
0.459000000000000297,-9.137983120697574790
0.460000000000000298,-9.085000018366475416
0.461000000000000298,-9.032029460431230561
0.462000000000000299,-8.979079056801271719
0.463000000000000300,-8.926156287053064631
0.464000000000000301,-8.873268500023062444
0.465000000000000302,-8.820422913481801075
0.466000000000000303,-8.767626613887367526
0.467000000000000304,-8.714886556216519864
0.468000000000000305,-8.662209563871568818
0.469000000000000306,-8.609602328661113191
0.470000000000000306,-8.557071410852913118
0.471000000000000307,-8.504623239296646986
0.472000000000000308,-8.452264111614967490
0.473000000000000309,-8.400000194460638170
0.474000000000000310,-8.347837523837899454
0.475000000000000311,-8.295782005486014299
0.476000000000000312,-8.243839415323158448
0.477000000000000313,-8.192015399948434862
0.478000000000000314,-8.140315477200248395
0.479000000000000314,-8.088745036768990815
0.480000000000000315,-8.037309340862005769
0.481000000000000316,-7.986013524919035156
0.482000000000000317,-7.934862598376019704
0.483000000000000318,-7.883861445475527141
0.484000000000000319,-7.833014826121717178
0.485000000000000320,-7.782327376778134465
0.486000000000000321,-7.731803611406346199
0.487000000000000322,-7.681447922443640941
0.488000000000000322,-7.631264581817923442
0.489000000000000323,-7.581257741998148170
0.490000000000000324,-7.531431437078387248
0.491000000000000325,-7.481789583893887041
0.492000000000000326,-7.432335983167389415
0.493000000000000327,-7.383074320684085201
0.494000000000000328,-7.334008168493497237
0.495000000000000329,-7.285140986136798169
0.496000000000000330,-7.236476121897849723
0.497000000000000330,-7.188016814076604533
0.498000000000000331,-7.139766192283156343
0.499000000000000332,-7.091727278751200458
0.500000000000000333,-7.043902989669325265
0.501000000000000334,-6.996296136528721732
0.502000000000000335,-6.948909427486067436
0.503000000000000336,-6.901745468740161371
0.504000000000000337,-6.854806765921058975
0.505000000000000338,-6.808095725490429295
0.506000000000000338,-6.761614656151932579
0.507000000000000339,-6.715365770270426360
0.508000000000000340,-6.669351185298793894
0.509000000000000341,-6.623572925211433926
0.510000000000000342,-6.578032921943117728
0.511000000000000343,-6.532733016832333206
0.512000000000000344,-6.487674962068001427
0.513000000000000345,-6.442860422138632082
0.514000000000000346,-6.398290975282991511
0.515000000000000346,-6.353968114941269896
0.516000000000000347,-6.309893251205951792
0.517000000000000348,-6.266067712271569334
0.518000000000000349,-6.222492745882338916
0.519000000000000350,-6.179169520777142210
0.520000000000000351,-6.136099128130848790
0.521000000000000352,-6.093282582991465191
0.522000000000000353,-6.050720825712231132
0.523000000000000353,-6.008414723378069588
0.524000000000000354,-5.966365071225817829
0.525000000000000355,-5.924572594057457842
0.526000000000000356,-5.883037947645887833
0.527000000000000357,-5.841761720132662816
0.528000000000000358,-5.800744433417048818
0.529000000000000359,-5.759986544536083386
0.530000000000000360,-5.719488447034914991
0.531000000000000361,-5.679250472327190380
0.532000000000000361,-5.639272891044866398
0.533000000000000362,-5.599555914377146948
0.534000000000000363,-5.560099695398086794
0.535000000000000364,-5.520904330382547798
0.536000000000000365,-5.481969860110075032
0.537000000000000366,-5.443296271156476962
0.538000000000000367,-5.404883497172650486
0.539000000000000368,-5.366731420150554044
0.540000000000000369,-5.328839871675830508
0.541000000000000369,-5.291208634167072766
0.542000000000000370,-5.253837442101270128
0.543000000000000371,-5.216725983225375174
0.544000000000000372,-5.179873899753731692
0.545000000000000373,-5.143280789551200272
0.546000000000000374,-5.106946207301752416
0.547000000000000375,-5.070869665662486980
0.548000000000000376,-5.035050636402848667
0.549000000000000377,-4.999488551528981972
0.550000000000000377,-4.964182804393024284
0.551000000000000378,-4.929132750787362127
0.552000000000000379,-4.894337710023688892
0.553000000000000380,-4.859796965996816098
0.554000000000000381,-4.825509768233146701
0.555000000000000382,-4.791475332923883279
0.556000000000000383,-4.757692843942733063
0.557000000000000384,-4.724161453848322090
0.558000000000000385,-4.690880284871084882
0.559000000000000385,-4.657848429884806407
0.560000000000000386,-4.625064953362698184
0.561000000000000387,-4.592528892318091138
0.562000000000000388,-4.560239257229733667
0.563000000000000389,-4.528195032951760624
0.564000000000000390,-4.496395179608340342
0.565000000000000391,-4.464838633473074303
0.566000000000000392,-4.433524307833168976
0.567000000000000393,-4.402451093838532614
0.568000000000000393,-4.371617861335722388
0.569000000000000394,-4.341023459686932817
0.570000000000000395,-4.310666718574114320
0.571000000000000396,-4.280546448788177472
0.572000000000000397,-4.250661443003563633
0.573000000000000398,-4.221010476538115341
0.574000000000000399,-4.191592308098458730
0.575000000000000400,-4.162405680510951278
0.576000000000000401,-4.133449321438300572
0.577000000000000401,-4.104721944082069029
0.578000000000000402,-4.076222247871025495
0.579000000000000403,-4.047948919135579970
0.580000000000000404,-4.019900631768446253
0.581000000000000405,-3.992076047871562228
0.582000000000000406,-3.964473818389500082
0.583000000000000407,-3.937092583729427275
0.584000000000000408,-3.909930974367835432
0.585000000000000409,-3.882987611444117526
0.586000000000000409,-3.856261107341146577
0.587000000000000410,-3.829750066253051699
0.588000000000000411,-3.803453084740251455
0.589000000000000412,-3.777368752272012298
0.590000000000000413,-3.751495651756544536
0.591000000000000414,-3.725832360058910719
0.592000000000000415,-3.700377448506855238
0.593000000000000416,-3.675129483384663498
0.594000000000000417,-3.650087026415265168
0.595000000000000417,-3.625248635230800431
0.596000000000000418,-3.600612863831562205
0.597000000000000419,-3.576178263033842342
0.598000000000000420,-3.551943380906460668
0.599000000000000421,-3.527906763196432927
0.600000000000000422,-3.504066953743756763
0.601000000000000423,-3.480422494885549334
0.602000000000000424,-3.456971927849701309
0.603000000000000425,-3.433713793138153392
0.604000000000000425,-3.410646630900013410
0.605000000000000426,-3.387768981294620119
0.606000000000000427,-3.365079384844809507
0.607000000000000428,-3.342576382780324984
0.608000000000000429,-3.320258517371873275
0.609000000000000430,-3.298124332255574220
