# Au-001-PE_GLUPSCA-AC
# h[nm],U(h)[kJ/mol]
0.149999999999999994,80.117051679668975339
0.150999999999999995,78.150371052435019692
0.151999999999999996,76.518165858048902805
0.152999999999999997,74.972872353556070379
0.153999999999999998,73.423614858225079161
0.154999999999999999,71.853050515746531346
0.156000000000000000,70.272563887195275356
0.157000000000000001,68.699994857966970585
0.158000000000000002,67.150052718383719252
0.159000000000000002,65.631438491850417449
0.160000000000000003,64.147165699900853042
0.161000000000000004,62.696113057670075364
0.162000000000000005,61.274783215647786960
0.163000000000000006,59.878795608248552185
0.164000000000000007,58.503952115873246953
0.165000000000000008,57.146875615092469047
0.166000000000000009,55.805294324754015634
0.167000000000000010,54.478067675168517781
0.168000000000000010,53.165046082079278733
0.169000000000000011,51.866841792764127206
0.170000000000000012,50.584569070989665818
0.171000000000000013,49.319593757457163008
0.172000000000000014,48.073316715628358509
0.173000000000000015,46.847003528578184728
0.174000000000000016,45.641663990940010365
0.175000000000000017,44.457979021116940999
0.176000000000000018,43.296269047746534397
0.177000000000000018,42.156496137431943794
0.178000000000000019,41.038291620767424206
0.179000000000000020,39.941001317034427132
0.180000000000000021,38.863741320234076682
0.181000000000000022,37.805458439188171837
0.182000000000000023,36.764990602950206267
0.183000000000000024,35.741123729000946696
0.184000000000000025,34.732642630702699194
0.185000000000000026,33.738374471560028667
0.186000000000000026,32.757224040871633974
0.187000000000000027,31.788200729010391399
0.188000000000000028,30.830437532180532401
0.189000000000000029,29.883202733550035646
0.190000000000000030,28.945905110458920007
0.191000000000000031,28.018093626827287324
0.192000000000000032,27.099452605859209342
0.193000000000000033,26.189793358735215634
0.194000000000000034,25.289043185969070748
0.195000000000000034,24.397232582744585727
0.196000000000000035,23.514481378672996925
0.197000000000000036,22.640984434568320438
0.198000000000000037,21.776997410537251909
0.199000000000000038,20.922823015671916380
0.200000000000000039,20.078798053192418394
0.201000000000000040,19.245281488073761267
0.202000000000000041,18.422643688118817806
0.203000000000000042,17.611256924473003949
0.204000000000000042,16.811487163536320111
0.205000000000000043,16.023687138547298758
0.206000000000000044,15.248190654957605616
0.207000000000000045,14.485308058103688822
0.208000000000000046,13.735322773551166264
0.209000000000000047,12.998488818765006059
0.210000000000000048,12.275029178402874663
0.211000000000000049,11.565134933561463271
0.212000000000000050,10.868965036825951387
0.213000000000000050,10.186646629184199497
0.214000000000000051,9.518275801058802443
0.215000000000000052,8.863918707282374854
0.216000000000000053,8.223612954280346443
0.217000000000000054,7.597369186611318881
0.218000000000000055,6.985172809006433781
0.219000000000000056,6.386985788880155113
0.220000000000000057,5.802748492747495490
0.221000000000000058,5.232381517935353443
0.222000000000000058,4.675787488307014961
0.223000000000000059,4.132852789375644598
0.224000000000000060,3.603449224126381356
0.225000000000000061,3.087435576096212664
0.226000000000000062,2.584659070789282254
0.227000000000000063,2.094956730362291797
0.228000000000000064,1.618156619741821789
0.229000000000000065,1.154078984978622380
0.230000000000000066,0.702537286759129409
0.231000000000000066,0.263339133632622180
0.232000000000000067,-0.163712879267839562
0.233000000000000068,-0.578820419379987294
0.234000000000000069,-0.982188746572825289
0.235000000000000070,-1.374026116270505415
0.236000000000000071,-1.754543248344078821
0.237000000000000072,-2.123952854403015955
0.238000000000000073,-2.482469216386963051
0.239000000000000073,-2.830307809735789881
0.240000000000000074,-3.167684964875242759
0.241000000000000075,-3.494817561267854700
0.242000000000000076,-3.811922748825601559
0.243000000000000077,-4.119217692043146251
0.244000000000000078,-4.416919332772646811
0.245000000000000079,-4.705244168111993197
0.246000000000000080,-4.984408040407144469
0.247000000000000081,-5.254625936870236380
0.248000000000000081,-5.516111796780795551
0.249000000000000082,-5.769078324665548152
0.250000000000000111,-6.013736808240336629
0.251000000000000112,-6.250296940243582178
0.252000000000000113,-6.478966643596595354
0.253000000000000114,-6.699951899588985960
0.254000000000000115,-6.913456579013771197
0.255000000000000115,-7.119682276363389128
0.256000000000000116,-7.318828147351157831
0.257000000000000117,-7.511090750142741967
0.258000000000000118,-7.696663890772438954
0.259000000000000119,-7.875738473283062646
0.260000000000000120,-8.048502355167856948
0.261000000000000121,-8.215140208711058989
0.262000000000000122,-8.375833388824240444
0.263000000000000123,-8.530759807959418239
0.264000000000000123,-8.680093818651384296
0.265000000000000124,-8.824006104201375322
0.266000000000000125,-8.962663577965923167
0.267000000000000126,-9.096229291658898930
0.268000000000000127,-9.224862353014767535
0.269000000000000128,-9.348717853096909280
0.270000000000000129,-9.467946803469400763
0.271000000000000130,-9.582696083384371732
0.272000000000000131,-9.693108397071167559
0.273000000000000131,-9.799322241149175383
0.274000000000000132,-9.901471882123825452
0.275000000000000133,-9.999687343866254352
0.276000000000000134,-10.094094404921026609
0.277000000000000135,-10.184814605434025836
0.278000000000000136,-10.271965263445164140
0.279000000000000137,-10.355659500246520821
0.280000000000000138,-10.436006274467555244
0.281000000000000139,-10.513110424514669816
0.282000000000000139,-10.587072718962096118
0.283000000000000140,-10.657989914465852976
0.284000000000000141,-10.725954820751248064
0.285000000000000142,-10.791056372207629366
0.286000000000000143,-10.853379705611287065
0.287000000000000144,-10.913006243488384328
0.288000000000000145,-10.970013782624876697
0.289000000000000146,-11.024476587227955093
0.290000000000000147,-11.076465486245513858
0.291000000000000147,-11.126047974353740599
0.292000000000000148,-11.173288316130452813
0.293000000000000149,-11.218247652940432246
0.294000000000000150,-11.260984112070946850
0.295000000000000151,-11.301552917668734821
0.296000000000000152,-11.340006503044753217
0.297000000000000153,-11.376394623929432015
0.298000000000000154,-11.410764472278808412
0.299000000000000155,-11.443160790250537673
0.300000000000000155,-11.473625983988206656
0.301000000000000156,-11.502200236872340611
0.302000000000000157,-11.528921621917179507
0.303000000000000158,-11.553826213012840185
0.304000000000000159,-11.576948194733546416
0.305000000000000160,-11.598319970453406569
0.306000000000000161,-11.617972268532039237
0.307000000000000162,-11.635934246352979571
0.308000000000000163,-11.652233592017779529
0.309000000000000163,-11.666896623518764997
0.310000000000000164,-11.679948385232552965
0.311000000000000165,-11.691412741595161862
0.312000000000000166,-11.701312467837798437
0.313000000000000167,-11.709669337679645906
0.314000000000000168,-11.716504207890860556
0.315000000000000169,-11.721837099654884184
0.316000000000000170,-11.725687276674536363
0.317000000000000171,-11.728073319980607536
0.318000000000000171,-11.729013199415485147
0.319000000000000172,-11.728524341777131212
0.320000000000000173,-11.726623695620807197
0.321000000000000174,-11.723327792727186392
0.322000000000000175,-11.718652806255883903
0.323000000000000176,-11.712614605613381968
0.324000000000000177,-11.705228808072927649
0.325000000000000178,-11.696510827192323489
0.326000000000000179,-11.686475918083171877
0.327000000000000179,-11.675139219591491369
0.328000000000000180,-11.662515793456035951
0.329000000000000181,-11.648620660516055381
0.330000000000000182,-11.633468834044734308
0.331000000000000183,-11.617075350289209013
0.332000000000000184,-11.599455296301272256
0.333000000000000185,-11.580623835146218070
0.334000000000000186,-11.560596228579779421
0.335000000000000187,-11.539387857285138494
0.336000000000000187,-11.517014238763724876
0.337000000000000188,-11.493491042974593341
0.338000000000000189,-11.468834105818080715
0.339000000000000190,-11.443059440559796514
0.340000000000000191,-11.416183247290975444
0.341000000000000192,-11.388221920521271358
0.342000000000000193,-11.359192054999095234
0.343000000000000194,-11.329110449854196574
0.344000000000000195,-11.297994111155706065
0.345000000000000195,-11.265860252977965672
0.346000000000000196,-11.232726297064612453
0.347000000000000197,-11.198609871179881381
0.348000000000000198,-11.163528806234229052
0.349000000000000199,-11.127501132269246753
0.350000000000000200,-11.090545073384886265
0.351000000000000201,-11.052679041689641437
0.352000000000000202,-11.013921630351960701
0.353000000000000203,-10.974291605828943474
0.354000000000000203,-10.933807899345728387
0.355000000000000204,-10.892489597696357606
0.356000000000000205,-10.850355933434590483
0.357000000000000206,-10.807426274520404164
0.358000000000000207,-10.763720113485097940
0.359000000000000208,-10.719257056175688803
0.360000000000000209,-10.674056810136290707
0.361000000000000210,-10.628139172681773772
0.362000000000000210,-10.581524018716262248
0.363000000000000211,-10.534231288346555644
0.364000000000000212,-10.486280974337940819
0.365000000000000213,-10.437693109457359952
0.366000000000000214,-10.388487753746449727
0.367000000000000215,-10.338684981764560078
0.368000000000000216,-10.288304869839386413
0.369000000000000217,-10.237367483360705123
0.370000000000000218,-10.185892864150257964
0.371000000000000218,-10.133901017938736544
0.372000000000000219,-10.081411901978619028
0.373000000000000220,-10.028445412819650073
0.374000000000000221,-9.975021374271555885
0.375000000000000222,-9.921159525576758398
0.376000000000000223,-9.866879509814015847
0.377000000000000224,-9.812200862552002079
0.378000000000000225,-9.757143000770174268
0.379000000000000226,-9.701725212062449089
0.380000000000000226,-9.645966644138008306
0.381000000000000227,-9.589886294631359220
0.382000000000000228,-9.533503001233061269
0.383000000000000229,-9.476835432150453542
0.384000000000000230,-9.419902076906829791
0.385000000000000231,-9.362721237486113068
0.386000000000000232,-9.305311019828709007
0.387000000000000233,-9.247689325683353445
0.388000000000000234,-9.189873844818441384
0.389000000000000234,-9.131882047595482277
0.390000000000000235,-9.073731177906200429
0.391000000000000236,-9.015438246474074546
0.392000000000000237,-8.957020024520019774
0.393000000000000238,-8.898493037791421756
0.394000000000000239,-8.839873560952664633
0.395000000000000240,-8.781177612334818861
0.396000000000000241,-8.722420949041485017
0.397000000000000242,-8.663619062407008187
0.398000000000000242,-8.604787173803032374
0.399000000000000243,-8.545940230788524161
0.400000000000000244,-8.487092903598153271
0.401000000000000245,-8.428259581963441605
0.402000000000000246,-8.369454372260605624
0.403000000000000247,-8.310691094978752247
0.404000000000000248,-8.251983282501798911
0.405000000000000249,-8.193344177197106504
0.406000000000000250,-8.134786729803598959
0.407000000000000250,-8.076323598112001179
0.408000000000000251,-8.017967145929464579
0.409000000000000252,-7.959729442320906401
0.410000000000000253,-7.901622261119001678
0.411000000000000254,-7.843657080694887540
0.412000000000000255,-7.785845083981357106
0.413000000000000256,-7.728197158740424122
0.414000000000000257,-7.670723898066880153
0.415000000000000258,-7.613435601119699747
0.416000000000000258,-7.556342274072877174
0.417000000000000259,-7.499453631277487986
0.418000000000000260,-7.442779096626672697
0.419000000000000261,-7.386327805115305623
0.420000000000000262,-7.330108604586220267
0.421000000000000263,-7.274130057654832449
0.422000000000000264,-7.218400443804158684
0.423000000000000265,-7.162927761642208679
0.424000000000000266,-7.107719731314088740
0.425000000000000266,-7.052783797060814486
0.426000000000000267,-6.998127129917415701
0.427000000000000268,-6.943756630542742059
0.428000000000000269,-6.889678932173583625
0.429000000000000270,-6.835900403695932326
0.430000000000000271,-6.782427152826206118
0.431000000000000272,-6.729265029395564923
0.432000000000000273,-6.676419628730459799
0.433000000000000274,-6.623896295122838396
0.434000000000000274,-6.571700125383425295
0.435000000000000275,-6.519835972471855534
0.436000000000000276,-6.468308449197472498
0.437000000000000277,-6.417121931984709704
0.438000000000000278,-6.366280564697363253
0.439000000000000279,-6.315788262516017326
0.440000000000000280,-6.265648715863108009
0.441000000000000281,-6.215865394370347019
0.442000000000000282,-6.166441550883360989
0.443000000000000282,-6.117380225498463275
0.444000000000000283,-6.068684249626860705
0.445000000000000284,-6.020356250081555061
0.446000000000000285,-5.972398653182411365
0.447000000000000286,-5.924813688875235407
0.448000000000000287,-5.877603394860451580
0.449000000000000288,-5.830769620727598301
0.450000000000000289,-5.784314032091623758
0.451000000000000290,-5.738238114727392869
0.452000000000000290,-5.692543178698810991
0.453000000000000291,-5.647230362479199073
0.454000000000000292,-5.602300637059678401
0.455000000000000293,-5.557754810042429661
0.456000000000000294,-5.513593529715943298
0.457000000000000295,-5.469817289109405678
0.458000000000000296,-5.426426430023512104
0.459000000000000297,-5.383421147035273080
0.460000000000000298,-5.340801491474266527
0.461000000000000298,-5.298567375368177679
0.462000000000000299,-5.256718575355392886
0.463000000000000300,-5.215254736562627613
0.464000000000000301,-5.174175376445694141
0.465000000000000302,-5.133479888591617524
0.466000000000000303,-5.093167546480343866
0.467000000000000304,-5.053237507204543455
0.468000000000000305,-5.013688815145997069
0.469000000000000306,-4.974520405607179008
0.470000000000000306,-4.935731108396845812
0.471000000000000307,-4.897319651368320592
0.472000000000000308,-4.859284663909550162
0.473000000000000309,-4.821624680383825634
0.474000000000000310,-4.784338143520331599
0.475000000000000311,-4.747423407753657010
0.476000000000000312,-4.710878742511627415
0.477000000000000313,-4.674702335450654722
0.478000000000000314,-4.638892295638156860
0.479000000000000314,-4.603446656681497551
0.480000000000000315,-4.568363379802945268
0.481000000000000316,-4.533640356860403564
0.482000000000000317,-4.499275413313498895
0.483000000000000318,-4.465266311134828747
0.484000000000000319,-4.431610751666189785
0.485000000000000320,-4.398306378419658103
0.486000000000000321,-4.365350779823435445
0.487000000000000322,-4.332741491912458720
0.488000000000000322,-4.300476000963758594
0.489000000000000323,-4.268551746076743925
0.490000000000000324,-4.236966121698420906
0.491000000000000325,-4.205716480093789400
0.492000000000000326,-4.174800133761577214
0.493000000000000327,-4.144214357795604542
0.494000000000000328,-4.113956392192012146
0.495000000000000329,-4.084023444102714784
0.496000000000000330,-4.054412690035391620
0.497000000000000330,-4.025121278000439062
0.498000000000000331,-3.996146329605233749
0.499000000000000332,-3.967484942096229705
0.500000000000000333,-3.939134190349280029
0.501000000000000334,-3.911091128808705353
0.502000000000000335,-3.883352793375610013
0.503000000000000336,-3.855916203246013030
0.504000000000000337,-3.828778362699283289
0.505000000000000338,-3.801936262837513514
0.506000000000000338,-3.775386883276385497
0.507000000000000339,-3.749127193788127865
0.508000000000000340,-3.723154155897206774
0.509000000000000341,-3.697464724429387672
0.510000000000000342,-3.672055849014754791
0.511000000000000343,-3.646924475545421096
0.512000000000000344,-3.622067547588518011
0.513000000000000345,-3.597482007755196776
0.514000000000000346,-3.573164799026298688
0.515000000000000346,-3.549112866035366132
0.516000000000000347,-3.525323156309684069
0.517000000000000348,-3.501792621470137590
0.518000000000000349,-3.478518218390418859
0.519000000000000350,-3.455496910316452563
0.520000000000000351,-3.432725667946660231
0.521000000000000352,-3.410201470473784191
0.522000000000000353,-3.387921306589001258
0.523000000000000353,-3.365882175448997149
0.524000000000000354,-3.344081087606779246
0.525000000000000355,-3.322515065906851639
0.526000000000000356,-3.301181146345521622
0.527000000000000357,-3.280076378897034850
0.528000000000000358,-3.259197828306197753
0.529000000000000359,-3.238542574848254585
0.530000000000000360,-3.218107715056652385
0.531000000000000361,-3.197890362419427035
0.532000000000000361,-3.177887648044870339
0.533000000000000362,-3.158096721297192655
0.534000000000000363,-3.138514750402820574
0.535000000000000364,-3.119138923028025090
0.536000000000000365,-3.099966446828545941
0.537000000000000366,-3.080994549971867613
0.538000000000000367,-3.062220481632771829
0.539000000000000368,-3.043641512462900600
0.540000000000000369,-3.025254935034834780
0.541000000000000369,-3.007058064261457275
0.542000000000000370,-2.989048237791131157
0.543000000000000371,-2.971222816379341491
0.544000000000000372,-2.953579184237433708
0.545000000000000373,-2.936114749359009846
0.546000000000000374,-2.918826943824597286
0.547000000000000375,-2.901713224085164633
0.548000000000000376,-2.884771071225099348
0.549000000000000377,-2.867997991205159636
0.550000000000000377,-2.851391515085986761
0.551000000000000378,-2.834949199232743577
0.552000000000000379,-2.818668625501404179
0.553000000000000380,-2.802547401407236904
0.554000000000000381,-2.786583160275982518
0.555000000000000382,-2.770773561378306660
0.556000000000000383,-2.755116290047934235
0.557000000000000384,-2.739609057784088808
0.558000000000000385,-2.724249602338598031
0.559000000000000385,-2.709035687788262869
0.560000000000000386,-2.693965104592866311
0.561000000000000387,-2.679035669639366457
0.562000000000000388,-2.664245226272661693
0.563000000000000389,-2.649591644313420868
0.564000000000000390,-2.635072820063395049
0.565000000000000391,-2.620686676298641160
0.566000000000000392,-2.606431162251070965
0.567000000000000393,-2.592304253578777917
0.568000000000000393,-2.578303952325467385
0.569000000000000394,-2.564428286869455231
0.570000000000000395,-2.550675311862608652
0.571000000000000396,-2.537043108159547700
0.572000000000000397,-2.523529782737580440
0.573000000000000398,-2.510133468607621765
0.574000000000000399,-2.496852324716548388
0.575000000000000400,-2.483684535841248486
0.576000000000000401,-2.470628312474766997
0.577000000000000401,-2.457681890704856986
0.578000000000000402,-2.444843532085235527
0.579000000000000403,-2.432111523499880246
0.580000000000000404,-2.419484177020687632
0.581000000000000405,-2.406959829758752001
0.582000000000000406,-2.394536843709583085
0.583000000000000407,-2.382213605592549133
0.584000000000000408,-2.369988526684803087
0.585000000000000409,-2.357860042649980947
0.586000000000000409,-2.345826613361921442
0.587000000000000410,-2.333886722723675700
0.588000000000000411,-2.322038878482040936
0.589000000000000412,-2.310281612037880627
0.590000000000000413,-2.298613478252440778
0.591000000000000414,-2.287033055249914959
0.592000000000000415,-2.275538944216484616
0.593000000000000416,-2.264129769196018493
0.594000000000000417,-2.252804176882668319
0.595000000000000417,-2.241560836410598334
0.596000000000000418,-2.230398439140941491
0.597000000000000419,-2.219315698446318486
0.598000000000000420,-2.208311349492980913
0.599000000000000421,-2.197384149020842337
0.600000000000000422,-2.186532875121531827
0.601000000000000423,-2.175756327014659153
0.602000000000000424,-2.165053324822454162
0.603000000000000425,-2.154422709342937559
0.604000000000000425,-2.143863341821780732
0.605000000000000426,-2.133374103722997184
0.606000000000000427,-2.122953896498660065
0.607000000000000428,-2.112601641357665816
0.608000000000000429,-2.102316279033862312
0.609000000000000430,-2.092096769553478453
0.610000000000000431,-2.081942092002153188
0.611000000000000432,-2.071851244291560867
