# Au-001-PE_PHESCA-JS
# h[nm],U(h)[kJ/mol]
0.200000000000000011,69.471253522971409211
0.201000000000000012,69.092400269697350268
0.202000000000000013,67.814547922183919582
0.203000000000000014,66.152429094613751204
0.204000000000000015,64.392238111866831218
0.205000000000000016,62.676536852769388020
0.206000000000000016,61.061653496249107320
0.207000000000000017,59.555586226829731800
0.208000000000000018,58.142276043909006944
0.209000000000000019,56.796504707034422665
0.210000000000000020,55.492476504582477048
0.211000000000000021,54.208256601519373419
0.212000000000000022,52.927587897805651096
0.213000000000000023,51.640134175510432613
0.214000000000000024,50.340855218020394091
0.215000000000000024,49.028975610766366344
0.216000000000000025,47.706837362462437113
0.217000000000000026,46.378807916929822852
0.218000000000000027,45.050334993043129828
0.219000000000000028,43.727187121843435591
0.220000000000000029,42.414885682009597190
0.221000000000000030,41.118314732287366553
0.222000000000000031,39.841484671491876668
0.223000000000000032,38.587421596485071973
0.224000000000000032,37.358153946912423748
0.225000000000000033,36.154770058052328352
0.226000000000000034,34.977523513786358933
0.227000000000000035,33.825966979626059583
0.228000000000000036,32.699099035628847787
0.229000000000000037,31.595512136784968504
0.230000000000000038,30.513533046120489445
0.231000000000000039,29.451349841247512984
0.232000000000000040,28.407121872879478985
0.233000000000000040,27.379070873962870536
0.234000000000000041,26.365552821367021608
0.235000000000000042,25.365111189833747574
0.236000000000000043,24.376512965038124037
0.237000000000000044,23.398769253198025808
0.238000000000000045,22.431142589115996344
0.239000000000000046,21.473143148135900304
0.240000000000000047,20.524516049701226450
0.241000000000000048,19.585221834534618068
0.242000000000000048,18.655412031713822785
0.243000000000000049,17.735401528638544022
0.244000000000000050,16.825639233914586157
0.245000000000000051,15.926678294267812674
0.246000000000000052,15.039146902024793206
0.247000000000000053,14.163720516808785632
0.248000000000000054,13.301096128886674919
0.249000000000000055,12.451969015126485019
0.250000000000000056,11.617012283350655721
0.251000000000000056,10.796859367404966434
0.252000000000000057,9.992089523057320122
0.253000000000000058,9.203216282829661310
0.254000000000000059,8.430678754565940736
0.255000000000000060,7.674835592210740742
0.256000000000000061,6.935961426040843314
0.257000000000000062,6.214245511543571077
0.258000000000000063,5.509792339391053950
0.259000000000000064,4.822623941722889995
0.260000000000000064,4.152683630544891535
0.261000000000000065,3.499840910945773320
0.262000000000000066,2.863897323643024517
0.263000000000000067,2.244592986876448037
0.264000000000000068,1.641613625803545862
0.265000000000000069,1.054597897402083095
0.266000000000000070,0.483144839680402005
0.267000000000000071,-0.073178704908625394
0.268000000000000071,-0.614830821077468004
0.269000000000000072,-1.142287516324502539
0.270000000000000073,-1.656036070266264204
0.271000000000000074,-2.156568809289260980
0.272000000000000075,-2.644377361396193837
0.273000000000000076,-3.119947430852954007
0.274000000000000077,-3.583754118496223384
0.275000000000000078,-4.036257801349512064
0.276000000000000079,-4.477900574498068664
0.277000000000000079,-4.909103248945743125
0.278000000000000080,-5.330262891348781729
0.279000000000000081,-5.741750885015323824
0.280000000000000082,-6.143911486278002876
0.281000000000000083,-6.537060846194347796
0.282000000000000084,-6.921486464400440575
0.283000000000000085,-7.297447039734924701
0.284000000000000086,-7.665172680861028986
0.285000000000000087,-8.024865439441381199
0.286000000000000087,-8.376700128372679188
0.287000000000000088,-8.720825388071038020
0.288000000000000089,-9.057364964731570822
0.289000000000000090,-9.386419165789478214
0.290000000000000091,-9.708066459411535121
0.291000000000000092,-10.022365186684066174
0.292000000000000093,-10.329355357175360908
0.293000000000000094,-10.629060500686646762
0.294000000000000095,-10.921489550219700249
0.295000000000000095,-11.206638733441668165
0.296000000000000096,-11.484493452182752193
0.297000000000000097,-11.755030131732549847
0.298000000000000098,-12.018218023879558842
0.299000000000000099,-12.274020949746791587
0.300000000000000100,-12.522398970496803727
0.301000000000000101,-12.763309975900313020
0.302000000000000102,-12.996711182571951682
0.303000000000000103,-13.222560535371021828
0.304000000000000103,-13.440818007035446158
0.305000000000000104,-13.651446792565426591
0.306000000000000105,-13.854414396195940284
0.307000000000000106,-14.049693609996618093
0.308000000000000107,-14.237263384215788520
0.309000000000000108,-14.417109590445727818
0.310000000000000109,-14.589225679533376123
0.311000000000000110,-14.753613236898335259
0.312000000000000111,-14.910282438556555107
0.313000000000000111,-15.059252411685301709
0.314000000000000112,-15.200551504013228410
0.315000000000000113,-15.334217466682037667
0.316000000000000114,-15.460297555511321121
0.317000000000000115,-15.578848555811077858
0.318000000000000116,-15.689936736034317377
0.319000000000000117,-15.793637735650557730
0.320000000000000118,-15.890036392656028852
0.321000000000000119,-15.979226516124166224
0.322000000000000119,-16.061310609144982209
0.323000000000000120,-16.136399547410558597
0.324000000000000121,-16.204612218580198402
0.325000000000000122,-16.266075127407560785
0.326000000000000123,-16.320921971437858389
0.327000000000000124,-16.369293191889322969
0.328000000000000125,-16.411335504124565432
0.329000000000000126,-16.447201411895264300
0.330000000000000127,-16.477048709313784514
0.331000000000000127,-16.501039974267740718
0.332000000000000128,-16.519342056753167469
0.333000000000000129,-16.532125565359113040
0.334000000000000130,-16.539564354894174869
0.335000000000000131,-16.541835017906073801
0.336000000000000132,-16.539116382607950584
0.337000000000000133,-16.531589019494315806
0.338000000000000134,-16.519434758703958721
0.339000000000000135,-16.502836219968500586
0.340000000000000135,-16.481976356775465575
0.341000000000000136,-16.457038016172162997
0.342000000000000137,-16.428203515444135263
0.343000000000000138,-16.395654236718357311
0.344000000000000139,-16.359570240367574456
0.345000000000000140,-16.320129897928499219
0.346000000000000141,-16.277509545092183174
0.347000000000000142,-16.231883155181527911
0.348000000000000143,-16.183422033396450246
0.349000000000000143,-16.132294531983244923
0.350000000000000144,-16.078665786369885637
0.351000000000000145,-16.022697472203951463
0.352000000000000146,-15.964547583133697373
0.353000000000000147,-15.904370229085481370
0.354000000000000148,-15.842315454712254663
0.355000000000000149,-15.778529077616932241
0.356000000000000150,-15.713152545891954759
0.357000000000000151,-15.646322814461104400
0.358000000000000151,-15.578172239661085996
0.359000000000000152,-15.508828491459246024
0.360000000000000153,-15.438414482668232353
0.361000000000000154,-15.367048314489327510
0.362000000000000155,-15.294843237692157700
0.363000000000000156,-15.221907628720051875
0.364000000000000157,-15.148344979996371862
0.365000000000000158,-15.074253903697840684
0.366000000000000159,-14.999728148255519145
0.367000000000000159,-14.924856626842501583
0.368000000000000160,-14.849723457109542224
0.369000000000000161,-14.774408011434434940
0.370000000000000162,-14.698984976959106774
0.371000000000000163,-14.623524424698803870
0.372000000000000164,-14.548091887019918289
0.373000000000000165,-14.472748442798385682
0.374000000000000166,-14.397550809586324050
0.375000000000000167,-14.322551442132951394
0.376000000000000167,-14.247798636625040203
0.377000000000000168,-14.173336640032477618
0.378000000000000169,-14.099205763965917626
0.379000000000000170,-14.025442502475812034
0.380000000000000171,-13.952079653244430446
0.381000000000000172,-13.879146441646181387
0.382000000000000173,-13.806668647174458187
0.383000000000000174,-13.734668731757585292
0.384000000000000175,-13.663165969509515563
0.385000000000000175,-13.592176577485153288
0.386000000000000176,-13.521713847033623779
0.387000000000000177,-13.451788275365931469
0.388000000000000178,-13.382407696977082878
0.389000000000000179,-13.313577414584830905
0.390000000000000180,-13.245300329269994677
0.391000000000000181,-13.177577069524820885
0.392000000000000182,-13.110406118937342868
0.393000000000000183,-13.043783942260196440
0.394000000000000183,-12.977705109632642788
0.395000000000000184,-12.912162418744060233
0.396000000000000185,-12.847147014745715410
0.397000000000000186,-12.782648507736215748
0.398000000000000187,-12.718655087663069736
0.399000000000000188,-12.655153636499962388
0.400000000000000189,-12.592129837575026130
0.401000000000000190,-12.529568281941084962
0.402000000000000191,-12.467452571693296903
0.403000000000000191,-12.405765420153594292
0.404000000000000192,-12.344488748854629989
0.405000000000000193,-12.283603781268412902
0.406000000000000194,-12.223091133236678729
0.407000000000000195,-12.162930900071383888
0.408000000000000196,-12.103102740303963714
0.409000000000000197,-12.043585956072146104
0.410000000000000198,-11.984359570142320450
0.411000000000000199,-11.925402399573920675
0.412000000000000199,-11.866693126040589235
0.413000000000000200,-11.808210362830234175
0.414000000000000201,-11.749932718553043998
0.415000000000000202,-11.691838857592781409
0.416000000000000203,-11.633907557342872963
0.417000000000000204,-11.576117762273714362
0.418000000000000205,-11.518448634882878068
0.419000000000000206,-11.460879603584197994
0.420000000000000207,-11.403390407595534128
0.421000000000000207,-11.345961138889000708
0.422000000000000208,-11.288572281270031539
0.423000000000000209,-11.231204746655013338
0.424000000000000210,-11.173839908619310535
0.425000000000000211,-11.116459633289540676
0.426000000000000212,-11.059046307656121400
0.427000000000000213,-11.001582865382964371
0.428000000000000214,-10.944052810192980374
0.429000000000000214,-10.886440236908480728
0.430000000000000215,-10.828729850226398668
0.431000000000000216,-10.770906981308794315
0.432000000000000217,-10.712957602268931012
0.433000000000000218,-10.654868338633502134
0.434000000000000219,-10.596626479861310344
0.435000000000000220,-10.538219987998129312
0.436000000000000221,-10.479637504547161697
0.437000000000000222,-10.420868355633569280
0.438000000000000222,-10.361902555540892124
0.439000000000000223,-10.302730808696058062
0.440000000000000224,-10.243344510178660656
0.441000000000000225,-10.183735744828839032
0.442000000000000226,-10.123897285027171122
0.443000000000000227,-10.063822587217972071
0.444000000000000228,-10.003505787246661285
0.445000000000000229,-9.942941694579740641
0.446000000000000230,-9.882125785474638491
0.447000000000000230,-9.821054195165020317
0.448000000000000231,-9.759723709125411872
0.449000000000000232,-9.698131753477202466
0.450000000000000233,-9.636276384596621725
0.451000000000000234,-9.574156277983137286
0.452000000000000235,-9.511770716445274942
0.453000000000000236,-9.449119577658784408
0.454000000000000237,-9.386203321150526691
0.455000000000000238,-9.323022974759354042
0.456000000000000238,-9.259580120623802202
0.457000000000000239,-9.195876880744187076
0.458000000000000240,-9.131915902165392396
0.459000000000000241,-9.067700341824286525
0.460000000000000242,-9.003233851104596397
0.461000000000000243,-8.938520560139629367
0.462000000000000244,-8.873565061902214168
0.463000000000000245,-8.808372396118778980
0.464000000000000246,-8.742948033043614231
0.465000000000000246,-8.677297857127014069
0.466000000000000247,-8.611428150609834020
0.467000000000000248,-8.545345577075199373
0.468000000000000249,-8.479057164986720352
0.469000000000000250,-8.412570291240786702
0.470000000000000251,-8.345892664759400503
0.471000000000000252,-8.279032310148132012
0.472000000000000253,-8.211997551442866694
0.473000000000000254,-8.144796995967160669
0.474000000000000254,-8.077439518321050116
0.475000000000000255,-8.009934244520632518
0.476000000000000256,-7.942290536306662929
0.477000000000000257,-7.874517975639105494
0.478000000000000258,-7.806626349393281039
0.479000000000000259,-7.738625634272414899
0.480000000000000260,-7.670525981950021333
0.481000000000000261,-7.602337704454522616
0.482000000000000262,-7.534071259807683774
0.483000000000000262,-7.465737237927252856
0.484000000000000263,-7.397346346803223227
0.485000000000000264,-7.328909398956476196
0.486000000000000265,-7.260437298187385480
0.487000000000000266,-7.191941026621293531
0.488000000000000267,-7.123431632056940188
0.489000000000000268,-7.054920215623151414
0.490000000000000269,-6.986417919748265426
0.491000000000000270,-6.917935916446289468
0.492000000000000270,-6.849485395922786601
0.493000000000000271,-6.781077555503218335
0.494000000000000272,-6.712723588885550541
0.495000000000000273,-6.644434675718462913
0.496000000000000274,-6.576221971506107877
0.497000000000000275,-6.508096597839501563
0.498000000000000276,-6.440069632954484646
0.499000000000000277,-6.372152102615525671
0.500000000000000222,-6.304354971324196200
0.501000000000000334,-6.236689133850856770
0.502000000000000224,-6.169165407087644937
0.503000000000000336,-6.101794522220306938
0.504000000000000226,-6.034587117216548613
0.505000000000000338,-5.967553729627549153
0.506000000000000227,-5.900704789699847908
0.507000000000000339,-5.834050613793602125
0.508000000000000229,-5.767601398103868071
0.509000000000000341,-5.701367212680449548
0.510000000000000231,-5.635357995742563908
0.511000000000000343,-5.569583548283321583
0.512000000000000233,-5.504053528959921060
0.513000000000000345,-5.438777449264266650
0.514000000000000234,-5.373764668969593927
0.515000000000000346,-5.309024391847390945
0.516000000000000236,-5.244565661650040234
0.517000000000000348,-5.180397358353293846
0.518000000000000238,-5.116528194653675143
0.519000000000000350,-5.052966712714811237
0.520000000000000240,-4.989721281157581068
0.521000000000000352,-4.926800092288115884
0.522000000000000242,-4.864211159558210262
0.523000000000000353,-4.801962315252199964
0.524000000000000243,-4.740061208394829251
0.525000000000000355,-4.678515302874072468
0.526000000000000245,-4.617331875773425409
0.527000000000000357,-4.556518015907566443
0.528000000000000247,-4.496080622555995276
0.529000000000000359,-4.436026404388523581
0.530000000000000249,-4.376361878577220033
0.531000000000000361,-4.317093370088813664
0.532000000000000250,-4.258227011152190045
0.533000000000000362,-4.199768740895020613
0.534000000000000252,-4.141724305144261820
0.535000000000000364,-4.084099256384707388
0.536000000000000254,-4.026898953870418296
0.537000000000000366,-3.970128563883198236
0.538000000000000256,-3.913793060133301971
0.539000000000000368,-3.857897224296479521
0.540000000000000258,-3.802445646682754532
0.541000000000000369,-3.747442727031175647
0.542000000000000259,-3.692892675426075577
0.543000000000000371,-3.638799513329320945
0.544000000000000261,-3.585167074724030734
0.545000000000000373,-3.531999007364696297
0.546000000000000263,-3.479298774129187422
0.547000000000000375,-3.427069654467621795
0.548000000000000265,-3.375314745944125061
0.549000000000000377,-3.324036965866307813
0.550000000000000266,-3.273239052998720755
0.551000000000000378,-3.222923569355519824
0.552000000000000268,-3.173092902068465726
0.553000000000000380,-3.123749265325919566
0.554000000000000270,-3.074894702379065592
0.555000000000000382,-3.026531087611149751
0.556000000000000272,-2.978660128666267504
0.557000000000000384,-2.931283368633585962
0.558000000000000274,-2.884402188283764268
0.559000000000000385,-2.838017808353642923
0.560000000000000275,-2.792131291876130739
0.561000000000000387,-2.746743546551614124
0.562000000000000277,-2.701855327157856923
0.563000000000000389,-2.657467237995084108
0.564000000000000279,-2.613579735363277479
0.565000000000000391,-2.570193130068593401
0.566000000000000281,-2.527307589956104383
0.567000000000000393,-2.484923142465941925
0.568000000000000282,-2.443039677210312455
0.569000000000000394,-2.401656948568448691
0.570000000000000284,-2.360774578297321735
0.571000000000000396,-2.320392058155278381
0.572000000000000286,-2.280508752536571482
0.573000000000000398,-2.241123901114142836
0.574000000000000288,-2.202236621488749879
0.575000000000000400,-2.163845911842071423
0.576000000000000290,-2.125950653591883732
0.577000000000000401,-2.088549614047193081
0.578000000000000291,-2.051641449061554212
0.579000000000000403,-2.015224705682589601
0.580000000000000293,-1.979297824796126593
0.581000000000000405,-1.943859143763035702
0.582000000000000295,-1.908906899047422501
0.583000000000000407,-1.874439228834332782
0.584000000000000297,-1.840454175635742429
0.585000000000000409,-1.806949688883200178
0.586000000000000298,-1.773923627505968215
0.587000000000000410,-1.741373762493142463
0.588000000000000300,-1.709297779438769593
0.589000000000000412,-1.677693281068527664
0.590000000000000302,-1.646557789747089107
0.591000000000000414,-1.615888749964955906
0.592000000000000304,-1.585683530803840169
0.593000000000000416,-1.555939428379562006
0.594000000000000306,-1.526653668261710894
0.595000000000000417,-1.497823407869049106
0.596000000000000307,-1.469445738840007287
0.597000000000000419,-1.441517689377427969
0.598000000000000309,-1.414036226566943721
0.599000000000000421,-1.386998258668224793
0.600000000000000311,-1.360400637378626376
0.601000000000000423,-1.334240160068497882
0.602000000000000313,-1.308513571987852009
0.603000000000000425,-1.283217568443607126
0.604000000000000314,-1.258348796947334369
0.605000000000000426,-1.233903859332695863
0.606000000000000316,-1.209879313842583182
0.607000000000000428,-1.186271677185291695
0.608000000000000318,-1.163077426559711469
0.609000000000000430,-1.140293001649026916
0.610000000000000320,-1.117914806582897214
0.611000000000000432,-1.095939211867723584
0.612000000000000322,-1.074362556285006320
0.613000000000000433,-1.053181148757489138
0.614000000000000323,-1.032391270183099063
0.615000000000000435,-1.011989175236490457
0.616000000000000325,-0.991971094138215825
0.617000000000000437,-0.972333234391397516
0.618000000000000327,-0.953071782485971353
0.619000000000000439,-0.934182905570402289
0.620000000000000329,-0.915662753091021409
0.621000000000000441,-0.897507458398930091
0.622000000000000330,-0.879713140324609233
0.623000000000000442,-0.862275904720252173
0.624000000000000332,-0.845191845970024502
0.625000000000000444,-0.828457048468273727
0.626000000000000334,-0.812067588065906287
0.627000000000000446,-0.796019533485036290
0.628000000000000336,-0.780308947702122335
0.629000000000000448,-0.764931889299728662
0.630000000000000338,-0.749884413787191062
0.631000000000000449,-0.735162574890283471
0.632000000000000339,-0.720762425810245633
0.633000000000000451,-0.706680020452289837
0.634000000000000341,-0.692911414623933686
0.635000000000000453,-0.679452667203346294
0.636000000000000343,-0.666299841278009564
0.637000000000000455,-0.653449005253986637
0.638000000000000345,-0.640896233936069648
0.639000000000000457,-0.628637609579065781
0.640000000000000346,-0.616669222910624204
0.641000000000000458,-0.604987174125795502
0.642000000000000348,-0.593587573853748274
0.643000000000000460,-0.582466544096869043
0.644000000000000350,-0.571620219142681241
0.645000000000000462,-0.561044746448804199
0.646000000000000352,-0.550736287501406574
0.647000000000000464,-0.540691018647373789
0.648000000000000353,-0.530905131900688110
0.649000000000000465,-0.521374835723200869
0.650000000000000355,-0.512096355780326751
0.651000000000000467,-0.503065935671859088
0.652000000000000357,-0.494279837638398056
0.653000000000000469,-0.485734343243653111
0.654000000000000359,-0.477425754033068084
0.655000000000000471,-0.469350392169048114
0.656000000000000361,-0.461504601043249363
0.657000000000000473,-0.453884745866211248
0.658000000000000362,-0.446487214234776553
0.659000000000000474,-0.439308416677591906
