# Au-001-PE_BGLC-JS
# h[nm],U(h)[kJ/mol]
0.200000000000000011,117.917114551381857268
0.201000000000000012,116.726502322529569255
0.202000000000000013,114.886543002729965224
0.203000000000000014,112.787800655353180446
0.204000000000000015,110.644467027903687040
0.205000000000000016,108.560211025136709395
0.206000000000000016,106.572720343163240386
0.207000000000000017,104.683114696572033608
0.208000000000000018,102.874763196216321148
0.209000000000000019,101.124802746105345364
0.210000000000000020,99.410732188535519072
0.211000000000000021,97.713773012531163431
0.212000000000000022,96.020183785221874473
0.213000000000000023,94.321347583810194237
0.214000000000000024,92.613185562854908994
0.215000000000000024,90.895259437695983706
0.216000000000000025,89.169791389314610797
0.217000000000000026,87.440736791300807340
0.218000000000000027,85.712982005480270686
0.219000000000000028,83.991697890186983955
0.220000000000000029,82.281853366635559155
0.221000000000000030,80.587877780924884519
0.222000000000000031,78.913452504102025387
0.223000000000000032,77.261408782276305374
0.224000000000000032,75.633708530226229527
0.225000000000000033,74.031486319217435721
0.226000000000000034,72.455133387740758621
0.227000000000000035,70.904407525793189393
0.228000000000000036,69.378555773446322519
0.229000000000000037,67.876439800405506730
0.230000000000000038,66.396656463138313597
0.231000000000000039,64.937648306888519301
0.232000000000000040,63.497800674268077614
0.233000000000000040,62.075523612127923911
0.234000000000000041,60.669317963464877153
0.235000000000000042,59.277825929843288577
0.236000000000000043,57.899867034405055222
0.237000000000000044,56.534460848154097334
0.238000000000000045,55.180838102579762960
0.239000000000000046,53.838441935897606072
0.240000000000000047,52.506921039938973195
0.241000000000000048,51.186116417218940455
0.242000000000000048,49.876043345728675149
0.243000000000000049,48.576870001212284933
0.244000000000000050,47.288894018078423187
0.245000000000000051,46.012518092364096844
0.246000000000000052,44.748225552245173731
0.247000000000000053,43.496556650013829426
0.248000000000000054,42.258086168826139328
0.249000000000000055,41.033402790871903676
0.250000000000000056,39.823090542679260295
0.251000000000000056,38.627712518797814312
0.252000000000000057,37.447796987116099388
0.253000000000000058,36.283825897019390538
0.254000000000000059,35.136225744547274985
0.255000000000000060,34.005360695481066102
0.256000000000000061,32.891527826532566792
0.257000000000000062,31.794954315105844245
0.258000000000000063,30.715796388040406129
0.259000000000000064,29.654139827930144691
0.260000000000000064,28.610001830735701134
0.261000000000000065,27.583334009247408858
0.262000000000000066,26.574026342391658062
0.263000000000000067,25.581911879411396882
0.264000000000000068,24.606772019699850063
0.265000000000000069,23.648342202753820374
0.266000000000000070,22.706317857679135130
0.267000000000000071,21.780360477358172488
0.268000000000000071,20.870103698316704310
0.269000000000000072,19.975159283118408382
0.270000000000000073,19.095122917467186596
0.271000000000000074,18.229579748873799616
0.272000000000000075,17.378109607563835937
0.273000000000000076,16.540291863145846207
0.274000000000000077,15.715709882336188485
0.275000000000000078,14.903955063706163742
0.276000000000000079,14.104630434962629693
0.277000000000000079,13.317353806701373031
0.278000000000000080,12.541760483918382718
0.279000000000000081,11.777505542864110666
0.280000000000000082,11.024265686143509768
0.281000000000000083,10.281740693357576788
0.282000000000000084,9.549654488125320029
0.283000000000000085,8.827755845087356334
0.284000000000000086,8.115818762547878151
0.285000000000000087,7.413642527837781770
0.286000000000000087,6.721051503343955069
0.287000000000000088,6.037894661522821949
0.288000000000000089,5.364044897162886016
0.289000000000000090,4.699398144743709871
0.290000000000000091,4.043872328017251050
0.291000000000000092,3.397406167960697054
0.292000000000000093,2.759957874071611084
0.293000000000000094,2.131503742636770227
0.294000000000000095,1.512036684147092247
0.295000000000000095,0.901564700486029658
0.296000000000000096,0.300109330921879358
0.297000000000000097,-0.292295915690902575
0.298000000000000098,-0.875607126723257911
0.299000000000000099,-1.449771535429030589
0.300000000000000100,-2.014729041857273195
0.301000000000000101,-2.570413693958145895
0.302000000000000102,-3.116755119288908027
0.303000000000000103,-3.653679899129651965
0.304000000000000103,-4.181112878142373646
0.305000000000000104,-4.698978403953915084
0.306000000000000105,-5.207201492204993620
0.307000000000000106,-5.705708913684036432
0.308000000000000107,-6.194430201155577187
0.309000000000000108,-6.673298574397056093
0.310000000000000109,-7.142251782779524660
0.311000000000000110,-7.601232865464038646
0.312000000000000111,-8.050190829946355819
0.313000000000000111,-8.489081250262499267
0.314000000000000112,-8.917866786678199986
0.315000000000000113,-9.336517629124895024
0.316000000000000114,-9.745011867020263452
0.317000000000000115,-10.143335788425401844
0.318000000000000116,-10.531484111748905974
0.319000000000000117,-10.909460153413252925
0.320000000000000118,-11.277275935056422895
0.321000000000000119,-11.634952233955482725
0.322000000000000119,-11.982518580432088839
0.323000000000000120,-12.320013206037270237
0.324000000000000121,-12.647482946319005492
0.325000000000000122,-12.964983101951890632
0.326000000000000123,-13.272577261959838779
0.327000000000000124,-13.570337092692131620
0.328000000000000125,-13.858342096122928666
0.329000000000000126,-14.136679340938304250
0.330000000000000127,-14.405443169754908794
0.331000000000000127,-14.664734885682875642
0.332000000000000128,-14.914662421305317608
0.333000000000000129,-15.155339992999358856
0.334000000000000130,-15.386887743370289527
0.335000000000000131,-15.609431374415027705
0.336000000000000132,-15.823101773871297127
0.337000000000000133,-16.028034637050545541
0.338000000000000134,-16.224370086293788518
0.339000000000000135,-16.412252290031087654
0.340000000000000135,-16.591829083271878886
0.341000000000000136,-16.763251591200237556
0.342000000000000137,-16.926673857401908663
0.343000000000000138,-17.082252478105779403
0.344000000000000139,-17.230146243684661300
0.345000000000000140,-17.370515788525999312
0.346000000000000141,-17.503523250255977217
0.347000000000000142,-17.629331939178374711
0.348000000000000143,-17.748106018673805551
0.349000000000000143,-17.860010197195084203
0.350000000000000144,-17.965209432391141320
0.351000000000000145,-18.063868647794247835
0.352000000000000146,-18.156152462414578252
0.353000000000000147,-18.242224933500629902
0.354000000000000148,-18.322249312645272568
0.355000000000000149,-18.396387815343857142
0.356000000000000150,-18.464801404043317490
0.357000000000000151,-18.527649584659350523
0.358000000000000151,-18.585090216482157643
0.359000000000000152,-18.637279335339719921
0.360000000000000153,-18.684370989841543320
0.361000000000000154,-18.726517090483337569
0.362000000000000155,-18.763867271356822641
0.363000000000000156,-18.796568764175205501
0.364000000000000157,-18.824766284296231333
0.365000000000000158,-18.848601928400189109
0.366000000000000159,-18.868215083457808845
0.367000000000000159,-18.883742346606073426
0.368000000000000160,-18.895317455534261342
0.369000000000000161,-18.903071228971146667
0.370000000000000162,-18.907131516854665421
0.371000000000000163,-18.907623159759232578
0.372000000000000164,-18.904667957150966373
0.373000000000000165,-18.898384644039442293
0.374000000000000166,-18.888888875594240346
0.375000000000000167,-18.876293219295813941
0.376000000000000167,-18.860707154194081170
0.377000000000000168,-18.842237076852292432
0.378000000000000169,-18.820986313559863845
0.379000000000000170,-18.797055138405283969
0.380000000000000171,-18.770540796808184325
0.381000000000000172,-18.741537534118826613
0.382000000000000173,-18.710136628903281775
0.383000000000000174,-18.676426430543209278
0.384000000000000175,-18.640492400790289906
0.385000000000000175,-18.602417158926925822
0.386000000000000176,-18.562280530197291739
0.387000000000000177,-18.520159597184566280
0.388000000000000178,-18.476128753823598316
0.389000000000000179,-18.430259761750203751
0.390000000000000180,-18.382621808701809840
0.391000000000000181,-18.333281568696737196
0.392000000000000182,-18.282303263732384124
0.393000000000000183,-18.229748726755417465
0.394000000000000183,-18.175677465669728861
0.395000000000000184,-18.120146728160658967
0.396000000000000185,-18.063211567126028712
0.397000000000000186,-18.004924906517032923
0.398000000000000187,-17.945337607403747171
0.399000000000000188,-17.884498534091726185
0.400000000000000189,-17.822454620127494707
0.401000000000000190,-17.759250934041666881
0.402000000000000191,-17.694930744689536084
0.403000000000000191,-17.629535586058757701
0.404000000000000192,-17.563105321424391292
0.405000000000000193,-17.495678206740720384
0.406000000000000194,-17.427290953169070065
0.407000000000000195,-17.357978788649454316
0.408000000000000196,-17.287775518432578536
0.409000000000000197,-17.216713584497068013
0.410000000000000198,-17.144824123784530912
0.411000000000000199,-17.072137025192517967
0.412000000000000199,-16.998680985272834221
0.413000000000000200,-16.924483562589095698
0.414000000000000201,-16.849571230694234458
0.415000000000000202,-16.773969429694400191
0.416000000000000203,-16.697702616371771001
0.417000000000000204,-16.620794312844001439
0.418000000000000205,-16.543267153743233422
0.419000000000000206,-16.465142931902516210
0.420000000000000207,-16.386442642541616976
0.421000000000000207,-16.307186525948978328
0.422000000000000208,-16.227394108659808580
0.423000000000000209,-16.147084243134624870
0.424000000000000210,-16.066275145945422054
0.425000000000000211,-15.984984434479997617
0.426000000000000212,-15.903229162177964895
0.427000000000000213,-15.821025852314216209
0.428000000000000214,-15.738390530348572938
0.429000000000000214,-15.655338754862089701
0.430000000000000215,-15.571885647102646999
0.431000000000000216,-15.488045919164585840
0.432000000000000217,-15.403833900828004744
0.433000000000000218,-15.319263565085625700
0.434000000000000219,-15.234348552385814202
0.435000000000000220,-15.149102193621718726
0.436000000000000221,-15.063537531897413402
0.437000000000000222,-14.977667343102609721
0.438000000000000222,-14.891504155328439296
0.439000000000000223,-14.805060267157177378
0.440000000000000224,-14.718347764859249338
0.441000000000000225,-14.631378538531119915
0.442000000000000226,-14.544164297208315162
0.443000000000000227,-14.456716582987089836
0.444000000000000228,-14.369046784189345445
0.445000000000000229,-14.281166147604517747
0.446000000000000230,-14.193085789842331934
0.447000000000000230,-14.104816707830371669
0.448000000000000231,-14.016369788489708270
0.449000000000000232,-13.927755817621672918
0.450000000000000233,-13.838985488038810345
0.451000000000000234,-13.750069406971956454
0.452000000000000235,-13.661018102785638106
0.453000000000000236,-13.571842031032749887
0.454000000000000237,-13.482551579879702430
0.455000000000000238,-13.393157074931840711
0.456000000000000238,-13.303668783488939553
0.457000000000000239,-13.214096918259610192
0.458000000000000240,-13.124451640562966759
0.459000000000000241,-13.034743063044903266
0.460000000000000242,-12.944981251936198419
0.461000000000000243,-12.855176228878272937
0.462000000000000244,-12.765337972342367223
0.463000000000000245,-12.675476418666381306
0.464000000000000246,-12.585601462733929878
0.465000000000000246,-12.495722958318321361
0.466000000000000247,-12.405850718114191267
0.467000000000000248,-12.315994513478424111
0.468000000000000249,-12.226164073901454543
0.469000000000000250,-12.136369086229041869
0.470000000000000251,-12.046619193654141355
0.471000000000000252,-11.956923994497483221
0.472000000000000253,-11.867293040795260595
0.473000000000000254,-11.777735836710744977
0.474000000000000254,-11.688261836786992376
0.475000000000000255,-11.598880444056149486
0.476000000000000256,-11.509601008020869273
0.477000000000000257,-11.420432822522366578
0.478000000000000258,-11.331385123508908919
0.479000000000000259,-11.242467086718203717
0.480000000000000260,-11.153687825286230151
0.481000000000000261,-11.065056387294454510
0.482000000000000262,-10.976581753267023345
0.483000000000000262,-10.888272833628706238
0.484000000000000263,-10.800138466133672566
0.485000000000000264,-10.712187413275154668
0.486000000000000265,-10.624428359684783274
0.487000000000000266,-10.536869909530450329
0.488000000000000267,-10.449520583920740791
0.489000000000000268,-10.362388818323593043
0.490000000000000269,-10.275482960006224076
0.491000000000000270,-10.188811265503172621
0.492000000000000270,-10.102381898118450110
0.493000000000000271,-10.016202925467826645
0.494000000000000272,-9.930282317066488673
0.495000000000000273,-9.844627941966979989
0.496000000000000274,-9.759247566452213363
0.497000000000000275,-9.674148851787551351
0.498000000000000276,-9.589339352035890940
0.499000000000000277,-9.504826511939302947
0.500000000000000222,-9.420617664870251318
0.501000000000000334,-9.336720030855403252
0.502000000000000224,-9.253140714674538359
0.503000000000000336,-9.169886704036667169
0.504000000000000226,-9.086964867835671811
0.505000000000000338,-9.004381954486740725
0.506000000000000227,-8.922144590345579829
0.507000000000000339,-8.840259278211110683
0.508000000000000229,-8.758732395913142454
0.509000000000000341,-8.677570194985287699
0.510000000000000231,-8.596778799424336981
0.511000000000000343,-8.516364204535745941
0.512000000000000233,-8.436332275866151420
0.513000000000000345,-8.356688748222255825
0.514000000000000234,-8.277439224776724558
0.515000000000000346,-8.198589176259883260
0.516000000000000236,-8.120143940237721125
0.517000000000000348,-8.042108720474825390
0.518000000000000238,-7.964488586382218571
0.519000000000000350,-7.887288472548664053
0.520000000000000240,-7.810513178355073194
0.521000000000000352,-7.734167367670570670
0.522000000000000242,-7.658255568629384058
0.523000000000000353,-7.582782173487061073
0.524000000000000243,-7.507751438555031243
0.525000000000000355,-7.433167484211855580
0.526000000000000245,-7.359034294990019376
0.527000000000000357,-7.285355719736398505
0.528000000000000247,-7.212135471845300572
0.529000000000000359,-7.139377129562016755
0.530000000000000249,-7.067084136355616053
0.531000000000000361,-6.995259801358990615
0.532000000000000250,-6.923907299874727528
0.533000000000000362,-6.853029673944699418
0.534000000000000252,-6.782629832981948326
0.535000000000000364,-6.712710554462735679
0.536000000000000254,-6.643274484677301750
0.537000000000000366,-6.574324139536990685
0.538000000000000256,-6.505861905436544745
0.539000000000000368,-6.437890040168999128
0.540000000000000258,-6.370410673892061837
0.541000000000000369,-6.303425810143345132
0.542000000000000259,-6.236937326903378320
0.543000000000000371,-6.170946977703851033
0.544000000000000261,-6.105456392779748498
0.545000000000000373,-6.040467080263235644
0.546000000000000263,-5.975980427417742824
0.547000000000000375,-5.911997701909990965
0.548000000000000265,-5.848520053118879680
0.549000000000000377,-5.785548513478609323
0.550000000000000266,-5.723083999855068882
0.551000000000000378,-5.661127314953177780
0.552000000000000268,-5.599679148753830660
0.553000000000000380,-5.538740079978524911
0.554000000000000270,-5.478310577580250751
0.555000000000000382,-5.418391002258664102
0.556000000000000272,-5.358981607998392960
0.557000000000000384,-5.300082543628366061
0.558000000000000274,-5.241693854401169972
0.559000000000000385,-5.183815483590358042
0.560000000000000275,-5.126447274104748431
0.561000000000000387,-5.069588970117802518
0.562000000000000277,-5.013240218710969920
0.563000000000000389,-4.957400571529412936
0.564000000000000279,-4.902069486448893620
0.565000000000000391,-4.847246329252323349
0.566000000000000281,-4.792930375314869096
0.567000000000000393,-4.739120811296134050
0.568000000000000282,-4.685816736838466667
0.569000000000000394,-4.633017166269806530
0.570000000000000284,-4.580721030310353825
0.571000000000000396,-4.528927177781493896
0.572000000000000286,-4.477634377316294767
0.573000000000000398,-4.426841319070062397
0.574000000000000288,-4.376546616430363912
0.575000000000000400,-4.326748807725178558
0.576000000000000290,-4.277446357928428533
0.577000000000000401,-4.228637660361771466
0.578000000000000291,-4.180321038391947575
0.579000000000000403,-4.132494747122587242
0.580000000000000293,-4.085156975079899944
0.581000000000000405,-4.038305845891097867
0.582000000000000295,-3.991939419955191859
0.583000000000000407,-3.946055696104961985
0.584000000000000297,-3.900652613259773638
0.585000000000000409,-3.855728052068244871
0.586000000000000298,-3.811279836540376387
0.587000000000000410,-3.767305735668209365
0.588000000000000300,-3.723803465034746463
0.589000000000000412,-3.680770688410189617
0.590000000000000302,-3.638205019335276624
0.591000000000000414,-3.596104022690982394
0.592000000000000304,-3.554465216254184323
0.593000000000000416,-3.513286072238710034
0.594000000000000306,-3.472564018821520992
0.595000000000000417,-3.432296441653337915
0.596000000000000307,-3.392480685353568504
0.597000000000000419,-3.353114054988953541
0.598000000000000309,-3.314193817535756814
0.599000000000000421,-3.275717203324950422
0.600000000000000311,-3.237681407470366590
0.601000000000000423,-3.200083591279200057
0.602000000000000313,-3.162920883644949832
0.603000000000000425,-3.126190382422143976
0.604000000000000314,-3.089889155783093866
0.605000000000000426,-3.054014243555957187
0.606000000000000316,-3.018562658544395205
0.607000000000000428,-2.983531387828248782
0.608000000000000318,-2.948917394045420526
0.609000000000000430,-2.914717616654502130
0.610000000000000320,-2.880928973178346286
0.611000000000000432,-2.847548360428151959
0.612000000000000322,-2.814572655708277971
0.613000000000000433,-2.781998718001457149
0.614000000000000323,-2.749823389134521179
0.615000000000000435,-2.718043494924491377
0.616000000000000325,-2.686655846305054940
0.617000000000000437,-2.655657240433344501
0.618000000000000327,-2.625044461777131133
0.619000000000000439,-2.594814283182239389
0.620000000000000329,-2.564963466920416657
0.621000000000000441,-2.535488765717534232
0.622000000000000330,-2.506386923762218721
0.623000000000000442,-2.477654677694919094
0.624000000000000332,-2.449288757577544384
0.625000000000000444,-2.421285887843644957
0.626000000000000334,-2.393642788229299434
0.627000000000000446,-2.366356174684705937
0.628000000000000336,-2.339422760266666401
0.629000000000000448,-2.312839256011975486
0.630000000000000338,-2.286602371791922828
0.631000000000000449,-2.260708817147895733
0.632000000000000339,-2.235155302108347897
0.633000000000000451,-2.209938537987148788
0.634000000000000341,-2.185055238163541524
0.635000000000000453,-2.160502118843774078
0.636000000000000343,-2.136275899804616962
0.637000000000000455,-2.112373305118861122
0.638000000000000345,-2.088791063863060238
0.639000000000000457,-2.065525910807496146
0.640000000000000346,-2.042574587088791027
0.641000000000000458,-2.019933840865058894
0.642000000000000348,-1.997600427954047131
0.643000000000000460,-1.975571112454197475
0.644000000000000350,-1.953842667349039219
0.645000000000000462,-1.932411875094899090
0.646000000000000352,-1.911275528192304396
0.647000000000000464,-1.890430429741072560
0.648000000000000353,-1.869873393979544884
0.649000000000000465,-1.849601246807833332
0.650000000000000355,-1.829610826295634540
0.651000000000000467,-1.809898983174494047
0.652000000000000357,-1.790462581314984813
0.653000000000000469,-1.771298498188802473
0.654000000000000359,-1.752403625316155900
0.655000000000000471,-1.733774868698491955
0.656000000000000361,-1.715409149236959419
0.657000000000000473,-1.697303403136598998
0.658000000000000362,-1.679454582296695975
0.659000000000000474,-1.661859654687317889
