# Au-001-PE_CS-5993-AC
# h[nm],U(h)[kJ/mol]
0.200000000000000011,59.771642613990749737
0.201000000000000012,59.422671571933733503
0.202000000000000013,58.314425693239989812
0.203000000000000014,56.879365103384181168
0.204000000000000015,55.357416419223284265
0.205000000000000016,53.867901242516062155
0.206000000000000016,52.458021493841251015
0.207000000000000017,51.134768239375077314
0.208000000000000018,49.885270678174734371
0.209000000000000019,48.689218904585274572
0.210000000000000020,47.525965908670464444
0.211000000000000021,46.378154847425641094
0.212000000000000022,45.233160791516283439
0.213000000000000023,44.083231345307879678
0.214000000000000024,42.924919182494548409
0.215000000000000024,41.758192330883240118
0.216000000000000025,40.585462801577918412
0.217000000000000026,39.410674183800225023
0.218000000000000027,38.238521595667158692
0.219000000000000028,37.073833563272351910
0.220000000000000029,35.921118089341412372
0.221000000000000030,34.784259296335505951
0.222000000000000031,33.666342895635565924
0.223000000000000032,32.569585686787135614
0.224000000000000032,31.495344440673022746
0.225000000000000033,30.444181548482543320
0.226000000000000034,29.415967821693335793
0.227000000000000035,28.410006206496337455
0.228000000000000036,27.425163545349484195
0.229000000000000037,26.460000647828614717
0.230000000000000038,25.512893697851481534
0.231000000000000039,24.582142371526838787
0.232000000000000040,23.666061962956117526
0.233000000000000040,22.763058336932999737
0.234000000000000041,21.871685686841072283
0.235000000000000042,20.990687920299091473
0.236000000000000043,20.119025073639640766
0.237000000000000044,19.255886517086036491
0.238000000000000045,18.400692899813464010
0.239000000000000046,17.553088837416005674
0.240000000000000047,16.712928297789886756
0.241000000000000048,15.880254523893773566
0.242000000000000048,15.055276166981576225
0.243000000000000049,14.238341110815406765
0.244000000000000050,13.429909261048811331
0.245000000000000051,12.630525365846846597
0.246000000000000052,11.840792732318362823
0.247000000000000053,11.061348514397799647
0.248000000000000054,10.292841075334303369
0.249000000000000055,9.535909774203208400
0.250000000000000056,8.791167391866718361
0.251000000000000056,8.059185297636107137
0.252000000000000057,7.340481362880855620
0.253000000000000058,6.635510550851405398
0.254000000000000059,5.944658051561226841
0.255000000000000060,5.268234785054136005
0.256000000000000061,4.606475064014746934
0.257000000000000062,3.959536185709586764
0.258000000000000063,3.327499711968379792
0.259000000000000064,2.710374192716268560
0.260000000000000064,2.108099091955196069
0.261000000000000065,1.520549683710045841
0.262000000000000066,0.947542698087366020
0.263000000000000067,0.388842513179300131
0.264000000000000068,-0.155832293844001601
0.265000000000000069,-0.686802204259269411
0.266000000000000070,-1.204419972305061926
0.267000000000000071,-1.709063925589573874
0.268000000000000071,-2.201131461221312868
0.269000000000000072,-2.681032829161712261
0.270000000000000073,-3.149185276968736069
0.271000000000000074,-3.606007613959449909
0.272000000000000075,-4.051915237995399544
0.273000000000000076,-4.487315654660510411
0.274000000000000077,-4.912604506590941611
0.275000000000000078,-5.328162120125493395
0.276000000000000079,-5.734350567241959240
0.277000000000000079,-6.131511232878220419
0.278000000000000080,-6.519962871132834792
0.279000000000000081,-6.900000128421433843
0.280000000000000082,-7.271892507337954115
0.281000000000000083,-7.635883741642565781
0.282000000000000084,-7.992191550371819275
0.283000000000000085,-8.341007737446222592
0.284000000000000086,-8.682498602242260333
0.285000000000000087,-9.016805626306119592
0.286000000000000087,-9.344046401632596144
0.287000000000000088,-9.664315766629938409
0.288000000000000089,-9.977687116966245995
0.289000000000000090,-10.284213859875539043
0.290000000000000091,-10.583930982127251141
0.291000000000000092,-10.876856703676615723
0.292000000000000093,-11.162994190961679664
0.293000000000000094,-11.442333305851745351
0.294000000000000095,-11.714852368341299282
0.295000000000000095,-11.980519913189571213
0.296000000000000096,-12.239296422797433905
0.297000000000000097,-12.491136020667603646
0.298000000000000098,-12.735988111788532962
0.299000000000000099,-12.973798958201422593
0.300000000000000100,-13.204513179838698989
0.301000000000000101,-13.428075172452693664
0.302000000000000102,-13.644430436074504343
0.303000000000000103,-13.853526808954265803
0.304000000000000103,-14.055315603327446894
0.305000000000000104,-14.249752640630294565
0.306000000000000105,-14.436799184949279606
0.307000000000000106,-14.616422774536331985
0.308000000000000107,-14.788597952157669368
0.309000000000000108,-14.953306895871492088
0.310000000000000109,-15.110539952554464804
0.311000000000000110,-15.260296077122209368
0.312000000000000111,-15.402583180922860606
0.313000000000000111,-15.537418393227573787
0.314000000000000112,-15.664828240106810853
0.315000000000000113,-15.784848745269965065
0.316000000000000114,-15.897525457665954818
0.317000000000000115,-16.002913410798356608
0.318000000000000116,-16.101077018807917085
0.319000000000000117,-16.192089914421952557
0.320000000000000118,-16.276034733870680782
0.321000000000000119,-16.353002853830204799
0.322000000000000119,-16.423094085374522422
0.323000000000000120,-16.486416329810712256
0.324000000000000121,-16.543085201136129569
0.325000000000000122,-16.593223619697347715
0.326000000000000123,-16.636961381453321707
0.327000000000000124,-16.674434707051503324
0.328000000000000125,-16.705785774720006032
0.329000000000000126,-16.731162240763602256
0.330000000000000127,-16.750716751229195012
0.331000000000000127,-16.764606448080336065
0.332000000000000128,-16.772992472991667512
0.333000000000000129,-16.776039471645681544
0.334000000000000130,-16.773915101186894105
0.335000000000000131,-16.766789543264827955
0.336000000000000132,-16.754835024876946648
0.337000000000000133,-16.738225349008960308
0.338000000000000134,-16.717135436861848774
0.339000000000000135,-16.691740883254375660
0.340000000000000135,-16.662217526597324024
0.341000000000000136,-16.628741034651305597
0.342000000000000137,-16.591486507104537651
0.343000000000000138,-16.550628095840558274
0.344000000000000139,-16.506338643608906125
0.345000000000000140,-16.458789341663884187
0.346000000000000141,-16.408149406798486325
0.347000000000000142,-16.354585778071307089
0.348000000000000143,-16.298262833405182448
0.349000000000000143,-16.239342126125116295
0.350000000000000144,-16.177982141402139860
0.351000000000000145,-16.114338072476265040
0.352000000000000146,-16.048561616447649669
0.353000000000000147,-15.980800789348473145
0.354000000000000148,-15.911199760139435710
0.355000000000000149,-15.839898703213881603
0.356000000000000150,-15.767033668938273294
0.357000000000000151,-15.692736471710736268
0.358000000000000151,-15.617134594978423934
0.359000000000000152,-15.540351112619612550
0.360000000000000153,-15.462504626067465452
0.361000000000000154,-15.383709216528441033
0.362000000000000155,-15.304074411629480679
0.363000000000000156,-15.223705165813896656
0.364000000000000157,-15.142701853795907496
0.365000000000000158,-15.061160276377714595
0.366000000000000159,-14.979171677930551709
0.367000000000000159,-14.896822774842135573
0.368000000000000160,-14.814195794236749038
0.369000000000000161,-14.731368522280970268
0.370000000000000162,-14.648414361396911332
0.371000000000000163,-14.565402395716532169
0.372000000000000164,-14.482397464123394570
0.373000000000000165,-14.399460240243618259
0.374000000000000166,-14.316647318764063712
0.375000000000000167,-14.234011307473540597
0.376000000000000167,-14.151600924441975593
0.377000000000000168,-14.069461099772079038
0.378000000000000169,-13.987633081378680444
0.379000000000000170,-13.906154544272306239
0.380000000000000171,-13.825059702844907150
0.381000000000000172,-13.744379425678033613
0.382000000000000173,-13.664141352415493103
0.383000000000000174,-13.584370012265363670
0.384000000000000175,-13.505086943718026760
0.385000000000000175,-13.426310815089362194
0.386000000000000176,-13.348057545520310541
0.387000000000000177,-13.270340426085377672
0.388000000000000178,-13.193170240684699124
0.389000000000000179,-13.116555386414649575
0.390000000000000180,-13.040501993133142733
0.391000000000000181,-12.965014041955550184
0.392000000000000182,-12.890093482436949301
0.393000000000000183,-12.815740348215332034
0.394000000000000183,-12.741952870908919593
0.395000000000000184,-12.668727592078663946
0.396000000000000185,-12.596059473084025626
0.397000000000000186,-12.523942002676887952
0.398000000000000187,-12.452367302194343068
0.399000000000000188,-12.381326228226276598
0.400000000000000189,-12.310808472648378853
0.401000000000000190,-12.240802659925060780
0.402000000000000191,-12.171296441600123472
0.403000000000000191,-12.102276587905562266
0.404000000000000192,-12.033729076430871530
0.405000000000000193,-11.965639177806528082
0.406000000000000194,-11.897991538366088804
0.407000000000000195,-11.830770259761370866
0.408000000000000196,-11.763958975514482219
0.409000000000000197,-11.697540924499648440
0.410000000000000198,-11.631499021355853785
0.411000000000000199,-11.565815923839021906
0.412000000000000199,-11.500474097129810502
0.413000000000000200,-11.435455875119590274
0.414000000000000201,-11.370743518703473995
0.415000000000000202,-11.306319271114707803
0.416000000000000203,-11.242165410340200893
0.417000000000000204,-11.178264298661465759
0.418000000000000205,-11.114598429369632271
0.419000000000000206,-11.051150470707145956
0.420000000000000207,-10.987903307092039995
0.421000000000000207,-10.924840077684152106
0.422000000000000208,-10.861944212354847750
0.423000000000000209,-10.799199465124837971
0.424000000000000210,-10.736589945136293167
0.425000000000000211,-10.674100145227395586
0.426000000000000212,-10.611714968179047247
0.427000000000000213,-10.549419750704419840
0.428000000000000214,-10.487200285253292620
0.429000000000000214,-10.425042839703523967
0.430000000000000215,-10.362934175012696869
0.431000000000000216,-10.300861560903229019
0.432000000000000217,-10.238812789654167190
0.433000000000000218,-10.176776188072933493
0.434000000000000219,-10.114740627719957189
0.435000000000000220,-10.052695533458683386
0.436000000000000221,-9.990630890402833586
0.437000000000000222,-9.928537249332133996
0.438000000000000222,-9.866405730646864214
0.439000000000000223,-9.804228026930637441
0.440000000000000224,-9.741996404189732672
0.441000000000000225,-9.679703701836157137
0.442000000000000226,-9.617343331480517676
0.443000000000000227,-9.554909274599246771
0.444000000000000228,-9.492396079139570730
0.445000000000000229,-9.429798855124108314
0.446000000000000230,-9.367113269315415991
0.447000000000000230,-9.304335538999509936
0.448000000000000231,-9.241462424945629195
0.449000000000000232,-9.178491223597951887
0.450000000000000233,-9.115419758553553464
0.451000000000000234,-9.052246371378995349
0.452000000000000235,-8.988969911816541369
0.453000000000000236,-8.925589727429137810
0.454000000000000237,-8.862105652731887773
0.455000000000000238,-8.798517997855805461
0.456000000000000238,-8.734827536788284164
0.457000000000000239,-8.671035495232805701
0.458000000000000240,-8.607143538129079730
0.459000000000000241,-8.543153756872788662
0.460000000000000242,-8.479068656273041071
0.461000000000000243,-8.414891141283472820
0.462000000000000244,-8.350624503541983046
0.463000000000000245,-8.286272407751875235
0.464000000000000246,-8.221838877936432866
0.465000000000000246,-8.157328283596781304
0.466000000000000247,-8.092745325801883993
0.467000000000000248,-8.028095023237877825
0.468000000000000249,-7.963382698242696733
0.469000000000000250,-7.898613962850456360
0.470000000000000251,-7.833794704868803471
0.471000000000000252,-7.768931074011089954
0.472000000000000253,-7.704029468104147682
0.473000000000000254,-7.639096519390887963
0.474000000000000254,-7.574139080946122426
0.475000000000000255,-7.509164213222521589
0.476000000000000256,-7.444179170742768470
0.477000000000000257,-7.379191388952785147
0.478000000000000258,-7.314208471249672883
0.479000000000000259,-7.249238176197399852
0.480000000000000260,-7.184288404941895578
0.481000000000000261,-7.119367188836456251
0.482000000000000262,-7.054482677287462700
0.483000000000000262,-6.989643125829505088
0.484000000000000263,-6.924856884438075788
0.485000000000000264,-6.860132386087384404
0.486000000000000265,-6.795478135559892330
0.487000000000000266,-6.730902698513462568
0.488000000000000267,-6.666414690811388155
0.489000000000000268,-6.602022768119806706
0.490000000000000269,-6.537735615776332665
0.491000000000000270,-6.473561938933249493
0.492000000000000270,-6.409510452977781547
0.493000000000000271,-6.345589874231716720
0.494000000000000272,-6.281808910931827583
0.495000000000000273,-6.218176254492107091
0.496000000000000274,-6.154700571048580926
0.497000000000000275,-6.091390493286566787
0.498000000000000276,-6.028254612550249192
0.499000000000000277,-5.965301471233777519
0.500000000000000222,-5.902539555452752218
0.501000000000000334,-5.839977287994680744
0.502000000000000224,-5.777623021546612669
0.503000000000000336,-5.715485032197686444
0.504000000000000226,-5.653571513214428634
0.505000000000000338,-5.591890569085757434
0.506000000000000227,-5.530450209835126252
0.507000000000000339,-5.469258345596212045
0.508000000000000229,-5.408322781449092176
0.509000000000000341,-5.347651212512924523
0.510000000000000231,-5.287251219291754900
0.511000000000000343,-5.227130263268952248
0.512000000000000233,-5.167295682746632757
0.513000000000000345,-5.107754688925321140
0.514000000000000234,-5.048514362219938434
0.515000000000000346,-4.989581648807012826
0.516000000000000236,-4.930963357399050118
0.517000000000000348,-4.872666156240866187
0.518000000000000238,-4.814696570323476976
0.519000000000000350,-4.757060978810287999
0.520000000000000240,-4.699765612671046533
0.521000000000000352,-4.642816552518267414
0.522000000000000242,-4.586219726641340699
0.523000000000000353,-4.529980909233110253
0.524000000000000243,-4.474105718804041842
0.525000000000000355,-4.418599616778713823
0.526000000000000245,-4.363467906269799634
0.527000000000000357,-4.308715731024165940
0.528000000000000247,-4.254348074536376423
0.529000000000000359,-4.200369759324216190
0.530000000000000249,-4.146785446361508143
0.531000000000000361,-4.093599634662982822
0.532000000000000250,-4.040816661016495281
0.533000000000000362,-3.988440699857387362
0.534000000000000252,-3.936475763280403051
0.535000000000000364,-3.884925701184064994
0.536000000000000254,-3.833794201543030855
0.537000000000000366,-3.783084790803315833
0.538000000000000256,-3.732800834396209133
0.539000000000000368,-3.682945537365754696
0.540000000000000258,-3.633521945105803841
0.541000000000000369,-3.584532944201614502
0.542000000000000259,-3.535981263372152572
0.543000000000000371,-3.487869474508293877
0.544000000000000261,-3.440199993803016554
0.545000000000000373,-3.392975082969189149
0.546000000000000263,-3.346196850541071743
0.547000000000000375,-3.299867253255170052
0.548000000000000265,-3.253988097507016342
0.549000000000000377,-3.208561040879427395
0.550000000000000266,-3.163587593739003889
0.551000000000000378,-3.119069120896774017
0.552000000000000268,-3.075006843329644468
0.553000000000000380,-3.031401839958935973
0.554000000000000270,-2.988255049482753556
0.555000000000000382,-2.945567272258594826
0.556000000000000272,-2.903339172233227572
0.557000000000000384,-2.861571278916281713
0.558000000000000274,-2.820263989394848902
0.559000000000000385,-2.779417570385654734
0.560000000000000275,-2.739032160322260268
0.561000000000000387,-2.699107771474091422
0.562000000000000277,-2.659644292094775597
0.563000000000000389,-2.620641488596914037
0.564000000000000279,-2.582099007750815023
0.565000000000000391,-2.544016378904525588
0.566000000000000281,-2.506393016222824066
0.567000000000000393,-2.469228220942667917
0.568000000000000282,-2.432521183642978535
0.569000000000000394,-2.396270986526284563
0.570000000000000284,-2.360476605710362108
0.571000000000000396,-2.325136913527525273
0.572000000000000286,-2.290250680829826191
0.573000000000000398,-2.255816579297951208
0.574000000000000288,-2.221833183752230045
0.575000000000000400,-2.188298974463762647
0.576000000000000290,-2.155212339464068982
0.577000000000000401,-2.122571576851503661
0.578000000000000291,-2.090374897092968531
0.579000000000000403,-2.058620425319245495
0.580000000000000293,-2.027306203612670110
0.581000000000000405,-1.996430193285537724
0.582000000000000295,-1.965990277148130350
0.583000000000000407,-1.935984261764858827
0.584000000000000297,-1.906409879697494647
0.585000000000000409,-1.877264791734164051
0.586000000000000298,-1.848546589103150284
0.587000000000000410,-1.820252795670280976
0.588000000000000300,-1.792380870119075098
0.589000000000000412,-1.764928208112513941
0.590000000000000302,-1.737892144435702502
0.591000000000000414,-1.711269955118460917
0.592000000000000304,-1.685058859537094333
0.593000000000000416,-1.659256022494522087
0.594000000000000306,-1.633858556278164453
0.595000000000000417,-1.608863522694781167
0.596000000000000307,-1.584267935081743905
0.597000000000000419,-1.560068760294088142
0.598000000000000309,-1.536262920666864762
0.599000000000000421,-1.512847295952190363
0.600000000000000311,-1.489818725230655616
0.601000000000000423,-1.467174008796501949
0.602000000000000313,-1.444909910016377586
0.603000000000000425,-1.423023157161031671
0.604000000000000314,-1.401510445209961819
0.605000000000000426,-1.380368437628360256
0.606000000000000316,-1.359593768116415857
0.607000000000000428,-1.339183042330467810
0.608000000000000318,-1.319132839576030669
0.609000000000000430,-1.299439714472322205
0.610000000000000320,-1.280100198588309590
0.611000000000000432,-1.261110802049989710
0.612000000000000322,-1.242468015118965319
0.613000000000000433,-1.224168309742088567
0.614000000000000323,-1.206208141072249163
0.615000000000000435,-1.188583948960175940
0.616000000000000325,-1.171292159417325784
0.617000000000000437,-1.154329186049796174
0.618000000000000327,-1.137691431463373259
0.619000000000000439,-1.121375288639673728
0.620000000000000329,-1.105377142283551439
0.621000000000000441,-1.089693370141763040
0.622000000000000330,-1.074320344293071994
0.623000000000000442,-1.059254432409832525
0.624000000000000332,-1.044491998991273762
0.625000000000000444,-1.030029406568554240
0.626000000000000334,-1.015863016881802139
0.627000000000000446,-1.001989192029286713
0.628000000000000336,-0.988404295588929060
0.629000000000000448,-0.975104693712318338
0.630000000000000338,-0.962086756191513182
0.631000000000000449,-0.949346857498743590
0.632000000000000339,-0.936881377799357429
0.633000000000000451,-0.924686703938159105
0.634000000000000341,-0.912759230399461274
0.635000000000000453,-0.901095360241047749
0.636000000000000343,-0.889691506002355359
0.637000000000000455,-0.878544090587130455
0.638000000000000345,-0.867649548120848935
0.639000000000000457,-0.857004324783149252
0.640000000000000346,-0.846604879615644235
0.641000000000000458,-0.836447685305320099
0.642000000000000348,-0.826529228943905125
0.643000000000000460,-0.816846012763438600
0.644000000000000350,-0.807394554848441692
0.645000000000000462,-0.798171389824900657
0.646000000000000352,-0.789173069526481918
0.647000000000000464,-0.780396163638202411
0.648000000000000353,-0.771837260317991714
0.649000000000000465,-0.763492966796339934
0.650000000000000355,-0.755359909954498310
0.651000000000000467,-0.747434736881436690
0.652000000000000357,-0.739714115409994655
0.653000000000000469,-0.732194734632474975
0.654000000000000359,-0.724873305396089962
0.655000000000000471,-0.717746560778510956
0.656000000000000361,-0.710811256543948944
0.657000000000000473,-0.704064171580015552
0.658000000000000362,-0.697502108315768754
0.659000000000000474,-0.691121893121217523
0.660000000000000364,-0.684920376688688548
