# Au-001-PE_CS-1113-AC
# h[nm],U(h)[kJ/mol]
0.149999999999999994,133.515991930284002365
0.150999999999999995,131.066318409414861890
0.151999999999999996,128.943407290617500394
0.152999999999999997,126.870862078647093085
0.153999999999999998,124.752380993250909569
0.154999999999999999,122.577119588277426487
0.156000000000000000,120.367548361897746645
0.157000000000000001,118.152880159381851399
0.158000000000000002,115.957285963378168958
0.159000000000000002,113.796186222079569461
0.160000000000000003,111.676561126084834541
0.161000000000000004,109.598927284189329612
0.162000000000000005,107.559697345446352301
0.163000000000000006,105.553290473534460148
0.164000000000000007,103.573742617671385347
0.165000000000000008,101.615775275013987766
0.166000000000000009,99.675385612727254170
0.167000000000000010,97.750062353690324812
0.168000000000000010,95.838738253350115315
0.169000000000000011,93.941578512686788827
0.170000000000000012,92.059685476146540850
0.171000000000000013,90.194779423979184685
0.172000000000000014,88.348896348862552941
0.173000000000000015,86.524127740748781434
0.174000000000000016,84.722415004184853160
0.175000000000000017,82.945402047163625525
0.176000000000000018,81.194343380663369203
0.177000000000000018,79.470061221038847066
0.178000000000000019,77.772943058068307209
0.179000000000000020,76.102970454577942405
0.180000000000000021,74.459770067710607577
0.181000000000000022,72.842678695219291285
0.182000000000000023,71.250815296489037109
0.183000000000000024,69.683154227926792146
0.184000000000000025,68.138595232463615048
0.185000000000000026,66.616026944754182182
0.186000000000000026,65.114381763688399474
0.187000000000000027,63.632680874614344191
0.188000000000000028,62.170068966555092516
0.189000000000000029,60.725838788895508458
0.190000000000000030,59.299446139995140470
0.191000000000000031,57.890516194194333366
0.192000000000000032,56.498842273178546236
0.193000000000000033,55.124378272493416375
0.194000000000000034,53.767225983205172213
0.195000000000000034,52.427618519718592438
0.196000000000000035,51.105900993053239745
0.197000000000000036,49.802509467703501400
0.198000000000000037,48.517949120643521610
0.199000000000000038,47.252772392084395392
0.200000000000000039,46.007557786336832351
0.201000000000000040,44.782889852981547563
0.202000000000000041,43.579340757442459164
0.203000000000000042,42.397453738710041193
0.204000000000000042,41.237728652066365953
0.205000000000000043,40.100609707107658153
0.206000000000000044,38.986475436381290649
0.207000000000000045,37.895630867315581725
0.208000000000000046,36.828301819221302082
0.209000000000000047,35.784631207142787446
0.210000000000000048,34.764677204233827013
0.211000000000000049,33.768413093046753204
0.212000000000000050,32.795728622534149110
0.213000000000000050,31.846432680578704577
0.214000000000000051,30.920257090423440616
0.215000000000000052,30.016861342489324471
0.216000000000000053,29.135838079827284020
0.217000000000000054,28.276719165038418424
0.218000000000000055,27.438982168180917398
0.219000000000000056,26.622057128331920950
0.220000000000000057,25.825333455534501326
0.221000000000000058,25.048166854382941438
0.222000000000000058,24.289886165086155501
0.223000000000000059,23.549800032200995048
0.224000000000000060,22.827203325086472319
0.225000000000000061,22.121383247311204201
0.226000000000000062,21.431625084607080822
0.227000000000000063,20.757217552404256367
0.228000000000000064,20.097457714445884136
0.229000000000000065,19.451655453432405096
0.230000000000000066,18.819137483083103746
0.231000000000000066,18.199250898437885127
0.232000000000000067,17.591366267689643621
0.233000000000000068,16.994880274378317608
0.234000000000000069,16.409217923446174581
0.235000000000000070,15.833834328508368472
0.236000000000000071,15.268216100798122525
0.237000000000000072,14.711882362664534085
0.238000000000000073,14.164385410302767099
0.239000000000000073,13.625311051644407812
0.240000000000000074,13.094278646091604301
0.241000000000000075,12.570940873107876001
0.242000000000000076,12.054983256633979849
0.243000000000000077,11.546123471935427318
0.244000000000000078,11.044110460859084100
0.245000000000000079,10.548723380624943857
0.246000000000000080,10.059770410249594619
0.247000000000000081,9.577087437524877345
0.248000000000000081,9.100536648197010692
0.249000000000000082,8.630005037635180898
0.250000000000000111,8.165402863872040840
0.251000000000000112,7.706662059466005132
0.252000000000000113,7.253734618194283890
0.253000000000000114,6.806590971157932657
0.254000000000000115,6.365218365474459183
0.255000000000000115,5.929619257367693130
0.256000000000000116,5.499809730144031406
0.257000000000000117,5.075817946279127746
0.258000000000000118,4.657682641635605414
0.259000000000000119,4.245451668693221770
0.260000000000000120,3.839180594602787266
0.261000000000000121,3.438931358876198718
0.262000000000000122,3.044770994595747293
0.263000000000000123,2.656770416169699445
0.264000000000000123,2.275003275873718867
0.265000000000000124,1.899544890700618938
0.266000000000000125,1.530471240389945198
0.267000000000000126,1.167858036923286491
0.268000000000000127,0.811779865246549770
0.269000000000000128,0.462309394516150995
0.270000000000000129,0.119516658756413013
0.271000000000000130,-0.216531594541262334
0.272000000000000131,-0.545772489653793880
0.273000000000000131,-0.868147543734591354
0.274000000000000132,-1.183603126051166354
0.275000000000000133,-1.492090857788652913
0.276000000000000134,-1.793567954999142344
0.277000000000000135,-2.087997517386632307
0.278000000000000136,-2.375348765698571007
0.279000000000000137,-2.655597230547849907
0.280000000000000138,-2.928724895517814009
0.281000000000000139,-3.194720297410587495
0.282000000000000139,-3.453578586486119040
0.283000000000000140,-3.705301549510617409
0.284000000000000141,-3.949897598388437903
0.285000000000000142,-4.187381727094704686
0.286000000000000143,-4.417775439557720674
0.287000000000000144,-4.641106651062451682
0.288000000000000145,-4.857409565661844120
0.289000000000000146,-5.066724531990083769
0.290000000000000147,-5.269097879776365900
0.291000000000000147,-5.464581739256386683
0.292000000000000148,-5.653233845576306926
0.293000000000000149,-5.835117330178215767
0.294000000000000150,-6.010300501050698685
0.295000000000000151,-6.178856613621720228
0.296000000000000152,-6.340863633965421187
0.297000000000000153,-6.496403995889943772
0.298000000000000154,-6.645564353370436272
0.299000000000000155,-6.788435329690581277
0.300000000000000155,-6.925111264557449076
0.301000000000000156,-7.055689960358816570
0.302000000000000157,-7.180272428639598914
0.303000000000000158,-7.298962637784329743
0.304000000000000159,-7.411867262806874912
0.305000000000000160,-7.519095438065789949
0.306000000000000161,-7.620758513645098375
0.307000000000000162,-7.716969816065007315
0.308000000000000163,-7.807844413915458581
0.309000000000000163,-7.893498888937787505
0.310000000000000164,-7.974051113015745429
0.311000000000000165,-8.049620031476509396
0.312000000000000166,-8.120325453045746045
0.313000000000000167,-8.186287846747418939
0.314000000000000168,-8.247628145989160942
0.315000000000000169,-8.304467560027633866
0.316000000000000170,-8.356927392965243229
0.317000000000000171,-8.405128870389225071
0.318000000000000171,-8.449192973727305045
0.319000000000000172,-8.489240282360132284
0.320000000000000173,-8.525390823499128246
0.321000000000000174,-8.557763929809906855
0.322000000000000175,-8.586478104735419947
0.323000000000000176,-8.611650895449139753
0.324000000000000177,-8.633398773347423116
0.325000000000000178,-8.651837021970768760
0.326000000000000179,-8.667079632226933228
0.327000000000000179,-8.679239204773292471
0.328000000000000180,-8.688426859402609281
0.329000000000000181,-8.694752151265010554
0.330000000000000182,-8.698322993748236698
0.331000000000000183,-8.699245587830485960
0.332000000000000184,-8.697624357712324894
0.333000000000000185,-8.693561892528634871
0.334000000000000186,-8.687158893936775428
0.335000000000000187,-8.678514129373535724
0.336000000000000187,-8.667724390771068599
0.337000000000000188,-8.654884458520006874
0.338000000000000189,-8.640087070467734165
0.339000000000000190,-8.623422895739427219
0.340000000000000191,-8.604980513170264800
0.341000000000000192,-8.584846394138903491
0.342000000000000193,-8.563104889593864399
0.343000000000000194,-8.539838221067457269
0.344000000000000195,-8.515126475474280809
0.345000000000000195,-8.489047603495464500
0.346000000000000196,-8.461677421352806761
0.347000000000000197,-8.433089615781696580
0.348000000000000198,-8.403355752015654545
0.349000000000000199,-8.372545284600178661
0.350000000000000200,-8.340725570858307236
0.351000000000000201,-8.307961886835281362
0.352000000000000202,-8.274317445554801864
0.353000000000000203,-8.239853417424720661
0.354000000000000203,-8.204628952635207639
0.355000000000000204,-8.168701205397695730
0.356000000000000205,-8.132125359878628501
0.357000000000000206,-8.094954657687166488
0.358000000000000207,-8.057240426781454801
0.359000000000000208,-8.019032111663525697
0.360000000000000209,-7.980377304738302868
0.361000000000000210,-7.941321778717231439
0.362000000000000210,-7.901909519952530658
0.363000000000000211,-7.862182762593116436
0.364000000000000212,-7.822182023458301714
0.365000000000000213,-7.781946137530371566
0.366000000000000214,-7.741512293972038883
0.367000000000000215,-7.700916072579415683
0.368000000000000216,-7.660191480586076018
0.369000000000000217,-7.619370989737878297
0.370000000000000218,-7.578485573563137123
0.371000000000000218,-7.537564744766518388
0.372000000000000219,-7.496636592679593036
0.373000000000000220,-7.455727820704799669
0.374000000000000221,-7.414863783693526500
0.375000000000000222,-7.374068525202676305
0.376000000000000223,-7.333364814578001933
0.377000000000000224,-7.292774183815661893
0.378000000000000225,-7.252316964157047963
0.379000000000000226,-7.212012322375022322
0.380000000000000226,-7.171878296713093626
0.381000000000000227,-7.131931832441566144
0.382000000000000228,-7.092188816998157286
0.383000000000000229,-7.052664114682807295
0.384000000000000230,-7.013371600879287016
0.385000000000000231,-6.974324195778760505
0.386000000000000232,-6.935533897582554452
0.387000000000000233,-6.897011815164096227
0.388000000000000234,-6.858768200171631690
0.389000000000000234,-6.820812478555936309
0.390000000000000235,-6.783153281508695898
0.391000000000000236,-6.745798475799462679
0.392000000000000237,-6.708755193500557823
0.393000000000000238,-6.672029861091223424
0.394000000000000239,-6.635628227933588974
0.395000000000000240,-6.599555394114810625
0.396000000000000241,-6.563815837650890828
0.397000000000000242,-6.528413441049073285
0.398000000000000242,-6.493351517227075931
0.399000000000000243,-6.458632834788256005
0.400000000000000244,-6.424259642653213476
0.401000000000000245,-6.390233694049241464
0.402000000000000246,-6.356556269859760633
0.403000000000000247,-6.323228201337110832
0.404000000000000248,-6.290249892182590230
0.405000000000000249,-6.257621339998573617
0.406000000000000250,-6.225342157118069153
0.407000000000000250,-6.193411590817886392
0.408000000000000251,-6.161828542922028973
0.409000000000000252,-6.130591588802592362
0.410000000000000253,-6.099698995785794331
0.411000000000000254,-6.069148740971376021
0.412000000000000255,-6.038938528473833500
0.413000000000000256,-6.009065806094541884
0.414000000000000257,-5.979527781433818134
0.415000000000000258,-5.950321437452682716
0.416000000000000258,-5.921443547493895565
0.417000000000000259,-5.892890689772433355
0.418000000000000260,-5.864659261345514629
0.419000000000000261,-5.836745491572561839
0.420000000000000262,-5.809145455075578113
0.421000000000000263,-5.781855084210610229
0.422000000000000264,-5.754870181060846690
0.423000000000000265,-5.728186428962196430
0.424000000000000266,-5.701799403572176850
0.425000000000000266,-5.675704583492747979
0.426000000000000267,-5.649897360458082218
0.427000000000000268,-5.624373049097957100
0.428000000000000269,-5.599126896287537569
0.429000000000000270,-5.574154090094322278
0.430000000000000271,-5.549449768332801902
0.431000000000000272,-5.525009026737531137
0.432000000000000273,-5.500826926764973202
0.433000000000000274,-5.476898503034640875
0.434000000000000274,-5.453218770419721473
0.435000000000000275,-5.429782730797399815
0.436000000000000276,-5.406585379468964447
0.437000000000000277,-5.383621711259515941
0.438000000000000278,-5.360886726307154682
0.439000000000000279,-5.338375435551246717
0.440000000000000280,-5.316082865929224965
0.441000000000000281,-5.294004065291258776
0.442000000000000282,-5.272134107042051987
0.443000000000000282,-5.250468094518592643
0.444000000000000283,-5.229001165112907579
0.445000000000000284,-5.207728494148317289
0.446000000000000285,-5.186645298517738922
0.447000000000000286,-5.165746840092488412
0.448000000000000287,-5.145028428909482088
0.449000000000000288,-5.124485426145069411
0.450000000000000289,-5.104113246883116517
0.451000000000000290,-5.083907362685025966
0.452000000000000290,-5.063863303969173835
0.453000000000000291,-5.043976662206928196
0.454000000000000292,-5.024243091942460104
0.455000000000000293,-5.004658312643157636
0.456000000000000294,-4.985218110387427792
0.457000000000000295,-4.965918339396489856
0.458000000000000296,-4.946754923416444072
0.459000000000000297,-4.927723856956967019
0.460000000000000298,-4.908821206392575576
0.461000000000000298,-4.890043110932435155
0.462000000000000299,-4.871385783464353914
0.463000000000000300,-4.852845511278569113
0.464000000000000301,-4.834418656676711556
0.465000000000000302,-4.816101657471180353
0.466000000000000303,-4.797891027379999507
0.467000000000000304,-4.779783356322095500
0.468000000000000305,-4.761775310617769819
0.469000000000000306,-4.743863633098975185
0.470000000000000306,-4.726045143133932314
0.471000000000000307,-4.708316736570315797
0.472000000000000308,-4.690675385601327463
0.473000000000000309,-4.673118138558639778
0.474000000000000310,-4.655642119636143939
0.475000000000000311,-4.638244528548298717
0.476000000000000312,-4.620922640126782888
0.477000000000000313,-4.603673803858908009
0.478000000000000314,-4.586495443371238601
0.479000000000000314,-4.569385055861767242
0.480000000000000315,-4.552340211483697274
0.481000000000000316,-4.535358552684025213
0.482000000000000317,-4.518437793499742838
0.483000000000000318,-4.501575718814592619
0.484000000000000319,-4.484770183579039227
0.485000000000000320,-4.468019111996127002
0.486000000000000321,-4.451320496675720051
0.487000000000000322,-4.434672397759564788
0.488000000000000322,-4.418072942019452221
0.489000000000000323,-4.401520321930822988
0.490000000000000324,-4.385012794723854412
0.491000000000000325,-4.368548681414144319
0.492000000000000326,-4.352126365814908304
0.493000000000000327,-4.335744293532668436
0.494000000000000328,-4.319400970948128915
0.495000000000000329,-4.303094964184075444
0.496000000000000330,-4.286824898061836642
0.497000000000000330,-4.270589455048023453
0.498000000000000331,-4.254387374192883264
0.499000000000000332,-4.238217450061883440
0.500000000000000333,-4.222078531661775713
0.501000000000000334,-4.205969521362466601
0.502000000000000335,-4.189889373815979923
0.503000000000000336,-4.173837094873660725
0.504000000000000337,-4.157811740502744158
0.505000000000000338,-4.141812415703360450
0.506000000000000338,-4.125838273427005376
0.507000000000000339,-4.109888513497407914
0.508000000000000340,-4.093962381534689499
0.509000000000000341,-4.078059167883772318
0.510000000000000342,-4.062178206547686798
0.511000000000000343,-4.046318874126693110
0.512000000000000344,-4.030480588763843741
0.513000000000000345,-4.014662809097686136
0.514000000000000346,-3.998865033222807508
0.515000000000000346,-3.983086797658698774
0.516000000000000347,-3.967327676327576658
0.517000000000000348,-3.951587279541724396
0.518000000000000349,-3.935865253000703667
0.519000000000000350,-3.920161276799036809
0.520000000000000351,-3.904475064444677290
0.521000000000000352,-3.888806361888735630
0.522000000000000353,-3.873154946566743639
0.523000000000000353,-3.857520626451835799
0.524000000000000354,-3.841903239120174618
0.525000000000000355,-3.826302650828819818
0.526000000000000356,-3.810718755606351316
0.527000000000000357,-3.795151474356481369
0.528000000000000358,-3.779600753974797556
0.529000000000000359,-3.764066566478906140
0.530000000000000360,-3.748548908152034009
0.531000000000000361,-3.733047798700334763
0.532000000000000361,-3.717563280423934025
0.533000000000000362,-3.702095417401869870
0.534000000000000363,-3.686644294690982981
0.535000000000000364,-3.671210017538856896
0.536000000000000365,-3.655792710610805241
0.537000000000000366,-3.640392517231023195
0.538000000000000367,-3.625009598637814356
0.539000000000000368,-3.609644133253058218
0.540000000000000369,-3.594296315965713084
0.541000000000000369,-3.578966357429560041
0.542000000000000370,-3.563654483374950388
0.543000000000000371,-3.548360933934665784
0.544000000000000372,-3.533085962983774753
0.545000000000000373,-3.517829837493445577
0.546000000000000374,-3.502592836898619222
0.547000000000000375,-3.487375252479494314
0.548000000000000376,-3.472177386756742923
0.549000000000000377,-3.456999552900323014
0.550000000000000377,-3.441842074151828079
0.551000000000000378,-3.426705283260223833
0.552000000000000379,-3.411589521930911584
0.553000000000000380,-3.396495140287949077
0.554000000000000381,-3.381422496349296036
0.555000000000000382,-3.366371955515047087
0.556000000000000383,-3.351343890068348319
0.557000000000000384,-3.336338678689044990
0.558000000000000385,-3.321356705979748192
0.559000000000000385,-3.306398362004308034
0.560000000000000386,-3.291464041838430887
0.561000000000000387,-3.276554145132378526
0.562000000000000388,-3.261669075685501351
0.563000000000000389,-3.246809241032539095
0.564000000000000390,-3.231975052041436758
0.565000000000000391,-3.217166922522578965
0.566000000000000392,-3.202385268849229583
0.567000000000000393,-3.187630509589061134
0.568000000000000393,-3.172903065146522650
0.569000000000000394,-3.158203357415954038
0.570000000000000395,-3.143531809445264003
0.571000000000000396,-3.128888845109917050
0.572000000000000397,-3.114274888797195384
0.573000000000000398,-3.099690365100425726
0.574000000000000399,-3.085135698523104431
0.575000000000000400,-3.070611313192668668
0.576000000000000401,-3.056117632583769783
0.577000000000000401,-3.041655079250937810
0.578000000000000402,-3.027224074570325829
0.579000000000000403,-3.012825038490481777
0.580000000000000404,-2.998458389291959403
0.581000000000000405,-2.984124543355517467
0.582000000000000406,-2.969823914938849896
0.583000000000000407,-2.955556915961576880
0.584000000000000408,-2.941323955798408551
0.585000000000000409,-2.927125441080257851
0.586000000000000409,-2.912961775503160489
0.587000000000000410,-2.898833359644859442
0.588000000000000411,-2.884740590788824388
0.589000000000000412,-2.870683862755639471
0.590000000000000413,-2.856663565741495603
0.591000000000000414,-2.842680086163717590
0.592000000000000415,-2.828733806513122673
0.593000000000000416,-2.814825105213057732
0.594000000000000417,-2.800954356484950836
0.595000000000000417,-2.787121930220316735
0.596000000000000418,-2.773328191858875247
0.597000000000000419,-2.759573502272874457
0.598000000000000420,-2.745858217657249245
0.599000000000000421,-2.732182689425637356
0.600000000000000422,-2.718547264112013195
0.601000000000000423,-2.704952283277830549
0.602000000000000424,-2.691398083424545895
0.603000000000000425,-2.677884995911376187
0.604000000000000425,-2.664413346878131694
0.605000000000000426,-2.650983457173033742
0.606000000000000427,-2.637595642285389896
0.607000000000000428,-2.624250212282889461
0.608000000000000429,-2.610947471753609861
0.609000000000000430,-2.597687719752333813
0.610000000000000431,-2.584471249751325583
0.611000000000000432,-2.571298349595232402
0.612000000000000433,-2.558169301460107459
0.613000000000000433,-2.545084381816423047
