# Au-001-PE_CS-8733-AC
# h[nm],U(h)[kJ/mol]
0.200000000000000011,69.596744089358168139
0.201000000000000012,69.025036829544546890
0.202000000000000013,67.888337383990602802
0.203000000000000014,66.516765973057331962
0.204000000000000015,65.090088819224050098
0.205000000000000016,63.695043977966250281
0.206000000000000016,62.363653452947119149
0.207000000000000017,61.098174538535474198
0.208000000000000018,59.886800805442781837
0.209000000000000019,58.713074238847561048
0.210000000000000020,57.561119410404181451
0.211000000000000021,56.418185056928095378
0.212000000000000022,55.275522068128566389
0.213000000000000023,54.128296948542654832
0.214000000000000024,52.975003848736015755
0.215000000000000024,51.816671669785179688
0.216000000000000025,50.656046990684174602
0.217000000000000026,49.496854734663642716
0.218000000000000027,48.343186190436000516
0.219000000000000028,47.199030533386029163
0.220000000000000029,46.067945675674387473
0.221000000000000030,44.952852969561220675
0.222000000000000031,43.855934999065830482
0.223000000000000032,42.778614281008536580
0.224000000000000032,41.721591650766349346
0.225000000000000033,40.684925389495568027
0.226000000000000034,39.668135055851401205
0.227000000000000035,38.670317058155262657
0.228000000000000036,37.690261957689720873
0.229000000000000037,36.726566166631215538
0.230000000000000038,35.777733014126411604
0.231000000000000039,34.842260075184668722
0.232000000000000040,33.918711198360391279
0.233000000000000040,33.005772859438081923
0.234000000000000041,32.102295350355419146
0.235000000000000042,31.207319930669918051
0.236000000000000043,30.320093468346577481
0.237000000000000044,29.440072320282119733
0.238000000000000045,28.566917289425088455
0.239000000000000046,27.700481478404043401
0.240000000000000047,26.840792767987625922
0.241000000000000048,25.988032506349366457
0.242000000000000048,25.142511821332082178
0.243000000000000049,24.304646777989354689
0.244000000000000050,23.474933409378415661
0.245000000000000051,22.653923458619161124
0.246000000000000052,21.842201490850964518
0.247000000000000053,21.040363869070208835
0.248000000000000054,20.248999940443518142
0.249000000000000055,19.468675650792313547
0.250000000000000056,18.699919694779424617
0.251000000000000056,17.943212217414423293
0.252000000000000057,17.198976007831021207
0.253000000000000058,16.467570067531884348
0.254000000000000059,15.749285390887399316
0.255000000000000060,15.044342763960681708
0.256000000000000061,14.352892367032955789
0.257000000000000062,13.675014954884863627
0.258000000000000063,13.010724385395480596
0.259000000000000064,12.359971269908911040
0.260000000000000064,11.722647526775123339
0.261000000000000065,11.098591631323326823
0.262000000000000066,10.487594370236079655
0.263000000000000067,9.889404924969435129
0.264000000000000068,9.303737126742230856
0.265000000000000069,8.730275744058520360
0.266000000000000070,8.168682682206705792
0.267000000000000071,7.618602992272701435
0.268000000000000071,7.079670604583799154
0.269000000000000072,6.551513717912858858
0.270000000000000073,6.033759791039341458
0.271000000000000074,5.526040097264017348
0.272000000000000075,5.027993815135799238
0.273000000000000076,4.539271639945472003
0.274000000000000077,4.059538910475010809
0.275000000000000078,3.588478254096332698
0.276000000000000079,3.125791760642809614
0.277000000000000079,2.671202701598295981
0.278000000000000080,2.224456816145409910
0.279000000000000081,1.785323189571034419
0.280000000000000082,1.353594752538670010
0.281000000000000083,0.929088431895110700
0.282000000000000084,0.511644985078537617
0.283000000000000085,0.101128550926562435
0.284000000000000086,-0.302574050167064346
0.285000000000000087,-0.699554234143416553
0.286000000000000087,-1.089882757379577516
0.287000000000000088,-1.473610976274346340
0.288000000000000089,-1.850772232985549381
0.289000000000000090,-2.221383339599329432
0.290000000000000091,-2.585446134790028161
0.291000000000000092,-2.942949088926791301
0.292000000000000093,-3.293868935553937227
0.293000000000000094,-3.638172309181845865
0.294000000000000095,-3.975817371339716910
0.295000000000000095,-4.306755408835464927
0.296000000000000096,-4.630932390115870767
0.297000000000000097,-4.948290467505648493
0.298000000000000098,-5.258769414909804318
0.299000000000000099,-5.562307992279275304
0.300000000000000100,-5.858845229754702899
0.301000000000000101,-6.148321625912962496
0.302000000000000102,-6.430680255938668211
0.303000000000000103,-6.705867786830033594
0.304000000000000103,-6.973835397920256085
0.305000000000000104,-7.234539606057138528
0.306000000000000105,-7.487942995734391260
0.307000000000000106,-7.734014855312326020
0.308000000000000107,-7.972731721207583000
0.309000000000000108,-8.204077832575062956
0.310000000000000109,-8.428045499556670705
0.311000000000000110,-8.644635388634425155
0.312000000000000111,-8.853856729008743542
0.313000000000000111,-9.055727444228168110
0.314000000000000112,-9.250274213534192214
0.315000000000000113,-9.437532467557383953
0.316000000000000114,-9.617546323115943707
0.317000000000000115,-9.790368461929881860
0.318000000000000116,-9.956059958079448435
0.319000000000000117,-10.114690059009816991
0.320000000000000118,-10.266335924820557679
0.321000000000000119,-10.411082330483395708
0.322000000000000119,-10.549021335508106390
0.323000000000000120,-10.680251925430123805
0.324000000000000121,-10.804879629327100332
0.325000000000000122,-10.923016117389170887
0.326000000000000123,-11.034778782372550054
0.327000000000000124,-11.140290308560926391
0.328000000000000125,-11.239678231647200590
0.329000000000000126,-11.333074492731066485
0.330000000000000127,-11.420614989408841566
0.331000000000000127,-11.502439126712200590
0.332000000000000128,-11.578689370433979278
0.333000000000000129,-11.649510805163638238
0.334000000000000130,-11.715050699143152002
0.335000000000000131,-11.775458077848222516
0.336000000000000132,-11.830883307999002341
0.337000000000000133,-11.881477693511852678
0.338000000000000134,-11.927393084718161731
0.339000000000000135,-11.968781501998583039
0.340000000000000135,-12.005794774813059789
0.341000000000000136,-12.038584196946619187
0.342000000000000137,-12.067300198640523945
0.343000000000000138,-12.092092036136785183
0.344000000000000139,-12.113107499031654513
0.345000000000000140,-12.130492635710758975
0.346000000000000141,-12.144391497024111359
0.347000000000000142,-12.154945898254322145
0.348000000000000143,-12.162295199334799634
0.349000000000000143,-12.166576103186525160
0.350000000000000144,-12.167922471962370423
0.351000000000000145,-12.166465160915780785
0.352000000000000146,-12.162331869546406438
0.353000000000000147,-12.155647009618061105
0.354000000000000148,-12.146531589594115275
0.355000000000000149,-12.135103114991778739
0.356000000000000150,-12.121475504119100464
0.357000000000000151,-12.105759018626903512
0.358000000000000151,-12.088060208281500962
0.359000000000000152,-12.068481869342779333
0.360000000000000153,-12.047123015916191946
0.361000000000000154,-12.024078863634642289
0.362000000000000155,-11.999440825018655943
0.363000000000000156,-11.973296515858972811
0.364000000000000157,-11.945729771964593624
0.365000000000000158,-11.916820675622203041
0.366000000000000159,-11.886645591117405374
0.367000000000000159,-11.855277208676401557
0.368000000000000160,-11.822784596196513007
0.369000000000000161,-11.789233258146030181
0.370000000000000162,-11.754685201027651686
0.371000000000000163,-11.719199004815321175
0.372000000000000164,-11.682829899790771577
0.373000000000000165,-11.645629848224340108
0.374000000000000166,-11.607647630363231883
0.375000000000000167,-11.568928934210211068
0.376000000000000167,-11.529516448596170974
0.377000000000000168,-11.489449959070650920
0.378000000000000169,-11.448766446155739018
0.379000000000000170,-11.407500185530201620
0.380000000000000171,-11.365682849732165138
0.381000000000000172,-11.323343610990331598
0.382000000000000173,-11.280509244815069891
0.383000000000000174,-11.237204234002216907
0.384000000000000175,-11.193450872723314404
0.385000000000000175,-11.149269370396762469
0.386000000000000176,-11.104677955055000993
0.387000000000000177,-11.059692975942281734
0.388000000000000178,-11.014329005097675207
0.389000000000000179,-10.968598937696251383
0.390000000000000180,-10.922514090940371290
0.391000000000000181,-10.876084301310331881
0.392000000000000182,-10.829318020001178269
0.393000000000000183,-10.782222406388878966
0.394000000000000183,-10.734803419384984835
0.395000000000000184,-10.687065906554394701
0.396000000000000185,-10.639013690885184005
0.397000000000000186,-10.590649655113665517
0.398000000000000187,-10.541975823521061884
0.399000000000000188,-10.492993441130789023
0.400000000000000189,-10.443703050247444608
0.401000000000000190,-10.394104564289843751
0.402000000000000191,-10.344197338881318871
0.403000000000000191,-10.293980240170299112
0.404000000000000192,-10.243451710364059437
0.405000000000000193,-10.192609830467002752
0.406000000000000194,-10.141452380223427099
0.407000000000000195,-10.089976895272341650
0.408000000000000196,-10.038180721528968675
0.409000000000000197,-9.986061066814389875
0.410000000000000198,-9.933615049760843974
0.411000000000000199,-9.880839746025644743
0.412000000000000199,-9.827732231852099432
0.413000000000000200,-9.774289625020310623
0.414000000000000201,-9.720509123235057558
0.415000000000000202,-9.666388040001654858
0.416000000000000203,-9.611923838044313939
0.417000000000000204,-9.557114160324381658
0.418000000000000205,-9.501956858718543231
0.419000000000000206,-9.446450020419501215
0.420000000000000207,-9.390591992123413334
0.421000000000000207,-9.334381402070372147
0.422000000000000208,-9.277817180005204278
0.423000000000000209,-9.220898575127437269
0.424000000000000210,-9.163625172099699512
0.425000000000000211,-9.105996905184728263
0.426000000000000212,-9.048014070581473334
0.427000000000000213,-8.989677337030835602
0.428000000000000214,-8.930987754761769537
0.429000000000000214,-8.871946762848120116
0.430000000000000215,-8.812556195046157725
0.431000000000000216,-8.752818284182506403
0.432000000000000217,-8.692735665161080760
0.433000000000000218,-8.632311376657220592
0.434000000000000219,-8.571548861566032684
0.435000000000000220,-8.510451966271103785
0.436000000000000221,-8.449024938798441298
0.437000000000000222,-8.387272425919356067
0.438000000000000222,-8.325199469264802588
0.439000000000000223,-8.262811500512114549
0.440000000000000224,-8.200114335703851509
0.441000000000000225,-8.137114168756751198
0.442000000000000226,-8.073817564217630860
0.443000000000000227,-8.010231449320972530
0.444000000000000228,-7.946363105401916371
0.445000000000000229,-7.882220158716309655
0.446000000000000230,-7.817810570717955265
0.447000000000000230,-7.753142627841751455
0.448000000000000231,-7.688224930839366422
0.449000000000000232,-7.623066383712712835
0.450000000000000233,-7.557676182288756372
0.451000000000000234,-7.492063802477382239
0.452000000000000235,-7.426238988252643836
0.453000000000000236,-7.360211739395741581
0.454000000000000237,-7.293992299036825777
0.455000000000000238,-7.227591141030748290
0.456000000000000238,-7.161018957200552038
0.457000000000000239,-7.094286644480751747
0.458000000000000240,-7.027405291991101421
0.459000000000000241,-6.960386168069701895
0.460000000000000242,-6.893240707293299074
0.461000000000000243,-6.825980497510586886
0.462000000000000244,-6.758617266913550914
0.463000000000000245,-6.691162871169725079
0.464000000000000246,-6.623629280637750583
0.465000000000000246,-6.556028567686517761
0.466000000000000247,-6.488372894137389046
0.467000000000000248,-6.420674498847494860
0.468000000000000249,-6.352945685451078184
0.469000000000000250,-6.285198810274425618
0.470000000000000251,-6.217446270439069167
0.471000000000000252,-6.149700492166559229
0.472000000000000253,-6.081973919297372078
0.473000000000000254,-6.014279002035090471
0.474000000000000254,-5.946628185926388532
0.475000000000000255,-5.879033901086105907
0.476000000000000256,-5.811508551675942158
0.477000000000000257,-5.744064505644418617
0.478000000000000258,-5.676714084734733490
0.479000000000000259,-5.609469554766613797
0.480000000000000260,-5.542343116197231190
0.481000000000000261,-5.475346894965587019
0.482000000000000262,-5.408492933624191146
0.483000000000000262,-5.341793182761001013
0.484000000000000263,-5.275259492713997744
0.485000000000000264,-5.208903605580264440
0.486000000000000265,-5.142737147520715979
0.487000000000000266,-5.076771621361124254
0.488000000000000267,-5.011018399489618247
0.489000000000000268,-4.945488717050273486
0.490000000000000269,-4.880193665431923122
0.491000000000000270,-4.815144186051040442
0.492000000000000270,-4.750351064426832970
0.493000000000000271,-4.685824924546680315
0.494000000000000272,-4.621576223519348936
0.495000000000000273,-4.557615246513230467
0.496000000000000274,-4.493952101976626423
0.497000000000000275,-4.430596717136539020
0.498000000000000276,-4.367558833772450022
0.499000000000000277,-4.304848004261154770
0.500000000000000222,-4.242473587888417441
0.501000000000000334,-4.180444747423278429
0.502000000000000224,-4.118770445950348247
0.503000000000000336,-4.057459443955329093
0.504000000000000226,-3.996520296659107352
0.505000000000000338,-3.935961351595043567
0.506000000000000227,-3.875790746424747191
0.507000000000000339,-3.816016406986606491
0.508000000000000229,-3.756646045572142434
0.509000000000000341,-3.697687159424344117
0.510000000000000231,-3.639147029452899140
0.511000000000000343,-3.581032719160251787
0.512000000000000233,-3.523351073773326014
0.513000000000000345,-3.466108719574820363
0.514000000000000234,-3.409312063428847406
0.515000000000000346,-3.352967292494660967
0.516000000000000236,-3.297080374123299684
0.517000000000000348,-3.241657055930972753
0.518000000000000238,-3.186702866043843674
0.519000000000000350,-3.132223113508204815
0.520000000000000240,-3.078222888860648876
0.521000000000000352,-3.024707064852405480
0.522000000000000242,-2.971680297322403241
0.523000000000000353,-2.919147026213322782
0.524000000000000243,-2.867111476725370700
0.525000000000000355,-2.815577660602082588
0.526000000000000245,-2.764549377543040976
0.527000000000000357,-2.714030216737865153
0.528000000000000247,-2.664023558516595447
0.529000000000000359,-2.614532576110922157
0.530000000000000249,-2.565560237521492759
0.531000000000000361,-2.517109307485983383
0.532000000000000250,-2.469182349543289856
0.533000000000000362,-2.421781728188671767
0.534000000000000252,-2.374909611115401553
0.535000000000000364,-2.328567971537953252
0.536000000000000254,-2.282758590592453452
0.537000000000000366,-2.237483059809530772
0.538000000000000256,-2.192742783655615924
0.539000000000000368,-2.148538982137936593
0.540000000000000258,-2.104872693469457268
0.541000000000000369,-2.061744776789204536
0.542000000000000259,-2.019155914934434470
0.543000000000000371,-1.977106617260331545
0.544000000000000261,-1.935597222503728343
0.545000000000000373,-1.894627901686962046
0.546000000000000263,-1.854198661058415798
0.547000000000000375,-1.814309345065982182
0.548000000000000265,-1.774959639360453867
0.549000000000000377,-1.736149073825043798
0.550000000000000266,-1.697877025628263592
0.551000000000000378,-1.660142722296725326
0.552000000000000268,-1.622945244805067855
0.553000000000000380,-1.586283530679922560
0.554000000000000270,-1.550156377115269990
0.555000000000000382,-1.514562444096228422
0.556000000000000272,-1.479500257528917562
0.557000000000000384,-1.444968212373544336
0.558000000000000274,-1.410964575778563823
0.559000000000000385,-1.377487490213255672
0.560000000000000275,-1.344534976596709175
0.561000000000000387,-1.312104937420802475
0.562000000000000277,-1.280195159865231913
0.563000000000000389,-1.248803318902454773
0.564000000000000279,-1.217926980390718894
0.565000000000000391,-1.187563604153207608
0.566000000000000281,-1.157710547041622462
0.567000000000000393,-1.128365065982410043
0.568000000000000282,-1.099524321004146543
0.569000000000000394,-1.071185378244330799
0.570000000000000284,-1.043345212934348343
0.571000000000000396,-1.016000712360973113
0.572000000000000286,-0.989148678803306480
0.573000000000000398,-0.962785832443637135
0.574000000000000288,-0.936908814251261601
0.575000000000000400,-0.911514188837978856
0.576000000000000290,-0.886598447284263735
0.577000000000000401,-0.862158009935066305
0.578000000000000291,-0.838189229164364003
0.579000000000000403,-0.814688392107471571
0.580000000000000293,-0.791651723360421111
0.581000000000000405,-0.769075387645474562
0.582000000000000295,-0.746955492442228808
0.583000000000000407,-0.725288090583473988
0.584000000000000297,-0.704069182815330263
0.585000000000000409,-0.683294720320999138
0.586000000000000298,-0.662960607207691011
0.587000000000000410,-0.643062702956176402
0.588000000000000300,-0.623596824832631791
0.589000000000000412,-0.604558750262278233
0.590000000000000302,-0.585944219164592495
0.591000000000000414,-0.567748936249733327
0.592000000000000304,-0.549968573275902539
0.593000000000000416,-0.532598771267458249
0.594000000000000306,-0.515635142693611992
0.595000000000000417,-0.499073273607490653
0.596000000000000307,-0.482908725745512690
0.597000000000000419,-0.467137038586967868
0.598000000000000309,-0.451753731373784384
0.599000000000000421,-0.436754305090374717
0.600000000000000311,-0.422134244403705949
0.601000000000000423,-0.407889019563485999
0.602000000000000313,-0.394014088262681805
0.603000000000000425,-0.380504897458266544
0.604000000000000314,-0.367356885152564760
0.605000000000000426,-0.354565482135052457
0.606000000000000316,-0.342126113685024935
0.607000000000000428,-0.330034201235119229
0.608000000000000318,-0.318285163996046283
0.609000000000000430,-0.306874420542629145
0.610000000000000320,-0.295797390361497714
0.611000000000000432,-0.285049495360605198
0.612000000000000322,-0.274626161340920549
0.613000000000000433,-0.264522819430524914
0.614000000000000323,-0.254734907481470707
0.615000000000000435,-0.245257871429688468
0.616000000000000325,-0.236087166618296429
0.617000000000000437,-0.227218259084643048
0.618000000000000327,-0.218646626811474121
0.619000000000000439,-0.210367760942539783
0.620000000000000329,-0.202377166963084554
0.621000000000000441,-0.194670365845573123
0.622000000000000330,-0.187242895161056577
0.623000000000000442,-0.180090310156592798
0.624000000000000332,-0.173208184799137410
0.625000000000000444,-0.166592112786333263
0.626000000000000334,-0.160237708524606726
0.627000000000000446,-0.154140608075043206
0.628000000000000336,-0.148296470067441982
0.629000000000000448,-0.142700976583025579
0.630000000000000338,-0.137349834006257665
0.631000000000000449,-0.132238773846193453
0.632000000000000339,-0.127363553527850920
0.633000000000000451,-0.122719957154053289
0.634000000000000341,-0.118303796238203390
0.635000000000000453,-0.114110910408473917
0.636000000000000343,-0.110137168083828077
0.637000000000000455,-0.106378467122433790
0.638000000000000345,-0.102830735442844518
0.639000000000000457,-0.099489931618469224
0.640000000000000346,-0.096352045445803516
0.641000000000000458,-0.093413098486866381
0.642000000000000348,-0.090669144586338374
0.643000000000000460,-0.088116270363850974
0.644000000000000350,-0.085750595681914274
0.645000000000000462,-0.083568274089936695
0.646000000000000352,-0.081565493244805207
0.647000000000000464,-0.079738475308488821
0.648000000000000353,-0.078083477323139722
0.649000000000000465,-0.076596791564129879
0.650000000000000355,-0.075274745871502000
0.651000000000000467,-0.074113703960265134
0.652000000000000357,-0.073110065710015271
0.653000000000000469,-0.072260267434302083
0.654000000000000359,-0.071560782130208542
0.655000000000000471,-0.071008119708555320
0.656000000000000361,-0.070598827205211628
0.657000000000000473,-0.070329488973901871
0.658000000000000362,-0.070196726860970934
0.659000000000000474,-0.070197200362504070
0.660000000000000364,-0.070327606764264139
0.661000000000000476,-0.070584681264820898
