# Au-001-PE_CS-7683-AC
# h[nm],U(h)[kJ/mol]
0.149999999999999994,88.096043489917548186
0.150999999999999995,86.333251082152116851
0.151999999999999996,84.404330359923491756
0.152999999999999997,82.464138111048555402
0.153999999999999998,80.567579846360700913
0.154999999999999999,78.723630203619990198
0.156000000000000000,76.923932493814874078
0.157000000000000001,75.156694696369271469
0.158000000000000002,73.412461592312027392
0.159000000000000002,71.685693305160782529
0.160000000000000003,69.974413644247292154
0.161000000000000004,68.279165823471217323
0.162000000000000005,66.601899627340955590
0.163000000000000006,64.945061182454367099
0.164000000000000007,63.310964661111242435
0.165000000000000008,61.701430138912471079
0.166000000000000009,60.117632533596825795
0.167000000000000010,58.560097611843367815
0.168000000000000010,57.028787071600582692
0.169000000000000011,55.523226741494532632
0.170000000000000012,54.042645080382669676
0.171000000000000013,52.586100971472397703
0.172000000000000014,51.152589300291303687
0.173000000000000015,49.741119805343004145
0.174000000000000016,48.350769425561097137
0.175000000000000017,46.980711243339257521
0.176000000000000018,45.630224577555424048
0.177000000000000018,44.298691226688681866
0.178000000000000019,42.985582642859228031
0.179000000000000020,41.690442205411500254
0.180000000000000021,40.412865959872256383
0.181000000000000022,39.152484336615188454
0.182000000000000023,37.908946556000884698
0.183000000000000024,36.681908717734678760
0.184000000000000025,35.471025988277133933
0.185000000000000026,34.275948848342224551
0.186000000000000026,33.096323036951645236
0.187000000000000027,31.931792615601864327
0.188000000000000028,30.782005458353562943
0.189000000000000029,29.646620432333936179
0.190000000000000030,28.525315550042876112
0.191000000000000031,27.417796433388229360
0.192000000000000032,26.323804515162919415
0.193000000000000033,25.243124504780702466
0.194000000000000034,24.175590752002616313
0.195000000000000034,23.121092247869807323
0.196000000000000035,22.079576100888491652
0.197000000000000036,21.051049415184937885
0.198000000000000037,20.035579573780687213
0.199000000000000038,19.033292993379124169
0.200000000000000039,18.044372467023571005
0.201000000000000040,17.069053248235576348
0.202000000000000041,16.107618055767307652
0.203000000000000042,15.160391193178643476
0.204000000000000042,14.227731983498852486
0.205000000000000043,13.310027717732930697
0.206000000000000044,12.407686308365882155
0.207000000000000045,11.521128826678499024
0.208000000000000046,10.650782086865479670
0.209000000000000047,9.797071421760229271
0.210000000000000048,8.960413775389190150
0.211000000000000049,8.141211217425729174
0.212000000000000050,7.339844964562374230
0.213000000000000050,6.556669974418229963
0.214000000000000051,5.792010159256179236
0.215000000000000052,5.046154249814148507
0.216000000000000053,4.319352324163389767
0.217000000000000054,3.611813002822026331
0.218000000000000055,2.923701299431866296
0.219000000000000056,2.255137106152723891
0.220000000000000057,1.606194284492816537
0.221000000000000058,0.976900325505130618
0.222000000000000058,0.367236538022190917
0.223000000000000059,-0.222861280236446552
0.224000000000000060,-0.793501736410602287
0.225000000000000061,-1.344836350245953049
0.226000000000000062,-1.877057725407021094
0.227000000000000063,-2.390397433482778222
0.228000000000000064,-2.885123658642746225
0.229000000000000065,-3.361538649133366530
0.230000000000000066,-3.819976019550347157
0.231000000000000066,-4.260797945194823022
0.232000000000000067,-4.684392286912258285
0.233000000000000068,-5.091169681714029061
0.234000000000000069,-5.481560631266219730
0.235000000000000070,-5.856012617066630455
0.236000000000000071,-6.214987267874763965
0.237000000000000072,-6.558957601760695866
0.238000000000000073,-6.888405362034111690
0.239000000000000073,-7.203818463337585243
0.240000000000000074,-7.505688561364540767
0.241000000000000075,-7.794508757008157929
0.242000000000000076,-8.070771443278058399
0.243000000000000077,-8.334966301045245274
0.244000000000000078,-8.587578447595952014
0.245000000000000079,-8.829086740092716212
0.246000000000000080,-9.059962234354578925
0.247000000000000081,-9.280666797872822116
0.248000000000000081,-9.491651874666986899
0.249000000000000082,-9.693357398450432427
0.250000000000000111,-9.886210849606399620
0.251000000000000112,-10.070626450662819806
0.252000000000000113,-10.247004494288498577
0.253000000000000114,-10.415730797300245314
0.254000000000000115,-10.577176273763134517
0.255000000000000115,-10.731696619968818851
0.256000000000000116,-10.879632103882183713
0.257000000000000117,-11.021307451541959566
0.258000000000000118,-11.157031822876136928
0.259000000000000119,-11.287098869439613935
0.260000000000000120,-11.411786866689013209
0.261000000000000121,-11.531358913569205171
0.262000000000000122,-11.646063192391451935
0.263000000000000123,-11.756133282224151770
0.264000000000000123,-11.861788519289856225
0.265000000000000124,-11.963234398157737814
0.266000000000000125,-12.060663007835660920
0.267000000000000126,-12.154253497193035827
0.268000000000000127,-12.244172564482637355
0.269000000000000128,-12.330574966070049214
0.270000000000000129,-12.413604039821636960
0.271000000000000130,-12.493392238942156780
0.272000000000000131,-12.570061672388268548
0.273000000000000131,-12.643724648312693049
0.274000000000000132,-12.714484217313209768
0.275000000000000133,-12.782434712569674673
0.276000000000000134,-12.847662284249636855
0.277000000000000135,-12.910245425847083567
0.278000000000000136,-12.970255490390092845
0.279000000000000137,-13.027757194709829847
0.280000000000000138,-13.082809110205090519
0.281000000000000139,-13.135464138764703534
0.282000000000000139,-13.185769972722354737
0.283000000000000140,-13.233769537916874270
0.284000000000000141,-13.279501419114515315
0.285000000000000142,-13.323000267219379467
0.286000000000000143,-13.364297187853935611
0.287000000000000144,-13.403420111033792494
0.288000000000000145,-13.440394141790855898
0.289000000000000146,-13.475241891715715070
0.290000000000000147,-13.507983791496153358
0.291000000000000147,-13.538638384622476707
0.292000000000000148,-13.567222602514572571
0.293000000000000149,-13.593752021399049923
0.294000000000000150,-13.618241101329331855
0.295000000000000151,-13.640703407797364122
0.296000000000000152,-13.661151816432933970
0.297000000000000153,-13.679598701326659338
0.298000000000000154,-13.696056107545530267
0.299000000000000155,-13.710535908436526142
0.300000000000000155,-13.723049948334196557
0.301000000000000156,-13.733610171303419989
0.302000000000000157,-13.742228736558626423
0.303000000000000158,-13.748918121206703091
0.304000000000000159,-13.753691210962438518
0.305000000000000160,-13.756561379483505547
0.306000000000000161,-13.757542556967077729
0.307000000000000162,-13.756649288642112339
0.308000000000000163,-13.753896783781039304
0.309000000000000163,-13.749300955842034710
0.310000000000000164,-13.742878454338626426
0.311000000000000165,-13.734646689017290910
0.312000000000000166,-13.724623846906414570
0.313000000000000167,-13.712828902781506457
0.314000000000000168,-13.699281623572110433
0.315000000000000169,-13.684002567215745927
0.316000000000000170,-13.667013076443955910
0.317000000000000171,-13.648335267964103679
0.318000000000000171,-13.627992017479822806
0.319000000000000172,-13.606006940971587582
0.320000000000000173,-13.582404372637777001
0.321000000000000174,-13.557209339875527121
0.322000000000000175,-13.530447535659851255
0.323000000000000176,-13.502145288659122002
0.324000000000000177,-13.472329531404758640
0.325000000000000178,-13.441027766813425259
0.326000000000000179,-13.408268033340950964
0.327000000000000179,-13.374078869028371841
0.328000000000000180,-13.338489274682647334
0.329000000000000181,-13.301528676417268215
0.330000000000000182,-13.263226887760776407
0.331000000000000183,-13.223614071525725322
0.332000000000000184,-13.182720701614391245
0.333000000000000185,-13.140577524923452657
0.334000000000000186,-13.097215523495105316
0.335000000000000187,-13.052665877049033583
0.336000000000000187,-13.006959926016623541
0.337000000000000188,-12.960129135186708282
0.338000000000000189,-12.912205058060653329
0.339000000000000190,-12.863219302003784605
0.340000000000000191,-12.813203494269611582
0.341000000000000192,-12.762189248964237009
0.342000000000000193,-12.710208135008613795
0.343000000000000194,-12.657291645148500692
0.344000000000000195,-12.603471166053408226
0.345000000000000195,-12.548777949539125842
0.346000000000000196,-12.493243084940953480
0.347000000000000197,-12.436897472658740682
0.348000000000000198,-12.379771798888961953
0.349000000000000199,-12.321896511553321218
0.350000000000000200,-12.263301797428832529
0.351000000000000201,-12.204017560479297089
0.352000000000000202,-12.144073401384225974
0.353000000000000203,-12.083498598257257584
0.354000000000000203,-12.022322088542864549
0.355000000000000204,-11.960572452076668526
0.356000000000000205,-11.898277895292343587
0.357000000000000206,-11.835466236555227226
0.358000000000000207,-11.772164892600610386
0.359000000000000208,-11.708400866052844691
0.360000000000000209,-11.644200733999634068
0.361000000000000210,-11.579590637594254332
0.362000000000000210,-11.514596272657437126
0.363000000000000211,-11.449242881249364956
0.364000000000000212,-11.383555244181556176
0.365000000000000213,-11.317557674437470183
0.366000000000000214,-11.251274011470432157
0.367000000000000215,-11.184727616346767931
0.368000000000000216,-11.117941367702048439
0.369000000000000217,-11.050937658478082071
0.370000000000000218,-10.983738393408291500
0.371000000000000218,-10.916364987219212779
0.372000000000000219,-10.848838363516080108
0.373000000000000220,-10.781178954320715491
0.374000000000000221,-10.713406700230235558
0.375000000000000222,-10.645541051165578139
0.376000000000000223,-10.577600967679337884
0.377000000000000224,-10.509604922792902926
0.378000000000000225,-10.441570904333499215
0.379000000000000226,-10.373516417742301599
0.380000000000000226,-10.305458489325685534
0.381000000000000227,-10.237413669921966886
0.382000000000000228,-10.169398038957179864
0.383000000000000229,-10.101427208863858809
0.384000000000000230,-10.033516329837656400
0.385000000000000231,-9.965680094907463982
0.386000000000000232,-9.897932745295435097
0.387000000000000233,-9.830288076044130463
0.388000000000000234,-9.762759441888706036
0.389000000000000234,-9.695359763353176064
0.390000000000000235,-9.628101533050086758
0.391000000000000236,-9.560996822164275599
0.392000000000000237,-9.494057287101718146
0.393000000000000238,-9.427294176285615279
0.394000000000000239,-9.360718337082351681
0.395000000000000240,-9.294340222840926202
0.396000000000000241,-9.228169900030172457
0.397000000000000242,-9.162217055458613757
0.398000000000000242,-9.096491003562936939
0.399000000000000243,-9.031000693751325414
0.400000000000000244,-8.965754717788817274
0.401000000000000245,-8.900761317212680268
0.402000000000000246,-8.836028390765980234
0.403000000000000247,-8.771563501838681276
0.404000000000000248,-8.707373885905868249
0.405000000000000249,-8.643466457953509874
0.406000000000000250,-8.579847819882550297
0.407000000000000250,-8.516524267882941146
0.408000000000000251,-8.453501799769489011
0.409000000000000252,-8.390786122272174907
0.410000000000000253,-8.328382658273906003
0.411000000000000254,-8.266296553989297635
0.412000000000000255,-8.204532686078424675
0.413000000000000256,-8.143095668690095934
0.414000000000000257,-8.081989860429397154
0.415000000000000258,-8.021219371244960428
0.416000000000000258,-7.960788069231552022
0.417000000000000259,-7.900699587344080399
0.418000000000000260,-7.840957330019527660
0.419000000000000261,-7.781564479703500403
0.420000000000000262,-7.722524003278598670
0.421000000000000263,-7.663838658392021941
0.422000000000000264,-7.605510999680127782
0.423000000000000265,-7.547543384887923423
0.424000000000000266,-7.489937980881945734
0.425000000000000266,-7.432696769554860694
0.426000000000000267,-7.375821553620714788
0.427000000000000268,-7.319313962299830223
0.428000000000000269,-7.263175456892524195
0.429000000000000270,-7.207407336241189455
0.430000000000000271,-7.152010742080248562
0.431000000000000272,-7.096986664273913448
0.432000000000000273,-7.042335945941611719
0.433000000000000274,-6.988059288471367481
0.434000000000000274,-6.934157256421241478
0.435000000000000275,-6.880630282309427415
0.436000000000000276,-6.827478671293488510
0.437000000000000277,-6.774702605739375549
0.438000000000000278,-6.722302149681071981
0.439000000000000279,-6.670277253171771115
0.440000000000000280,-6.618627756527504680
0.441000000000000281,-6.567353394464342742
0.442000000000000282,-6.516453800130351581
0.443000000000000282,-6.465928509033443738
0.444000000000000283,-6.415776962866535982
0.445000000000000284,-6.365998513231279965
0.446000000000000285,-6.316592425261791099
0.447000000000000286,-6.267557881149929067
0.448000000000000287,-6.218893983573470230
0.449000000000000288,-6.170599759028898568
0.450000000000000289,-6.122674161070245091
0.451000000000000290,-6.075116073455648191
0.452000000000000290,-6.027924313203312678
0.453000000000000291,-5.981097633558396964
0.454000000000000292,-5.934634726872646482
0.455000000000000293,-5.888534227398317000
0.456000000000000294,-5.842794713998210376
0.457000000000000295,-5.797414712773430345
0.458000000000000296,-5.752392699610608062
0.459000000000000297,-5.707727102650315132
0.460000000000000298,-5.663416304678305480
0.461000000000000298,-5.619458645441402389
0.462000000000000299,-5.575852423889605447
0.463000000000000300,-5.532595900346184870
0.464000000000000301,-5.489687298607406341
0.465000000000000302,-5.447124807973600547
0.466000000000000303,-5.404906585213146819
0.467000000000000304,-5.363030756461088622
0.468000000000000305,-5.321495419053968057
0.469000000000000306,-5.280298643302470118
0.470000000000000306,-5.239438474203537588
0.471000000000000307,-5.198912933093376765
0.472000000000000308,-5.158720019243071775
0.473000000000000309,-5.118857711398198340
0.474000000000000310,-5.079323969264003757
0.475000000000000311,-5.040116734937582166
0.476000000000000312,-5.001233934288610961
0.477000000000000313,-4.962673478289884699
0.478000000000000314,-4.924433264299244328
0.479000000000000314,-4.886511177294172725
0.480000000000000315,-4.848905091060421668
0.481000000000000316,-4.811612869336052256
0.482000000000000317,-4.774632366912111792
0.483000000000000318,-4.737961430691290943
0.484000000000000319,-4.701597900705753119
0.485000000000000320,-4.665539611095436356
0.486000000000000321,-4.629784391047950365
0.487000000000000322,-4.594330065701270449
0.488000000000000322,-4.559174457010359838
0.489000000000000323,-4.524315384578883936
0.490000000000000324,-4.489750666457053896
0.491000000000000325,-4.455478119906705281
0.492000000000000326,-4.421495562134600377
0.493000000000000327,-4.387800810995068801
0.494000000000000328,-4.354391685662861278
0.495000000000000329,-4.321266007277276167
0.496000000000000330,-4.288421599558436270
0.497000000000000330,-4.255856289396697356
0.498000000000000331,-4.223567907415986866
0.499000000000000332,-4.191554288512074677
0.500000000000000333,-4.159813272366491788
0.501000000000000334,-4.128342703937004643
0.502000000000000335,-4.097140433925408942
0.503000000000000336,-4.066204319223453822
0.504000000000000337,-4.035532223337616742
0.505000000000000338,-4.005122016793475126
0.506000000000000338,-3.974971577520437727
0.507000000000000339,-3.945078791217434322
0.508000000000000340,-3.915441551700324485
0.509000000000000341,-3.886057761231664021
0.510000000000000342,-3.856925330833417487
0.511000000000000343,-3.828042180583286047
0.512000000000000344,-3.799406239895213311
0.513000000000000345,-3.771015447784661578
0.514000000000000346,-3.742867753119259788
0.515000000000000346,-3.714961114855263702
0.516000000000000347,-3.687293502260460709
0.517000000000000348,-3.659862895124016635
0.518000000000000349,-3.632667283953651349
0.519000000000000350,-3.605704670160791547
0.520000000000000351,-3.578973066234017786
0.521000000000000352,-3.552470495901347558
0.522000000000000353,-3.526194994281735440
0.523000000000000353,-3.500144608026216186
0.524000000000000354,-3.474317395449164625
0.525000000000000355,-3.448711426649934797
0.526000000000000356,-3.423324783625383283
0.527000000000000357,-3.398155560373594231
0.528000000000000358,-3.373201862989114286
0.529000000000000359,-3.348461809750138851
0.530000000000000360,-3.323933531197885038
0.531000000000000361,-3.299615170208530124
0.532000000000000361,-3.275504882058004164
0.533000000000000362,-3.251600834479917435
0.534000000000000363,-3.227901207716957543
0.535000000000000364,-3.204404194565958708
0.536000000000000365,-3.181108000416993153
0.537000000000000366,-3.158010843286684910
0.538000000000000367,-3.135110953845989368
0.539000000000000368,-3.112406575442757894
0.540000000000000369,-3.089895964119182548
0.541000000000000369,-3.067577388624484147
0.542000000000000370,-3.045449130422972051
0.543000000000000371,-3.023509483697673694
0.544000000000000372,-3.001756755349816341
0.545000000000000373,-2.980189264994258735
0.546000000000000374,-2.958805344951101368
0.547000000000000375,-2.937603340233639670
0.548000000000000376,-2.916581608532876402
0.549000000000000377,-2.895738520198667842
0.550000000000000377,-2.875072458217729832
0.551000000000000378,-2.854581818188646203
0.552000000000000379,-2.834265008294001742
0.553000000000000380,-2.814120449269801316
0.554000000000000381,-2.794146574372287084
0.555000000000000382,-2.774341829342334087
0.556000000000000383,-2.754704672367449536
0.557000000000000384,-2.735233574041628479
0.558000000000000385,-2.715927017323047643
0.559000000000000385,-2.696783497489814163
0.560000000000000386,-2.677801522093798958
0.561000000000000387,-2.658979610912699965
0.562000000000000388,-2.640316295900422272
0.563000000000000389,-2.621810121135854654
0.564000000000000390,-2.603459642770145521
0.565000000000000391,-2.585263428972563116
0.566000000000000392,-2.567220059875018112
0.567000000000000393,-2.549328127515332998
0.568000000000000393,-2.531586235779319516
0.569000000000000394,-2.513993000341747663
0.570000000000000395,-2.496547048606295505
0.571000000000000396,-2.479247019644488237
0.572000000000000397,-2.462091564133762400
0.573000000000000398,-2.445079344294650348
0.574000000000000399,-2.428209033827204877
0.575000000000000400,-2.411479317846652926
0.576000000000000401,-2.394888892818387127
0.577000000000000401,-2.378436466492332979
0.578000000000000402,-2.362120757836714269
0.579000000000000403,-2.345940496971282929
0.580000000000000404,-2.329894425100075495
0.581000000000000405,-2.313981294443701042
0.582000000000000406,-2.298199868171233895
0.583000000000000407,-2.282548920331720410
0.584000000000000408,-2.267027235785370021
0.585000000000000409,-2.251633610134438079
0.586000000000000409,-2.236366849653838251
0.587000000000000410,-2.221225771221551071
0.588000000000000411,-2.206209202248790913
0.589000000000000412,-2.191315980610043290
0.590000000000000413,-2.176544954572920076
0.591000000000000414,-2.161894982727923242
0.592000000000000415,-2.147364933918113117
0.593000000000000416,-2.132953687168698043
0.594000000000000417,-2.118660131616577402
0.595000000000000417,-2.104483166439901076
0.596000000000000418,-2.090421700787552517
0.597000000000000419,-2.076474653708737961
0.598000000000000420,-2.062640954082534783
0.599000000000000421,-2.048919540547549101
0.600000000000000422,-2.035309361431609787
0.601000000000000423,-2.021809374681578397
0.602000000000000424,-2.008418547793238140
0.603000000000000425,-1.995135857741320518
0.604000000000000425,-1.981960290909652089
0.605000000000000426,-1.968890843021443349
0.606000000000000427,-1.955926519069768332
0.607000000000000428,-1.943066333248143707
0.608000000000000429,-1.930309308881381636
0.609000000000000430,-1.917654478356541459
0.610000000000000431,-1.905100883054158256
