# Au-001-PE_CS-12229-AC
# h[nm],U(h)[kJ/mol]
0.200000000000000011,63.957299336242371623
0.201000000000000012,63.567933839098955673
0.202000000000000013,62.333193492731332697
0.203000000000000014,60.735673521150957299
0.204000000000000015,59.043876895688242712
0.205000000000000016,57.391659691426028189
0.206000000000000016,55.831992435819721265
0.207000000000000017,54.372496876380239428
0.208000000000000018,52.998224649435869082
0.209000000000000019,51.685650395769791032
0.210000000000000020,50.410738110855859873
0.211000000000000021,49.153114335765778264
0.212000000000000022,47.897774756875818980
0.213000000000000023,46.635307884378953247
0.214000000000000024,45.361299442883790789
0.215000000000000024,44.075352489550404300
0.216000000000000025,42.779997218380046320
0.217000000000000026,41.479652889045169672
0.218000000000000027,40.179728784302746192
0.219000000000000028,38.885901420839040554
0.220000000000000029,37.603573888645868806
0.221000000000000030,36.337504624428021316
0.222000000000000031,35.091583078457084355
0.223000000000000032,33.868725676646235456
0.224000000000000032,32.670865113129295310
0.225000000000000033,31.499007857548868117
0.226000000000000034,30.353337807357583245
0.227000000000000035,29.233347574084426412
0.228000000000000036,28.137982519603781384
0.229000000000000037,27.065786080893929011
0.230000000000000038,26.015037986022274907
0.231000000000000039,24.983879598226973684
0.232000000000000040,23.970422811139989960
0.233000000000000040,22.972840672834905718
0.234000000000000041,21.989439276127221490
0.235000000000000042,21.018711464525662080
0.236000000000000043,20.059373618412617901
0.237000000000000044,19.110387254969584347
0.238000000000000045,18.170967445480918911
0.239000000000000046,17.240580167757091345
0.240000000000000047,16.318930706975915967
0.241000000000000048,15.405945127221666979
0.242000000000000048,14.501746685042533613
0.243000000000000049,13.606628867157464668
0.244000000000000050,12.721026524312895489
0.245000000000000051,11.845486355621229535
0.246000000000000052,10.980637782617430176
0.247000000000000053,10.127165047057790304
0.248000000000000054,9.285781176194785047
0.249000000000000055,8.457204287074954863
0.250000000000000056,7.642136549047620520
0.251000000000000056,6.841245991732034959
0.252000000000000057,6.055151233914122244
0.253000000000000058,5.284409116359029213
0.254000000000000059,4.529505147031959389
0.255000000000000060,3.790846609150594126
0.256000000000000061,3.068758139124588613
0.257000000000000062,2.363479550995763567
0.258000000000000063,1.675165664712450209
0.259000000000000064,1.003887885755519571
0.260000000000000064,0.349637281685862222
0.261000000000000065,-0.287671094365943736
0.262000000000000066,-0.908192873732376449
0.263000000000000067,-1.512148262832260670
0.264000000000000068,-2.099815365220143892
0.265000000000000069,-2.671523127727528202
0.266000000000000070,-3.227644084020319326
0.267000000000000071,-3.768587049028983671
0.268000000000000071,-4.294789897838564130
0.269000000000000072,-4.806712543182865893
0.270000000000000073,-5.304830207003182529
0.271000000000000074,-5.789627063860661060
0.272000000000000075,-6.261590317517319093
0.273000000000000076,-6.721204756846366202
0.274000000000000077,-7.168947823472977987
0.275000000000000078,-7.605285211212877705
0.276000000000000079,-8.030667006464799584
0.277000000000000079,-8.445524369196107273
0.278000000000000080,-8.850266745983059735
0.279000000000000081,-9.245279599664787185
0.280000000000000082,-9.630922634459029297
0.281000000000000083,-10.007528490783176522
0.282000000000000084,-10.375401880430874968
0.283000000000000085,-10.734819130079202409
0.284000000000000086,-11.086028099249222834
0.285000000000000087,-11.429248437717884457
0.286000000000000087,-11.764672146895978955
0.287000000000000088,-12.092464409755116606
0.288000000000000089,-12.412764654427935085
0.289000000000000090,-12.725687817544459435
0.290000000000000091,-13.031325774631714154
0.291000000000000092,-13.329748906433488642
0.292000000000000093,-13.621007771740499592
0.293000000000000094,-13.905134859209505649
0.294000000000000095,-14.182146392644654043
0.295000000000000095,-14.452044166277252302
0.296000000000000096,-14.714817388672196685
0.297000000000000097,-14.970444515983905021
0.298000000000000098,-15.218895057352014533
0.299000000000000099,-15.460131337248052219
0.300000000000000100,-15.694110201538752136
0.301000000000000101,-15.920784655906595972
0.302000000000000102,-16.140105427050393416
0.303000000000000103,-16.352022438771392387
0.304000000000000103,-16.556486196625286311
0.305000000000000104,-16.753449076285161112
0.306000000000000105,-16.942866512112026101
0.307000000000000106,-17.124698083667041715
0.308000000000000107,-17.298908499025266394
0.309000000000000108,-17.465468474764598739
0.310000000000000109,-17.624355513411270380
0.311000000000000110,-17.775554579925021415
0.312000000000000111,-17.919058679511866927
0.313000000000000111,-18.054869339660438499
0.314000000000000112,-18.182996999817927275
0.315000000000000113,-18.303461312557750773
0.316000000000000114,-18.416291360448848735
0.317000000000000115,-18.521525793122272319
0.318000000000000116,-18.619212889249531884
0.319000000000000117,-18.709410548305484667
0.320000000000000118,-18.792186217090858236
0.321000000000000119,-18.867616756042426829
0.322000000000000119,-18.935788250366261565
0.323000000000000120,-18.996795770997302100
0.324000000000000121,-19.050743090321148543
0.325000000000000122,-19.097742357495683052
0.326000000000000123,-19.137913738085153170
0.327000000000000124,-19.171385022572017931
0.328000000000000125,-19.198291208145299436
0.329000000000000126,-19.218774057981889314
0.330000000000000127,-19.232981642042400239
0.331000000000000127,-19.241067863198821897
0.332000000000000128,-19.243191972299296566
0.333000000000000129,-19.239518075559097099
0.334000000000000130,-19.230214637447158310
0.335000000000000131,-19.215453982018221524
0.336000000000000132,-19.195411795420575629
0.337000000000000133,-19.170266632092982206
0.338000000000000134,-19.140199426950964323
0.339000000000000135,-19.105393015653767463
0.340000000000000135,-19.066031664840661364
0.341000000000000136,-19.022300614028473831
0.342000000000000137,-18.974385630673019421
0.343000000000000138,-18.922472579715254426
0.344000000000000139,-18.866747008759311655
0.345000000000000140,-18.807393749864633747
0.346000000000000141,-18.744596538777354766
0.347000000000000142,-18.678537652278460968
0.348000000000000143,-18.609397564187453611
0.349000000000000143,-18.537354620429663754
0.350000000000000144,-18.462584733454242780
0.351000000000000145,-18.385261096177035967
0.352000000000000146,-18.305553915518299135
0.353000000000000147,-18.223630165509245415
0.354000000000000148,-18.139653359853642911
0.355000000000000149,-18.053783343750488655
0.356000000000000150,-17.966176104711543360
0.357000000000000151,-17.876983602041857324
0.358000000000000151,-17.786353614593600980
0.359000000000000152,-17.694429606351256723
0.360000000000000153,-17.601350609361311683
0.361000000000000154,-17.507251123479818489
0.362000000000000155,-17.412261032377415404
0.363000000000000156,-17.316505535212943556
0.364000000000000157,-17.220105093362938931
0.365000000000000158,-17.123175391575834681
0.366000000000000159,-17.025827312904475264
0.367000000000000159,-16.928166926760319200
0.368000000000000160,-16.830295489425697752
0.369000000000000161,-16.732309456356894373
0.370000000000000162,-16.634300505610589482
0.371000000000000163,-16.536355571728620362
0.372000000000000164,-16.438556889420954832
0.373000000000000165,-16.340982046394628924
0.374000000000000166,-16.243704044685387089
0.375000000000000167,-16.146791369860757470
0.376000000000000167,-16.050308067475917539
0.377000000000000168,-15.954313826178761815
0.378000000000000169,-15.858864066875915100
0.379000000000000170,-15.764010037389109442
0.380000000000000171,-15.669798912048443995
0.381000000000000172,-15.576273895688547810
0.382000000000000173,-15.483474331532249835
0.383000000000000174,-15.391435812466951916
0.384000000000000175,-15.300190295238431659
0.385000000000000175,-15.209766217107709707
0.386000000000000176,-15.120188614537203975
0.387000000000000177,-15.031479243492821496
0.388000000000000178,-14.943656700969768281
0.389000000000000179,-14.856736547369957080
0.390000000000000180,-14.770731429379598154
0.391000000000000181,-14.685651203015561705
0.392000000000000182,-14.601503056529026026
0.393000000000000183,-14.518291632874277042
0.394000000000000183,-14.436019151469732691
0.395000000000000184,-14.354685528996920851
0.396000000000000185,-14.274288499001167807
0.397000000000000186,-14.194823730075592394
0.398000000000000187,-14.116284942427020255
0.399000000000000188,-14.038664022639101958
0.400000000000000189,-13.961951136463872203
0.401000000000000190,-13.886134839488448733
0.402000000000000191,-13.811202185538556719
0.403000000000000191,-13.737138832694521184
0.404000000000000192,-13.663929146809442372
0.405000000000000193,-13.591556302431939685
0.406000000000000194,-13.520002381048550788
0.407000000000000195,-13.449248466572788274
0.408000000000000196,-13.379274738018887447
0.409000000000000197,-13.310060559309226491
0.410000000000000198,-13.241584566174486426
0.411000000000000199,-13.173824750115050719
0.412000000000000199,-13.106758539401294428
0.413000000000000200,-13.040362877098962358
0.414000000000000201,-12.974614296113562872
0.415000000000000202,-12.909488991255326340
0.416000000000000203,-12.844962888333252948
0.417000000000000204,-12.781011710293041617
0.418000000000000205,-12.717611040419976476
0.419000000000000206,-12.654736382633160474
0.420000000000000207,-12.592363218902686839
0.421000000000000207,-12.530467063826220553
0.422000000000000208,-12.469023516405346896
0.423000000000000209,-12.408008309066460129
0.424000000000000210,-12.347397353974216117
0.425000000000000211,-12.287166786688720421
0.426000000000000212,-12.227293007220866983
0.427000000000000213,-12.167752718542242718
0.428000000000000214,-12.108522962608812890
0.429000000000000214,-12.049581153959147528
0.430000000000000215,-11.990905110949803714
0.431000000000000216,-11.932473084691968879
0.432000000000000217,-11.874263785754454403
0.433000000000000218,-11.816256408699258529
0.434000000000000219,-11.758430654516553560
0.435000000000000220,-11.700766751026591805
0.436000000000000221,-11.643245471316172157
0.437000000000000222,-11.585848150277659130
0.438000000000000222,-11.528556699318468048
0.439000000000000223,-11.471353619308811034
0.440000000000000224,-11.414222011835109427
0.441000000000000225,-11.357145588826071503
0.442000000000000226,-11.300108680618077273
0.443000000000000227,-11.243096242525444595
0.444000000000000228,-11.186093859980825727
0.445000000000000229,-11.129087752309747117
0.446000000000000230,-11.072064775202568043
0.447000000000000230,-11.015012421946064336
0.448000000000000231,-10.957918823475731429
0.449000000000000232,-10.900772747308622002
0.450000000000000233,-10.843563595415613321
0.451000000000000234,-10.786281401090375809
0.452000000000000235,-10.728916824871324920
0.453000000000000236,-10.671461149571159766
0.454000000000000237,-10.613906274467662882
0.455000000000000238,-10.556244708707509972
0.456000000000000238,-10.498469563973861440
0.457000000000000239,-10.440574546466782735
0.458000000000000240,-10.382553948244309439
0.459000000000000241,-10.324402637970184315
0.460000000000000242,-10.266116051113339580
0.461000000000000243,-10.207690179642114003
0.462000000000000244,-10.149121561255416424
0.463000000000000245,-10.090407268190785928
0.464000000000000246,-10.031544895648790927
0.465000000000000246,-9.972532549870868124
0.466000000000000247,-9.913368835906934962
0.467000000000000248,-9.854052845107347025
0.468000000000000249,-9.794584142372563917
0.469000000000000250,-9.734962753192366591
0.470000000000000251,-9.675189150505303814
0.471000000000000252,-9.615264241407450285
0.472000000000000253,-9.555189353738658298
0.473000000000000254,-9.494966222572701398
0.474000000000000254,-9.434596976636960619
0.475000000000000255,-9.374084124685628794
0.476000000000000256,-9.313430541849601951
0.477000000000000257,-9.252639455984745354
0.478000000000000258,-9.191714434039287340
0.479000000000000259,-9.130659368459840053
0.480000000000000260,-9.069478463654622402
0.481000000000000261,-9.008176222531163901
0.482000000000000262,-8.946757433125064551
0.483000000000000262,-8.885227155335114091
0.484000000000000263,-8.823590707779214171
0.485000000000000264,-8.761853654784692580
0.486000000000000265,-8.700021793525570146
0.487000000000000266,-8.638101141318511367
0.488000000000000267,-8.576097923088379815
0.489000000000000268,-8.514018559013498688
0.490000000000000269,-8.451869652359839336
0.491000000000000270,-8.389657977512793963
0.492000000000000270,-8.327390468214190378
0.493000000000000271,-8.265074206011837177
0.494000000000000272,-8.202716408927892999
0.495000000000000273,-8.140324420351898738
0.496000000000000274,-8.077905698163721837
0.497000000000000275,-8.015467804090848247
0.498000000000000276,-7.953018393304174261
0.499000000000000277,-7.890565204255683973
0.500000000000000222,-7.828116048760984214
0.501000000000000334,-7.765678802329165187
0.502000000000000224,-7.703261394742004775
0.503000000000000336,-7.640871800883907383
0.504000000000000226,-7.578518031823973544
0.505000000000000338,-7.516208126150496938
0.506000000000000227,-7.453950141558705056
0.507000000000000339,-7.391752146691199066
0.508000000000000229,-7.329622213231144379
0.509000000000000341,-7.267568408247095491
0.510000000000000231,-7.205598786788902643
0.511000000000000343,-7.143721384732887536
0.512000000000000233,-7.081944211875142337
0.513000000000000345,-7.020275245270775955
0.514000000000000234,-6.958722422817421815
0.515000000000000346,-6.897293637080220030
0.516000000000000236,-6.835996729356310198
0.517000000000000348,-6.774839483975651611
0.518000000000000238,-6.713829622835750577
0.519000000000000350,-6.652974800166823854
0.520000000000000240,-6.592282597524580012
0.521000000000000352,-6.531760519007039356
0.522000000000000242,-6.471415986692115041
0.523000000000000353,-6.411256336292192159
0.524000000000000243,-6.351288813022229363
0.525000000000000355,-6.291520567677420850
0.526000000000000245,-6.231958652916793184
0.527000000000000357,-6.172610019748452359
0.528000000000000247,-6.113481514212926626
0.529000000000000359,-6.054579874260127781
0.530000000000000249,-5.995911726816144593
0.531000000000000361,-5.937483585035474576
0.532000000000000250,-5.879301845734783427
0.533000000000000362,-5.821372787003669558
0.534000000000000252,-5.763702565988522153
0.535000000000000364,-5.706297216844952835
0.536000000000000254,-5.649162648854882285
0.537000000000000366,-5.592304644703586902
0.538000000000000256,-5.535728858913032013
0.539000000000000368,-5.479440816426659921
0.540000000000000258,-5.423445911342005488
0.541000000000000369,-5.367749405786362615
0.542000000000000259,-5.312356428931906294
0.543000000000000371,-5.257271976145604597
0.544000000000000261,-5.202500908270197399
0.545000000000000373,-5.148047951031911929
0.546000000000000263,-5.093917694571108434
0.547000000000000375,-5.040114593091480799
0.548000000000000265,-4.986642964624430796
0.549000000000000377,-4.933506990904040990
0.550000000000000266,-4.880710717349410643
0.551000000000000378,-4.828258053150044304
0.552000000000000268,-4.776152771450924206
0.553000000000000380,-4.724398509633249255
0.554000000000000270,-4.672998769687533915
0.555000000000000382,-4.621956918675090620
0.556000000000000272,-4.571276189274807500
0.557000000000000384,-4.520959680411330339
0.558000000000000274,-4.471010357961651138
0.559000000000000385,-4.421431055536389820
0.560000000000000275,-4.372224475332856741
0.561000000000000387,-4.323393189056361052
0.562000000000000277,-4.274939638906890771
0.563000000000000389,-4.226866138627875635
0.564000000000000279,-4.179174874614209223
0.565000000000000391,-4.131867907076404833
0.566000000000000281,-4.084947171258176191
0.567000000000000393,-4.038414478704448030
0.568000000000000282,-3.992271518577310552
0.569000000000000394,-3.946519859016867748
0.570000000000000284,-3.901160948544789786
0.571000000000000396,-3.856196117507631804
0.572000000000000286,-3.811626579557787498
0.573000000000000398,-3.767453433169291266
0.574000000000000288,-3.723677663186497622
0.575000000000000400,-3.680300142403029717
0.576000000000000290,-3.637321633169003920
0.577000000000000401,-3.594742789024182095
0.578000000000000291,-3.552564156355128233
0.579000000000000403,-3.510786176074161880
0.580000000000000293,-3.469409185318317324
0.581000000000000405,-3.428433419166140972
0.582000000000000295,-3.387859012370816547
0.583000000000000407,-3.347686001107414988
0.584000000000000297,-3.307914324732910138
0.585000000000000409,-3.268543827556959602
0.586000000000000298,-3.229574260622116277
0.587000000000000410,-3.191005283491585853
0.588000000000000300,-3.152836466043344554
0.589000000000000412,-3.115067290268815015
0.590000000000000302,-3.077697152075001608
0.591000000000000414,-3.040725363088490063
0.592000000000000304,-3.004151152460155405
0.593000000000000416,-2.967973668669174447
0.594000000000000306,-2.932191981325316554
0.595000000000000417,-2.896805082968143097
0.596000000000000307,-2.861811890862176799
0.597000000000000419,-2.827211248786819731
0.598000000000000309,-2.793001928820151747
0.599000000000000421,-2.759182633115432104
0.600000000000000311,-2.725751995669581262
0.601000000000000423,-2.692708584082507350
0.602000000000000313,-2.660050901306703963
0.603000000000000425,-2.627777387385927810
0.604000000000000314,-2.595886421182634685
0.605000000000000426,-2.564376322092936977
0.606000000000000316,-2.533245351748851348
0.607000000000000428,-2.502491715706741449
0.608000000000000318,-2.472113565121695444
0.609000000000000430,-2.442108998406914200
0.610000000000000320,-2.412476062877831673
0.611000000000000432,-2.383212756380152175
0.612000000000000322,-2.354317028901577569
0.613000000000000433,-2.325786784166507637
0.614000000000000323,-2.297619881213452508
0.615000000000000435,-2.269814135954620227
0.616000000000000325,-2.242367322717383260
0.617000000000000437,-2.215277175767172757
0.618000000000000327,-2.188541390811582055
0.619000000000000439,-2.162157626485222028
0.620000000000000329,-2.136123505815208823
0.621000000000000441,-2.110436617666890502
0.622000000000000330,-2.085094518169666955
0.623000000000000442,-2.060094732122599748
0.624000000000000332,-2.035434754379743083
0.625000000000000444,-2.011112051214875684
0.626000000000000334,-1.987124061665624719
0.627000000000000446,-1.963468198856730407
0.628000000000000336,-1.940141851302429998
0.629000000000000448,-1.917142384187781712
0.630000000000000338,-1.894467140628969037
0.631000000000000449,-1.872113442912347381
0.632000000000000339,-1.850078593712396469
0.633000000000000451,-1.828359877288352253
0.634000000000000341,-1.806954560659672193
0.635000000000000453,-1.785859894760196243
0.636000000000000343,-1.765073115571111018
0.637000000000000455,-1.744591445232693827
0.638000000000000345,-1.724412093134926049
0.639000000000000457,-1.704532256986920347
0.640000000000000346,-1.684949123865397524
0.641000000000000458,-1.665659871242095136
0.642000000000000348,-1.646661667990363842
0.643000000000000460,-1.627951675370888251
0.644000000000000350,-1.609527047996816451
0.645000000000000462,-1.591384934778205196
0.646000000000000352,-1.573522479846115152
0.647000000000000464,-1.555936823456278262
0.648000000000000353,-1.538625102872702044
0.649000000000000465,-1.521584453231102474
0.650000000000000355,-1.504812008382587774
0.651000000000000467,-1.488304901717499851
0.652000000000000357,-1.472060266969796416
0.653000000000000469,-1.456075239001969335
0.654000000000000359,-1.440346954570832283
0.655000000000000471,-1.424872553074207904
0.656000000000000361,-1.409649177278864851
0.657000000000000473,-1.394673974029730479
0.658000000000000362,-1.379944094940739552
0.659000000000000474,-1.365456697067365832
