# Au-001-PE_CS-12814-AC
# h[nm],U(h)[kJ/mol]
0.200000000000000011,89.340065688819237266
0.201000000000000012,88.770369559665908810
0.202000000000000013,87.370196215704950760
0.203000000000000014,85.610849758975533064
0.204000000000000015,83.755050352866945218
0.205000000000000016,81.934217885369690748
0.206000000000000016,80.200802584647149729
0.207000000000000017,78.562901806633490764
0.208000000000000018,77.006469804070292184
0.209000000000000019,75.508978403272564606
0.210000000000000020,74.047306070669293376
0.211000000000000021,72.601832120263424031
0.212000000000000022,71.158123566924771808
0.213000000000000023,69.707172048415330323
0.214000000000000024,68.244827323923942686
0.215000000000000024,66.770851637079886132
0.216000000000000025,65.287862581527434713
0.217000000000000026,63.800323552514683456
0.218000000000000027,62.313667268010291878
0.219000000000000028,60.833589370796346429
0.220000000000000029,59.365518476525288349
0.221000000000000030,57.914250825319598448
0.222000000000000031,56.483727986727558346
0.223000000000000032,55.076932007967194238
0.224000000000000032,53.695871944309303103
0.225000000000000033,52.341637432245022410
0.226000000000000034,51.014497868959537641
0.227000000000000035,49.714029177827057993
0.228000000000000036,48.439253635129027487
0.229000000000000037,47.188781540310536400
0.230000000000000038,45.960946479502126749
0.231000000000000039,44.753928488002109987
0.232000000000000040,43.565861543002981193
0.233000000000000040,42.394923527653695317
0.234000000000000041,41.239408136069499733
0.235000000000000042,40.097779181006799831
0.236000000000000043,38.968708470435856839
0.237000000000000044,37.851098884728727967
0.238000000000000045,36.744094558293419084
0.239000000000000046,35.647080189525055971
0.240000000000000047,34.559671507099317012
0.241000000000000048,33.481698839843126336
0.242000000000000048,32.413185597491313672
0.243000000000000049,31.354323291649926375
0.244000000000000050,30.305444527049587577
0.245000000000000051,29.266995185746829122
0.246000000000000052,28.239506821201167952
0.247000000000000053,27.223570082291434602
0.248000000000000054,26.219809804308578549
0.249000000000000055,25.228862237943481261
0.250000000000000056,24.251354740029409385
0.251000000000000056,23.287888121951034748
0.252000000000000057,22.339021743016203914
0.253000000000000058,21.405261345923669580
0.254000000000000059,20.487049558543855454
0.255000000000000060,19.584758929093496249
0.256000000000000061,18.698687318801056279
0.257000000000000062,17.829055445644144129
0.258000000000000063,16.976006353014874151
0.259000000000000064,16.139606566613554861
0.260000000000000064,15.319848699960042282
0.261000000000000065,14.516655272238415009
0.262000000000000066,13.729883510471452723
0.263000000000000067,12.959330920123125708
0.264000000000000068,12.204741423141035384
0.265000000000000069,11.465811879310566113
0.266000000000000070,10.742198824858068207
0.267000000000000071,10.033525280887287678
0.268000000000000071,9.339387502951108644
0.269000000000000072,8.659361561433142285
0.270000000000000073,7.993009660115683701
0.271000000000000074,7.339886117092120799
0.272000000000000075,6.699542947860912534
0.273000000000000076,6.071535004890938225
0.274000000000000077,5.455424641097674332
0.275000000000000078,4.850785876481420900
0.276000000000000079,4.257208057651706845
0.277000000000000079,3.674299009118095150
0.278000000000000080,3.101687683117525740
0.279000000000000081,2.539026321428401012
0.280000000000000082,1.985992148170623306
0.281000000000000083,1.442288617086477931
0.282000000000000084,0.907646240329283982
0.283000000000000085,0.381823028442433099
0.284000000000000086,-0.135395426920671552
0.285000000000000087,-0.644196194813693390
0.286000000000000087,-1.144739538074200258
0.287000000000000088,-1.637159704358507994
0.288000000000000089,-2.121565942264523219
0.289000000000000090,-2.598043710488927793
0.290000000000000091,-3.066656049097546521
0.291000000000000092,-3.527445083379470159
0.292000000000000093,-3.980433632347250672
0.293000000000000094,-4.425626895690459861
0.294000000000000095,-4.863014194842672389
0.295000000000000095,-5.292570745744527905
0.296000000000000096,-5.714259442841847836
0.297000000000000097,-6.128032635821076823
0.298000000000000098,-6.533833882526811188
0.299000000000000099,-6.931599663408769985
0.300000000000000100,-7.321261044688808894
0.301000000000000101,-7.702745279210441609
0.302000000000000102,-8.075977335619278108
0.303000000000000103,-8.440881348119027905
0.304000000000000103,-8.797381980541903346
0.305000000000000104,-9.145405699866216764
0.306000000000000105,-9.484881955601125014
0.307000000000000106,-9.815744262639926276
0.308000000000000107,-10.137931186259537597
0.309000000000000108,-10.451387228915638872
0.310000000000000109,-10.756063619354716110
0.311000000000000110,-11.051919005336284130
0.312000000000000111,-11.338920051939854972
0.313000000000000111,-11.617041948020036202
0.314000000000000112,-11.886268823880199008
0.315000000000000113,-12.146594083661433672
0.316000000000000114,-12.398020656296804276
0.317000000000000115,-12.640561169164509892
0.318000000000000116,-12.874238048795001887
0.319000000000000117,-13.099083553149657888
0.320000000000000118,-13.315139740098524967
0.321000000000000119,-13.522458376787337642
0.322000000000000119,-13.721100794602779871
0.323000000000000120,-13.911137694425912414
0.324000000000000121,-14.092648906811325205
0.325000000000000122,-14.265723111646385846
0.326000000000000123,-14.430457521736878235
0.327000000000000124,-14.586957534634953149
0.328000000000000125,-14.735336356876610253
0.329000000000000126,-14.875714604630967841
0.330000000000000127,-15.008219884587560955
0.331000000000000127,-15.132986358720572184
0.332000000000000128,-15.250154296375502128
0.333000000000000129,-15.359869616924447300
0.334000000000000130,-15.462283426034110434
0.335000000000000131,-15.557551548387497320
0.336000000000000132,-15.645834059496527502
0.337000000000000133,-15.727294819042004548
0.338000000000000134,-15.802101007978700764
0.339000000000000135,-15.870422671448437768
0.340000000000000135,-15.932432269355421894
0.341000000000000136,-15.988304236273284786
0.342000000000000137,-16.038214552176661698
0.343000000000000138,-16.082340325318988050
0.344000000000000139,-16.120859388415428981
0.345000000000000140,-16.153949909133970664
0.346000000000000141,-16.181790015750124212
0.347000000000000142,-16.204557438680868842
0.348000000000000143,-16.222429168482030093
0.349000000000000143,-16.235581130769759284
0.350000000000000144,-16.244187878411317172
0.351000000000000145,-16.248422301223023112
0.352000000000000146,-16.248455353313726590
0.353000000000000147,-16.244455798120309709
0.354000000000000148,-16.236589971097224350
0.355000000000000149,-16.225021559945243865
0.356000000000000150,-16.209911402194244090
0.357000000000000151,-16.191417299891675441
0.358000000000000151,-16.169693851091487602
0.359000000000000152,-16.144892297787340141
0.360000000000000153,-16.117160389889704675
0.361000000000000154,-16.086642264806307878
0.362000000000000155,-16.053478342152356362
0.363000000000000156,-16.017805233087194949
0.364000000000000157,-15.979755663750077943
0.365000000000000158,-15.939458412247805796
0.366000000000000159,-15.897038258630711738
0.367000000000000159,-15.852615947281702091
0.368000000000000160,-15.806308161134216661
0.369000000000000161,-15.758227507129706879
0.370000000000000162,-15.708482512322595070
0.371000000000000163,-15.657177630041422489
0.372000000000000164,-15.604413255517007642
0.373000000000000165,-15.550285750394152728
0.374000000000000166,-15.494887475550058298
0.375000000000000167,-15.438306831651591011
0.376000000000000167,-15.380628306894161383
0.377000000000000168,-15.321932531376759812
0.378000000000000169,-15.262296337580892214
0.379000000000000170,-15.201792826435706729
0.380000000000000171,-15.140491438466312957
0.381000000000000172,-15.078458029538873930
0.382000000000000173,-15.015754950732148387
0.383000000000000174,-14.952441131882943992
0.384000000000000175,-14.888572168369929472
0.385000000000000175,-14.824200410718564314
0.386000000000000176,-14.759375056627899170
0.387000000000000177,-14.694142245038040784
0.388000000000000178,-14.628545151875666619
0.389000000000000179,-14.562624087132681083
0.390000000000000180,-14.496416592951609559
0.391000000000000181,-14.429957542409024285
0.392000000000000182,-14.363279238705882079
0.393000000000000183,-14.296411514491220274
0.394000000000000183,-14.229381831062482888
0.395000000000000184,-14.162215377202665323
0.396000000000000185,-14.094935167430540091
0.397000000000000186,-14.027562139456142276
0.398000000000000187,-13.960115250649199226
0.399000000000000188,-13.892611573342914966
0.400000000000000189,-13.825066388810190787
0.401000000000000190,-13.757493279762977423
0.402000000000000191,-13.689904221239311610
0.403000000000000191,-13.622309669755006567
0.404000000000000192,-13.554718650609729025
0.405000000000000193,-13.487138843248811071
0.406000000000000194,-13.419576664593510174
0.407000000000000195,-13.352037350263355364
0.408000000000000196,-13.284525033624294821
0.409000000000000197,-13.217042822606179797
0.410000000000000198,-13.149592874242571838
0.411000000000000199,-13.082176466894182454
0.412000000000000199,-13.014794070125983438
0.413000000000000200,-12.947445412215477845
0.414000000000000201,-12.880129545277096526
0.415000000000000202,-12.812844907994426435
0.416000000000000203,-12.745589385958570716
0.417000000000000204,-12.678360369616623160
0.418000000000000205,-12.611154809840176227
0.419000000000000206,-12.543969271128636578
0.420000000000000207,-12.476799982467001726
0.421000000000000207,-12.409642885862286477
0.422000000000000208,-12.342493682586509252
0.423000000000000209,-12.275347877158193199
0.424000000000000210,-12.208200819097523748
0.425000000000000211,-12.141047742493235262
0.426000000000000212,-12.073883803422408079
0.427000000000000213,-12.006704115266355615
0.428000000000000214,-11.939503781968371143
0.429000000000000214,-11.872277929280780739
0.430000000000000215,-11.805021734050455962
0.431000000000000216,-11.737730451593581193
0.432000000000000217,-11.670399441211355196
0.433000000000000218,-11.603024189899603158
0.434000000000000219,-11.535600334305998516
0.435000000000000220,-11.468123680989210200
0.436000000000000221,-11.400590225034752834
0.437000000000000222,-11.332996167082608707
0.438000000000000222,-11.265337928821942626
0.439000000000000223,-11.197612167008069051
0.440000000000000224,-11.129815786056850513
0.441000000000000225,-11.061945949271306588
0.442000000000000226,-10.994000088755162992
0.443000000000000227,-10.925975914067119987
0.444000000000000228,-10.857871419669596236
0.445000000000000229,-10.789684891224663232
0.446000000000000230,-10.721414910789331287
0.447000000000000230,-10.653060360961612574
0.448000000000000231,-10.584620428027786687
0.449000000000000232,-10.516094604160409531
0.450000000000000233,-10.447482688715821197
0.451000000000000234,-10.378784788678540707
0.452000000000000235,-10.310001318299313766
0.453000000000000236,-10.241132997972011154
0.454000000000000237,-10.172180852393990946
0.455000000000000238,-10.103146208052873334
0.456000000000000238,-10.034030690081856108
0.457000000000000239,-9.964836218524421696
0.458000000000000240,-9.895565004048085811
0.459000000000000241,-9.826219543145484181
0.460000000000000242,-9.756802612860278501
0.461000000000000243,-9.687317265073644990
0.462000000000000244,-9.617766820386405513
0.463000000000000245,-9.548154861630067103
0.464000000000000246,-9.478485227039527672
0.465000000000000246,-9.408762003118395612
0.466000000000000247,-9.338989517227016535
0.467000000000000248,-9.269172329922003684
0.468000000000000249,-9.199315227075070212
0.469000000000000250,-9.129423211797515592
0.470000000000000251,-9.059501496195961678
0.471000000000000252,-8.989555492983386742
0.472000000000000253,-8.919590806969036834
0.473000000000000254,-8.849613226448912684
0.474000000000000254,-8.779628714518306509
0.475000000000000255,-8.709643400326191554
0.476000000000000256,-8.639663570290638361
0.477000000000000257,-8.569695659293376622
0.478000000000000258,-8.499746241870491659
0.479000000000000259,-8.429822023415608712
0.480000000000000260,-8.359929831410761736
0.481000000000000261,-8.290076606699345874
0.482000000000000262,-8.220269394814765818
0.483000000000000262,-8.150515337377514768
0.484000000000000263,-8.080821663572475444
0.485000000000000264,-8.011195681717769190
0.486000000000000265,-7.941644770935390341
0.487000000000000266,-7.872176372933351374
0.488000000000000267,-7.802797983908256185
0.489000000000000268,-7.733517146576640577
0.490000000000000269,-7.664341442342601063
0.491000000000000270,-7.595278483608822739
0.492000000000000270,-7.526335906237238582
0.493000000000000271,-7.457521362165275391
0.494000000000000272,-7.388842512182847599
0.495000000000000273,-7.320307018874754768
0.496000000000000274,-7.251922539732826856
0.497000000000000275,-7.183696720441359318
0.498000000000000276,-7.115637188339137609
0.499000000000000277,-7.047751546060885275
0.500000000000000222,-6.980047365360337430
0.501000000000000334,-6.912532181117043706
0.502000000000000224,-6.845213485528406139
0.503000000000000336,-6.778098722488000938
0.504000000000000226,-6.711195282151329877
0.505000000000000338,-6.644510495689068819
0.506000000000000227,-6.578051630228522129
0.507000000000000339,-6.511825883982635510
0.508000000000000229,-6.445840381566637411
0.509000000000000341,-6.380102169501247644
0.510000000000000231,-6.314618211902029543
0.511000000000000343,-6.249395386353138626
0.512000000000000233,-6.184440479964733228
0.513000000000000345,-6.119760185611911041
0.514000000000000234,-6.055361098353992944
0.515000000000000346,-5.991249712031573083
0.516000000000000236,-5.927432416039872365
0.517000000000000348,-5.863915492275610930
0.518000000000000238,-5.800705112255414519
0.519000000000000350,-5.737807334402866388
0.520000000000000240,-5.675228101501852862
0.521000000000000352,-5.612973238313250235
0.522000000000000242,-5.551048449352224523
0.523000000000000353,-5.489459316823026569
0.524000000000000243,-5.428211298708479404
0.525000000000000355,-5.367309727010808551
0.526000000000000245,-5.306759806140924240
0.527000000000000357,-5.246566611452580631
0.528000000000000247,-5.186735087918559195
0.529000000000000359,-5.127270048945148595
0.530000000000000249,-5.068176175321938537
0.531000000000000361,-5.009458014303222129
0.532000000000000250,-4.951119978817960288
0.533000000000000362,-4.893166346804521893
0.534000000000000252,-4.835601260667133694
0.535000000000000364,-4.778428726850291852
0.536000000000000254,-4.721652615528069141
0.537000000000000366,-4.665276660404418685
0.538000000000000256,-4.609304458621648060
0.539000000000000368,-4.553739470773061626
0.540000000000000258,-4.498585021016964447
0.541000000000000369,-4.443844297288115364
0.542000000000000259,-4.389520351603832360
0.543000000000000371,-4.335616100460968347
0.544000000000000261,-4.282134325320837043
0.545000000000000373,-4.229077673178620600
0.546000000000000263,-4.176448657214248072
0.547000000000000375,-4.124249657521270152
0.548000000000000265,-4.072482921911090514
0.549000000000000377,-4.021150566788885605
0.550000000000000266,-3.970254578098734388
0.551000000000000378,-3.919796812334505720
0.552000000000000268,-3.869778997613913418
0.553000000000000380,-3.820202734812566892
0.554000000000000270,-3.771069498755440286
0.555000000000000382,-3.722380639462664398
0.556000000000000272,-3.674137383447250382
0.557000000000000384,-3.626340835061687251
0.558000000000000274,-3.578991977891172294
0.559000000000000385,-3.532091676190494578
0.560000000000000275,-3.485640676362450563
0.561000000000000387,-3.439639608474981625
0.562000000000000277,-3.394088987814868119
0.563000000000000389,-3.348989216475483310
0.564000000000000279,-3.304340584976423578
0.565000000000000391,-3.260143273912640804
0.566000000000000281,-3.216397355631065658
0.567000000000000393,-3.173102795932392528
0.568000000000000282,-3.130259455796215118
0.569000000000000394,-3.087867093127169227
0.570000000000000284,-3.045925364520503997
0.571000000000000396,-3.004433827044803884
0.572000000000000286,-2.963391940040383865
0.573000000000000398,-2.922799066931183187
0.574000000000000288,-2.882654477048779640
0.575000000000000400,-2.842957347466579243
0.576000000000000290,-2.803706764842714971
0.577000000000000401,-2.764901727269946097
0.578000000000000291,-2.726541146131165938
0.579000000000000403,-2.688623847958901969
0.580000000000000293,-2.651148576297554182
0.581000000000000405,-2.614113993566761884
0.582000000000000295,-2.577518682924881066
0.583000000000000407,-2.541361150130962532
0.584000000000000297,-2.505639825404286647
0.585000000000000409,-2.470353065280062488
0.586000000000000298,-2.435499154460330828
0.587000000000000410,-2.401076307658782216
0.588000000000000300,-2.367082671438677899
0.589000000000000412,-2.333516326042602618
0.590000000000000302,-2.300375287213342723
0.591000000000000414,-2.267657508004790490
0.592000000000000304,-2.235360880582101917
0.593000000000000416,-2.203483238010149670
0.594000000000000306,-2.172022356029656986
0.595000000000000417,-2.140975954820039995
0.596000000000000307,-2.110341700748393112
0.597000000000000419,-2.080117208103835935
0.598000000000000309,-2.050300040816652292
0.599000000000000421,-2.020887714161472282
0.600000000000000311,-1.991877696444092738
0.601000000000000423,-1.963267410671182045
0.602000000000000313,-1.935054236202583322
0.603000000000000425,-1.907235510385428601
0.604000000000000314,-1.879808530169978953
0.605000000000000426,-1.852770553706362566
0.606000000000000316,-1.826118801922177681
0.607000000000000428,-1.799850460080281822
0.608000000000000318,-1.773962679316690494
0.609000000000000430,-1.748452578158011805
0.610000000000000320,-1.723317244018380379
0.611000000000000432,-1.698553734675373850
0.612000000000000322,-1.674159079724889976
0.613000000000000433,-1.650130282014589778
0.614000000000000323,-1.626464319055835661
0.615000000000000435,-1.603158144413855624
0.616000000000000325,-1.580208689076051387
0.617000000000000437,-1.557612862798249509
0.618000000000000327,-1.535367555428859720
0.619000000000000439,-1.513469638210734214
0.620000000000000329,-1.491915965060776283
0.621000000000000441,-1.470703373827144222
0.622000000000000330,-1.449828687524052251
0.623000000000000442,-1.429288715544102306
0.624000000000000332,-1.409080254848211755
0.625000000000000444,-1.389200091133036885
0.626000000000000334,-1.369644999976013411
0.627000000000000446,-1.350411747957961817
0.628000000000000336,-1.331497093763365225
0.629000000000000448,-1.312897789258330006
0.630000000000000338,-1.294610580546367684
0.631000000000000449,-1.276632209001978380
0.632000000000000339,-1.258959412282240731
0.633000000000000451,-1.241588925316424952
0.634000000000000341,-1.224517481273812880
0.635000000000000453,-1.207741812509791623
0.636000000000000343,-1.191258651490391340
0.637000000000000455,-1.175064731695397047
0.638000000000000345,-1.159156788500215640
0.639000000000000457,-1.143531560036565864
0.640000000000000346,-1.128185788032313841
0.641000000000000458,-1.113116218630445964
0.642000000000000348,-1.098319603187533744
0.643000000000000460,-1.083792699051722819
0.644000000000000350,-1.069532270320584733
0.645000000000000462,-1.055535088578890335
0.646000000000000352,-1.041797933616643856
0.647000000000000464,-1.028317594127440504
0.648000000000000353,-1.015090868387546363
0.649000000000000465,-1.002114564915691286
0.650000000000000355,-0.989385503114040055
0.651000000000000467,-0.976900513890342381
0.652000000000000357,-0.964656440261674519
0.653000000000000469,-0.952650137939865083
0.654000000000000359,-0.940878475898957900
0.655000000000000471,-0.929338336924825037
0.656000000000000361,-0.918026618147311013
0.657000000000000473,-0.906940231555001253
0.658000000000000362,-0.896076104492998682
0.659000000000000474,-0.885431180143834262
