# Au-001-PE_CS-20788-AC
# h[nm],U(h)[kJ/mol]
0.200000000000000011,93.541594260826201435
0.201000000000000012,92.880074606088228961
0.202000000000000013,91.457558097574164435
0.203000000000000014,89.720347274356711864
0.204000000000000015,87.912847570578350087
0.205000000000000016,86.153685358415629025
0.206000000000000016,84.486884980066051298
0.207000000000000017,82.915433298584488853
0.208000000000000018,81.422582105241247064
0.209000000000000019,79.984760401374401795
0.210000000000000020,78.578870105434717175
0.211000000000000021,77.185927807775129850
0.212000000000000022,75.792420992192731433
0.213000000000000023,74.390315500833722240
0.214000000000000024,72.976340644753136644
0.215000000000000024,71.550957889115892385
0.216000000000000025,70.117264739014572683
0.217000000000000026,68.679979447401876769
0.218000000000000027,67.244581070553380187
0.219000000000000028,65.816633235309083716
0.220000000000000029,64.401291377510347047
0.221000000000000030,63.002976746497758143
0.222000000000000031,61.625192207379690501
0.223000000000000032,60.270451977926256859
0.224000000000000032,58.940297899956895833
0.225000000000000033,57.635377263110115109
0.226000000000000034,56.355560613985844043
0.227000000000000035,55.100081760468583525
0.228000000000000036,53.867685915168316058
0.229000000000000037,52.656775371877458269
0.230000000000000038,51.465545145940879479
0.231000000000000039,50.292103580679153652
0.232000000000000040,49.134575024151452283
0.233000000000000040,47.991183340773631016
0.234000000000000041,46.860316285033533745
0.235000000000000042,45.740571682304363321
0.236000000000000043,44.630786989117346764
0.237000000000000044,43.530054194952285229
0.238000000000000045,42.437722228196435026
0.239000000000000046,41.353389083592659858
0.240000000000000047,40.276885834526751751
0.241000000000000048,39.208254562326615655
0.242000000000000048,38.147722052214994903
0.243000000000000049,37.095670892473776803
0.244000000000000050,36.052609386062059116
0.245000000000000051,35.019141454814622705
0.246000000000000052,33.995937494611979446
0.247000000000000053,32.983706931995634193
0.248000000000000054,31.983173042849063705
0.249000000000000055,30.995050424452006865
0.250000000000000056,30.020025364545784186
0.251000000000000056,29.058739225083577651
0.252000000000000057,28.111774853375614214
0.253000000000000058,27.179645948132144184
0.254000000000000059,26.262789240854829131
0.255000000000000060,25.361559302322593368
0.256000000000000061,24.476225747654854814
0.257000000000000062,23.606972589698692389
0.258000000000000063,22.753899477417803610
0.259000000000000064,21.917024551797521070
0.260000000000000064,21.096288654891843350
0.261000000000000065,20.291560636542786966
0.262000000000000066,19.502643516669444068
0.263000000000000067,18.729281277691860907
0.264000000000000068,17.971166080606508331
0.265000000000000069,17.227945718603660197
0.266000000000000070,16.499231143189252435
0.267000000000000071,15.784603918943355794
0.268000000000000071,15.083623483835641110
0.269000000000000072,14.395834112042717123
0.270000000000000073,13.720771495184829192
0.271000000000000074,13.057968875609230253
0.272000000000000075,12.406962681649776670
0.273000000000000076,11.767297629601774389
0.274000000000000077,11.138531270426648589
0.275000000000000078,10.520237970942437400
0.276000000000000079,9.912012329494498175
0.277000000000000079,9.313472034887718465
0.278000000000000080,8.724260184775008753
0.279000000000000081,8.144047085817152976
0.280000000000000082,7.572531562857332865
0.281000000000000083,7.009441808186400280
0.282000000000000084,6.454535804819182765
0.283000000000000085,5.907601359659048867
0.284000000000000086,5.368455783599003439
0.285000000000000087,4.836945256094289824
0.286000000000000087,4.312943911632218352
0.287000000000000088,3.796352684912571274
0.288000000000000089,3.287097950515733835
0.289000000000000090,2.785129991451984033
0.290000000000000091,2.290421329324844546
0.291000000000000092,1.802964946963044213
0.292000000000000093,1.322772432339896609
0.293000000000000094,0.849872070452050266
0.294000000000000095,0.384306907617605720
0.295000000000000095,-0.073867189587623366
0.296000000000000096,-0.524583460771522958
0.297000000000000097,-0.967766145764431984
0.298000000000000098,-1.403332330621675617
0.299000000000000099,-1.831193732029338550
0.300000000000000100,-2.251258408534601241
0.301000000000000101,-2.663432388903439918
0.302000000000000102,-3.067621209676932192
0.303000000000000103,-3.463731355651758825
0.304000000000000103,-3.851671598540896468
0.305000000000000104,-4.231354230480572909
0.306000000000000105,-4.602696190335597848
0.307000000000000106,-4.965620081919956519
0.308000000000000107,-5.320055084295836956
0.309000000000000108,-5.665937755244543794
0.310000000000000109,-6.003212729823575344
0.311000000000000110,-6.331833316636865661
0.312000000000000111,-6.651761995061052701
0.313000000000000111,-6.962970817188633532
0.314000000000000112,-7.265441718681522332
0.315000000000000113,-7.559166743077797790
0.316000000000000114,-7.844148184368647136
0.317000000000000115,-8.120398652867194755
0.318000000000000116,-8.387941069532677929
0.319000000000000117,-8.646808593997572956
0.320000000000000118,-8.897044491578512293
0.321000000000000119,-9.138701944539043609
0.322000000000000119,-9.371843812818827502
0.323000000000000120,-9.596542349354884038
0.324000000000000121,-9.812878875001310064
0.325000000000000122,-10.020943417907561823
0.326000000000000123,-10.220834322047185339
0.327000000000000124,-10.412657829402416354
0.328000000000000125,-10.596527640108554635
0.329000000000000126,-10.772564454648623666
0.330000000000000127,-10.940895501967194292
0.331000000000000127,-11.101654057144015653
0.332000000000000128,-11.254978952036582385
0.333000000000000129,-11.401014082067515432
0.334000000000000130,-11.539907912099664600
0.335000000000000131,-11.671812984111483047
0.336000000000000132,-11.796885429157239145
0.337000000000000133,-11.915284485874778397
0.338000000000000134,-12.027172027586756187
0.339000000000000135,-12.132712099830952113
0.340000000000000135,-12.232070469953800540
0.341000000000000136,-12.325414190206348763
0.342000000000000137,-12.412911175596887503
0.343000000000000138,-12.494729797577528885
0.344000000000000139,-12.571038494475363478
0.345000000000000140,-12.642005399420549239
0.346000000000000141,-12.707797986375668486
0.347000000000000142,-12.768582734731818817
0.348000000000000143,-12.824524812807876373
0.349000000000000143,-12.875787780469034161
0.350000000000000144,-12.922533310970347742
0.351000000000000145,-12.964920932028807243
0.352000000000000146,-13.003107786034703963
0.353000000000000147,-13.037248409228013202
0.354000000000000148,-13.067494529589087193
0.355000000000000149,-13.093994883124191020
0.356000000000000150,-13.116895048164774806
0.357000000000000151,-13.136337297245432865
0.358000000000000151,-13.152460466077581458
0.359000000000000152,-13.165399839094950707
0.360000000000000153,-13.175287051011684625
0.361000000000000154,-13.182250003804217187
0.362000000000000155,-13.186412798503871713
0.363000000000000156,-13.187895681167731254
0.364000000000000157,-13.186815002380390283
0.365000000000000158,-13.183283189628927090
0.366000000000000159,-13.177408731886288251
0.367000000000000159,-13.169296175735604848
0.368000000000000160,-13.159046132367880233
0.369000000000000161,-13.146755294788713186
0.370000000000000162,-13.132516464575548554
0.371000000000000163,-13.116418587535349616
0.372000000000000164,-13.098546797622754312
0.373000000000000165,-13.078982468491551217
0.374000000000000166,-13.057803272066127676
0.375000000000000167,-13.035083243535106945
0.376000000000000167,-13.010892852186538349
0.377000000000000168,-12.985299077521656130
0.378000000000000169,-12.958365490103229689
0.379000000000000170,-12.930152336614264996
0.380000000000000171,-12.900716628622859616
0.381000000000000172,-12.870112234569891285
0.382000000000000173,-12.838389974517056658
0.383000000000000174,-12.805597717214302733
0.384000000000000175,-12.771780479066718428
0.385000000000000175,-12.736980524602440568
0.386000000000000176,-12.701237468064539016
0.387000000000000177,-12.664588375770506445
0.388000000000000178,-12.627067868904335413
0.389000000000000179,-12.588708226426209791
0.390000000000000180,-12.549539487805347449
0.391000000000000181,-12.509589555301072750
0.392000000000000182,-12.468884295536541984
0.393000000000000183,-12.427447640128269413
0.394000000000000183,-12.385301685152921181
0.395000000000000184,-12.342466789250412518
0.396000000000000185,-12.298961670179462402
0.397000000000000186,-12.254803499658306620
0.398000000000000187,-12.210007996338969605
0.399000000000000188,-12.164589516778956835
0.400000000000000189,-12.118561144288579001
0.401000000000000190,-12.071934775546232288
0.402000000000000191,-12.024721204887294235
0.403000000000000191,-11.976930206184814409
0.404000000000000192,-11.928570612252432426
0.405000000000000193,-11.879650391711145119
0.406000000000000194,-11.830176723272639805
0.407000000000000195,-11.780156067401803099
0.408000000000000196,-11.729594235330782936
0.409000000000000197,-11.678496455406000010
0.410000000000000198,-11.626867436757953200
0.411000000000000199,-11.574711430291362291
0.412000000000000199,-11.522032287000884665
0.413000000000000200,-11.468833513624176135
0.414000000000000201,-11.415118325650627895
0.415000000000000202,-11.360889697709659174
0.416000000000000203,-11.306150411368253828
0.417000000000000204,-11.250903100371830945
0.418000000000000205,-11.195150293367504446
0.419000000000000206,-11.138894454152573843
0.420000000000000207,-11.082138019494776060
0.421000000000000207,-11.024883434574395125
0.422000000000000208,-10.967133186100776143
0.423000000000000209,-10.908889833158966098
0.424000000000000210,-10.850156035844056746
0.425000000000000211,-10.790934581742785525
0.426000000000000212,-10.731228410323998546
0.427000000000000213,-10.671040635300414579
0.428000000000000214,-10.610374565025789906
0.429000000000000214,-10.549233720992074126
0.430000000000000215,-10.487621854492061857
0.431000000000000216,-10.425542961513427187
0.432000000000000217,-10.363001295930144963
0.433000000000000218,-10.300001381057615646
0.434000000000000219,-10.236548019637414342
0.435000000000000220,-10.172646302317625455
0.436000000000000221,-10.108301614693996129
0.437000000000000222,-10.043519642976752593
0.438000000000000222,-9.978306378347301830
0.439000000000000223,-9.912668120068049760
0.440000000000000224,-9.846611477407886781
0.441000000000000225,-9.780143370444617901
0.442000000000000226,-9.713271029804957379
0.443000000000000227,-9.646001995400990126
0.444000000000000228,-9.578344114221408745
0.445000000000000229,-9.510305537233932682
0.446000000000000230,-9.441894715454443698
0.447000000000000230,-9.373120395236821167
0.448000000000000231,-9.303991612835961433
0.449000000000000232,-9.234517688295058591
0.450000000000000233,-9.164708218706978826
0.451000000000000234,-9.094573070897535416
0.452000000000000235,-9.024122373577613487
0.453000000000000236,-8.953366509008892749
0.454000000000000237,-8.882316104227021114
0.455000000000000238,-8.810982021863988933
0.456000000000000238,-8.739375350610377069
0.457000000000000239,-8.667507395356249589
0.458000000000000240,-8.595389667048335625
0.459000000000000241,-8.523033872299087932
0.460000000000000242,-8.450451902782431191
0.461000000000000243,-8.377655824448757116
0.462000000000000244,-8.304657866591027116
0.463000000000000245,-8.231470410791576597
0.464000000000000246,-8.158105979778735417
0.465000000000000246,-8.084577226220163837
0.466000000000000247,-8.010896921478881438
0.467000000000000248,-7.937077944356569326
0.468000000000000249,-7.863133269847381257
0.469000000000000250,-7.789075957924183058
0.470000000000000251,-7.714919142377970829
0.471000000000000252,-7.640676019729928825
0.472000000000000253,-7.566359838234599344
0.473000000000000254,-7.491983886991119057
0.474000000000000254,-7.417561485178808312
0.475000000000000255,-7.343105971431941548
0.476000000000000256,-7.268630693367713391
0.477000000000000257,-7.194148997280352731
0.478000000000000258,-7.119674218013209099
0.479000000000000259,-7.045219669019965991
0.480000000000000260,-6.970798632625002433
0.481000000000000261,-6.896424350492013744
0.482000000000000262,-6.822110014309453518
0.483000000000000262,-6.747868756700215798
0.484000000000000263,-6.673713642362296028
0.485000000000000264,-6.599657659446593883
0.486000000000000265,-6.525713711177038689
0.487000000000000266,-6.451894607717664876
0.488000000000000267,-6.378213058290637782
0.489000000000000268,-6.304681663548580062
0.490000000000000269,-6.231312908203820555
0.491000000000000270,-6.158119153916893573
0.492000000000000270,-6.085112632445723868
0.493000000000000271,-6.012305439056783385
0.494000000000000272,-5.939709526198747369
0.495000000000000273,-5.867336697438737758
0.496000000000000274,-5.795198601661086357
0.497000000000000275,-5.723306727527693205
0.498000000000000276,-5.651672398199043990
0.499000000000000277,-5.580306766314432565
0.500000000000000222,-5.509220809229477211
0.501000000000000334,-5.438425324508997072
0.502000000000000224,-5.367930925672737885
0.503000000000000336,-5.297748038191182118
0.504000000000000226,-5.227886895728739880
0.505000000000000338,-5.158357536630733264
0.506000000000000227,-5.089169800651249354
0.507000000000000339,-5.020333325917700762
0.508000000000000229,-4.951857546128790588
0.509000000000000341,-4.883751687981379597
0.510000000000000231,-4.816024768822702029
0.511000000000000343,-4.748685594522973119
0.512000000000000233,-4.681742757564602009
0.513000000000000345,-4.615204635342899486
0.514000000000000234,-4.549079388674249991
0.515000000000000346,-4.483374960506349538
0.516000000000000236,-4.418099074826350225
0.517000000000000348,-4.353259235761503199
0.518000000000000238,-4.288862726867837871
0.519000000000000350,-4.224916610601443523
0.520000000000000240,-4.161427727967780044
0.521000000000000352,-4.098402698343652339
0.522000000000000242,-4.035847919467046019
0.523000000000000353,-3.973769567589513052
0.524000000000000243,-3.912173597786318346
0.525000000000000355,-3.851065744419027048
0.526000000000000245,-3.790451521745772823
0.527000000000000357,-3.730336224673840739
0.528000000000000247,-3.670724929649963997
0.529000000000000359,-3.611622495682979661
0.530000000000000249,-3.553033565494263968
0.531000000000000361,-3.494962566790746905
0.532000000000000250,-3.437413713656003900
0.533000000000000362,-3.380391008054264290
0.534000000000000252,-3.323898241442972079
0.535000000000000364,-3.267938996488910952
0.536000000000000254,-3.212516648883604997
0.537000000000000366,-3.157634369253045747
0.538000000000000256,-3.103295125157777612
0.539000000000000368,-3.049501683178399869
0.540000000000000258,-2.996256611082700250
0.541000000000000369,-2.943562280069608850
0.542000000000000259,-2.891420867086365476
0.543000000000000371,-2.839834357214312099
0.544000000000000261,-2.788804546119642236
0.545000000000000373,-2.738333042564981668
0.546000000000000263,-2.688421270978129662
0.547000000000000375,-2.639070474073881734
0.548000000000000265,-2.590281715525789785
0.549000000000000377,-2.542055882683621704
0.550000000000000266,-2.494393689333629816
0.551000000000000378,-2.447295678497744653
0.552000000000000268,-2.400762225268672445
0.553000000000000380,-2.354793539677464853
0.554000000000000270,-2.309389669590581118
0.555000000000000382,-2.264550503633134593
0.556000000000000272,-2.220275774135680003
0.557000000000000384,-2.176565060101255611
0.558000000000000274,-2.133417790190275998
0.559000000000000385,-2.090833245720165490
0.560000000000000275,-2.048810563677459395
0.561000000000000387,-2.007348739739515775
0.562000000000000277,-1.966446631303574222
0.563000000000000389,-1.926102960520644558
0.564000000000000279,-1.886316317332040970
0.565000000000000391,-1.847085162506191924
0.566000000000000281,-1.808407830673724348
0.567000000000000393,-1.770282533358610522
0.568000000000000282,-1.732707362003574669
0.569000000000000394,-1.695680290987576111
0.570000000000000284,-1.659199180633847304
0.571000000000000396,-1.623261780206405547
0.572000000000000286,-1.587865730893652128
0.573000000000000398,-1.553008568777106246
0.574000000000000288,-1.518687727784026276
0.575000000000000400,-1.484900542622232589
0.576000000000000290,-1.451644251695802579
0.577000000000000401,-1.418916000000226108
0.578000000000000291,-1.386712841995817236
0.579000000000000403,-1.355031744458043308
0.580000000000000293,-1.323869589303739547
0.581000000000000405,-1.293223176391935292
0.582000000000000295,-1.263089226298464762
0.583000000000000407,-1.233464383063126224
0.584000000000000297,-1.204345216908675242
0.585000000000000409,-1.175728226930612186
0.586000000000000298,-1.147609843757068315
0.587000000000000410,-1.119986432177879188
0.588000000000000300,-1.092854293742281158
0.589000000000000412,-1.066209669324368114
0.590000000000000302,-1.040048741655865472
0.591000000000000414,-1.014367637825526636
0.592000000000000304,-0.989162431744647686
0.593000000000000416,-0.964429146578176244
0.594000000000000306,-0.940163757141063927
0.595000000000000417,-0.916362192259307484
0.596000000000000307,-0.893020337095425609
0.597000000000000419,-0.870134035437979514
0.598000000000000309,-0.847699091954892681
0.599000000000000421,-0.825711274410215856
0.600000000000000311,-0.804166315844261903
0.601000000000000423,-0.783059916716745241
0.602000000000000313,-0.762387747012973516
0.603000000000000425,-0.742145448312695022
0.604000000000000314,-0.722328635821852805
0.605000000000000426,-0.702932900366801894
0.606000000000000316,-0.683953810351288771
0.607000000000000428,-0.665386913675914515
0.608000000000000318,-0.647227739620305775
0.609000000000000430,-0.629471800687844030
0.610000000000000320,-0.612114594413206259
0.611000000000000432,-0.595151605132611339
0.612000000000000322,-0.578578305717045493
0.613000000000000433,-0.562390159268477796
0.614000000000000323,-0.546582620779286876
0.615000000000000435,-0.531151138755018293
0.616000000000000325,-0.516091156800702833
0.617000000000000437,-0.501398115170883840
0.618000000000000327,-0.487067452283652724
0.619000000000000439,-0.473094606198819989
0.620000000000000329,-0.459475016060592878
0.621000000000000441,-0.446204123504935768
0.622000000000000330,-0.433277374031931284
0.623000000000000442,-0.420690218343422295
0.624000000000000332,-0.408438113646245715
0.625000000000000444,-0.396516524921371960
0.626000000000000334,-0.384920926159271537
0.627000000000000446,-0.373646801561844211
0.628000000000000336,-0.362689646711267133
0.629000000000000448,-0.352044969706092836
0.630000000000000338,-0.341708292265008928
0.631000000000000449,-0.331675150798559359
0.632000000000000339,-0.321941097449261249
0.633000000000000451,-0.312501701100481755
0.634000000000000341,-0.303352548354463791
0.635000000000000453,-0.294489244479906875
0.636000000000000343,-0.285907414329469756
0.637000000000000455,-0.277602703227659287
0.638000000000000345,-0.269570777829472252
0.639000000000000457,-0.261807326950189323
0.640000000000000346,-0.254308062366806642
0.641000000000000458,-0.247068719591434005
0.642000000000000348,-0.240085058617168556
0.643000000000000460,-0.233352864636791058
0.644000000000000350,-0.226867948734780361
0.645000000000000462,-0.220626148553014240
0.646000000000000352,-0.214623328930630797
0.647000000000000464,-0.208855382518430555
0.648000000000000353,-0.203318230368324471
0.649000000000000465,-0.198007822498156710
0.650000000000000355,-0.192920138432432220
0.651000000000000467,-0.188051187719292467
0.652000000000000357,-0.183397010424239670
0.653000000000000469,-0.178953677600975525
0.654000000000000359,-0.174717291739838354
0.655000000000000471,-0.170683987194191145
0.656000000000000361,-0.166849930585274253
0.657000000000000473,-0.163211321185848440
0.658000000000000362,-0.159764391283136964
0.659000000000000474,-0.156505406521393664
0.660000000000000364,-0.153430666224607437
