# Au-001-PE_CS-29107-AC
# h[nm],U(h)[kJ/mol]
0.200000000000000011,64.628074451415827184
0.201000000000000012,64.315486857608192395
0.202000000000000013,63.152299092110368406
0.203000000000000014,61.623043241539321002
0.204000000000000015,59.997072048827796209
0.205000000000000016,58.408502829998795391
0.206000000000000016,56.910287528939171864
0.207000000000000017,55.509931578625312909
0.208000000000000018,54.192372205103524152
0.209000000000000019,52.934019126359658003
0.210000000000000020,51.710837025015372603
0.211000000000000021,50.502517056523672068
0.212000000000000022,49.294172774972949469
0.213000000000000023,48.076549629814074649
0.214000000000000024,46.845414899879422421
0.215000000000000024,45.600564827480845054
0.216000000000000025,44.344723706914599859
0.217000000000000026,43.082497577344327055
0.218000000000000027,41.819469299625417591
0.219000000000000028,40.561471944735117745
0.220000000000000029,39.314046003075553415
0.221000000000000030,38.082067348852014277
0.222000000000000031,36.869523077744723594
0.223000000000000032,35.679408325933685830
0.224000000000000032,34.513716865346204088
0.225000000000000033,33.373500171065032305
0.226000000000000034,32.258972750053274581
0.227000000000000035,31.169645119276900402
0.228000000000000036,30.104469481311419088
0.229000000000000037,29.061986593813731616
0.230000000000000038,28.040465412977358284
0.231000000000000039,27.038029739266345786
0.232000000000000040,26.052768289473902996
0.233000000000000040,25.082826379825494456
0.234000000000000041,24.126478767925629398
0.235000000000000042,23.182184214676013312
0.236000000000000043,22.248623042455605514
0.237000000000000044,21.324719433881348607
0.238000000000000045,20.409650484161566908
0.239000000000000046,19.502844132503710739
0.240000000000000047,18.603968091907756133
0.241000000000000048,17.712911804078345313
0.242000000000000048,16.829763293844347771
0.243000000000000049,15.954782607142252715
0.244000000000000050,15.088373305604278585
0.245000000000000051,14.231053272492976802
0.246000000000000052,13.383425869232246086
0.247000000000000053,12.546152276383709889
0.248000000000000054,11.719925662610904737
0.249000000000000055,10.905447653110661221
0.250000000000000056,10.103407416859401025
0.251000000000000056,9.314463560383314800
0.252000000000000057,8.539228904329707603
0.253000000000000058,7.778258126996595578
0.254000000000000059,7.032038184846800100
0.255000000000000060,6.300981362308168521
0.256000000000000061,5.585420760107015603
0.257000000000000062,4.885608001212356832
0.258000000000000063,4.201712914413486821
0.259000000000000064,3.533824945911928417
0.260000000000000064,2.881956047483342331
0.261000000000000065,2.246044794286753188
0.262000000000000066,1.625961494934836882
0.263000000000000067,1.021514069810994796
0.264000000000000068,0.432454489785505214
0.265000000000000069,-0.141514414450469944
0.266000000000000070,-0.700731943007948388
0.267000000000000071,-1.245572468249227072
0.268000000000000071,-1.776438458246236252
0.269000000000000072,-2.293753694188537029
0.270000000000000073,-2.797956775209395008
0.271000000000000074,-3.289494986646366304
0.272000000000000075,-3.768818591501526871
0.273000000000000076,-4.236375589934513464
0.274000000000000077,-4.692606978081225400
0.275000000000000078,-5.137942525370071678
0.276000000000000079,-5.572797078801026593
0.277000000000000079,-5.997567393330013985
0.278000000000000080,-6.412629479505764785
0.279000000000000081,-6.818336452773245071
0.280000000000000082,-7.215016863302317063
0.281000000000000083,-7.602973480737029277
0.282000000000000084,-7.982482504794536915
0.283000000000000085,-8.353793170079478969
0.284000000000000086,-8.717127711725282779
0.285000000000000087,-9.072681657433133040
0.286000000000000087,-9.420624411065990245
0.287000000000000088,-9.761100093081250151
0.288000000000000089,-10.094228603671952627
0.289000000000000090,-10.420106875459099527
0.290000000000000091,-10.738810283865372952
0.291000000000000092,-11.050394184843785439
0.292000000000000093,-11.354895551373228813
0.293000000000000094,-11.652334682017858825
0.294000000000000095,-11.942716956831986863
0.295000000000000095,-12.226034617938283944
0.296000000000000096,-12.502268554177643267
0.297000000000000097,-12.771390071296556457
0.298000000000000098,-13.033362631175190671
0.299000000000000099,-13.288143545586299510
0.300000000000000100,-13.535685611893137903
0.301000000000000101,-13.775938679931503117
0.302000000000000102,-14.008851141062809376
0.303000000000000103,-14.234371332027867751
0.304000000000000103,-14.452448847763957218
0.305000000000000104,-14.663035758771716388
0.306000000000000105,-14.866087729928761263
0.307000000000000106,-15.061565038844154429
0.308000000000000107,-15.249433492933864187
0.309000000000000108,-15.429665245373300309
0.310000000000000109,-15.602239510953078039
0.311000000000000110,-15.767143183630954795
0.312000000000000111,-15.924371358243508467
0.313000000000000111,-16.073927759416967831
0.314000000000000112,-16.215825081206553193
0.315000000000000113,-16.350085241401096425
0.316000000000000114,-16.476739554761103079
0.317000000000000115,-16.595828829719266650
0.318000000000000116,-16.707403393268947411
0.319000000000000117,-16.811523048903083577
0.320000000000000118,-16.908256972549761343
0.321000000000000119,-16.997683551486279185
0.322000000000000119,-17.079890171205491356
0.323000000000000120,-17.154972955162449466
0.324000000000000121,-17.223036462250032486
0.325000000000000122,-17.284193346743240483
0.326000000000000123,-17.338563985318174332
0.327000000000000124,-17.386276075596537538
0.328000000000000125,-17.427464210493898378
0.329000000000000126,-17.462269432462303342
0.330000000000000127,-17.490838771519726436
0.331000000000000127,-17.513324770750845261
0.332000000000000128,-17.529885002750866363
0.333000000000000129,-17.540681580266102912
0.334000000000000130,-17.545880664066071830
0.335000000000000131,-17.545651970862511604
0.336000000000000132,-17.540168283872706212
0.337000000000000133,-17.529604968409678634
0.338000000000000134,-17.514139494671223218
0.339000000000000135,-17.493950969693742081
0.340000000000000135,-17.469219680237827674
0.341000000000000136,-17.440126648179450797
0.342000000000000137,-17.406853199795641274
0.343000000000000138,-17.369580550155944820
0.344000000000000139,-17.328489403662182156
0.345000000000000140,-17.283759571618393380
0.346000000000000141,-17.235569607561142647
0.347000000000000142,-17.184096460937510642
0.348000000000000143,-17.129515149584321421
0.349000000000000143,-17.071998451336661162
0.350000000000000144,-17.011716614977778761
0.351000000000000145,-16.948837090634508940
0.352000000000000146,-16.883524279623223663
0.353000000000000147,-16.815939303660130122
0.354000000000000148,-16.746239793266862961
0.355000000000000149,-16.674579695126745094
0.356000000000000150,-16.601109098079437132
0.357000000000000151,-16.525974077380539029
0.358000000000000151,-16.449316556799086442
0.359000000000000152,-16.371274188077745038
0.360000000000000153,-16.291980247239816748
0.361000000000000154,-16.211563547190728229
0.362000000000000155,-16.130148366032038609
0.363000000000000156,-16.047854390480676301
0.364000000000000157,-15.964796673765723867
0.365000000000000158,-15.881085607359588963
0.366000000000000159,-15.796826905888233128
0.367000000000000159,-15.712121604557669485
0.368000000000000160,-15.627066068429394718
0.369000000000000161,-15.541752012876418831
0.370000000000000162,-15.456266534553318337
0.371000000000000163,-15.370692152218747850
0.372000000000000164,-15.285106856755010796
0.373000000000000165,-15.199584169739619455
0.374000000000000166,-15.114193209933995732
0.375000000000000167,-15.028998767067884401
0.376000000000000167,-14.944061382312469277
0.377000000000000168,-14.859437434850885751
0.378000000000000169,-14.775179233971746484
0.379000000000000170,-14.691335116129446092
0.380000000000000171,-14.607949546433507848
0.381000000000000172,-14.525063224048954780
0.382000000000000173,-14.442713191009275420
0.383000000000000174,-14.360932943964389352
0.384000000000000175,-14.279752548406261070
0.385000000000000175,-14.199198754935867584
0.386000000000000176,-14.119295117156127617
0.387000000000000177,-14.040062110796034389
0.388000000000000178,-13.961517253692472096
0.389000000000000179,-13.883675226276324111
0.390000000000000180,-13.806547992230198574
0.391000000000000181,-13.730144919004947823
0.392000000000000182,-13.654472897902076411
0.393000000000000183,-13.579536463448150130
0.394000000000000183,-13.505337911806492457
0.395000000000000184,-13.431877417989605661
0.396000000000000185,-13.359153151653686109
0.397000000000000186,-13.287161391274064925
0.398000000000000187,-13.215896636516891505
0.399000000000000188,-13.145351718638881522
0.400000000000000189,-13.075517908762353869
0.401000000000000190,-13.006385023887833796
0.402000000000000191,-12.937941530521019473
0.403000000000000191,-12.870174645804457469
0.404000000000000192,-12.803070436057751635
0.405000000000000193,-12.736613912642376079
0.406000000000000194,-12.670789125079494397
0.407000000000000195,-12.605579251360227389
0.408000000000000196,-12.540966685398769798
0.409000000000000197,-12.476933121588897890
0.410000000000000198,-12.413459636434126310
0.411000000000000199,-12.350526767230572744
0.412000000000000199,-12.288114587790444077
0.413000000000000200,-12.226202781201767067
0.414000000000000201,-12.164770709627642731
0.415000000000000202,-12.103797481155021742
0.416000000000000203,-12.043262013709762570
0.417000000000000204,-11.983143096060461019
0.418000000000000205,-11.923419445939217098
0.419000000000000206,-11.864069765312654781
0.420000000000000207,-11.805072792840881846
0.421000000000000207,-11.746407353566878484
0.422000000000000208,-11.688052405882061180
0.423000000000000209,-11.629987085817784731
0.424000000000000210,-11.572190748715474484
0.425000000000000211,-11.514643008330768481
0.426000000000000212,-11.457323773429910929
0.427000000000000213,-11.400213281938388121
0.428000000000000214,-11.343292132704046793
0.429000000000000214,-11.286541314938329350
0.430000000000000215,-11.229942235400692141
0.431000000000000216,-11.173476743392463106
0.432000000000000217,-11.117127153627070157
0.433000000000000218,-11.060876267044491783
0.434000000000000219,-11.004707389637975012
0.435000000000000220,-10.948604349361653831
0.436000000000000221,-10.892551511187393842
0.437000000000000222,-10.836533790379487385
0.438000000000000222,-10.780536664055365037
0.439000000000000223,-10.724546181100226505
0.440000000000000224,-10.668548970502900630
0.441000000000000225,-10.612532248179677552
0.442000000000000226,-10.556483822352207724
0.443000000000000227,-10.500392097544438030
0.444000000000000228,-10.444246077263029449
0.445000000000000229,-10.388035365424311607
0.446000000000000230,-10.331750166589923623
0.447000000000000230,-10.275381285072180404
0.448000000000000231,-10.218920122968828679
0.449000000000000232,-10.162358677185654443
0.450000000000000233,-10.105689535504179588
0.451000000000000234,-10.048905871750109853
0.452000000000000235,-9.992001440117061151
0.453000000000000236,-9.934970568698354043
0.454000000000000237,-9.877808152278644727
0.455000000000000238,-9.820509644435166052
0.456000000000000238,-9.763071048997367996
0.457000000000000239,-9.705488910911929779
0.458000000000000240,-9.647760306558788912
0.459000000000000241,-9.589882833562167974
0.460000000000000242,-9.531854600139370248
0.461000000000000243,-9.473674214028223517
0.462000000000000244,-9.415340771033049450
0.463000000000000245,-9.356853843226968337
0.464000000000000246,-9.298213466847579767
0.465000000000000246,-9.239420129920990377
0.466000000000000247,-9.180474759648117100
0.467000000000000248,-9.121378709585638234
0.468000000000000249,-9.062133746652635935
0.469000000000000250,-9.002742037992538471
0.470000000000000251,-8.943206137718757276
0.471000000000000252,-8.883528973570825826
0.472000000000000253,-8.823713833507095927
0.473000000000000254,-8.763764352258037960
0.474000000000000254,-8.703684497863719116
0.475000000000000255,-8.643478558217212893
0.476000000000000256,-8.583151127634970123
0.477000000000000257,-8.522707093473785633
0.478000000000000258,-8.462151622812884355
0.479000000000000259,-8.401490149218787451
0.480000000000000260,-8.340728359609309805
0.481000000000000261,-8.279872181232116546
0.482000000000000262,-8.218927768772397613
0.483000000000000262,-8.157901491603059441
0.484000000000000263,-8.096799921190042326
0.485000000000000264,-8.035629818664451918
0.486000000000000265,-7.974398122572320169
0.487000000000000266,-7.913111936811906943
0.488000000000000267,-7.851778518767835280
0.489000000000000268,-7.790405267650378107
0.490000000000000269,-7.728999713047555176
0.491000000000000270,-7.667569503697089672
0.492000000000000270,-7.606122396484268577
0.493000000000000271,-7.544666245671568738
0.494000000000000272,-7.483208992364839496
0.495000000000000273,-7.421758654220385942
0.496000000000000274,-7.360323315396928301
0.497000000000000275,-7.298911116755443018
0.498000000000000276,-7.237530246309733073
0.499000000000000277,-7.176188929929947946
0.500000000000000222,-7.114895422300621775
0.501000000000000334,-7.053657998134712059
0.502000000000000224,-6.992484943644366346
0.503000000000000336,-6.931384548268776591
0.504000000000000226,-6.870365096659438287
0.505000000000000338,-6.809434860922070065
0.506000000000000227,-6.748602093115034783
0.507000000000000339,-6.687875018002770844
0.508000000000000229,-6.627261826063355343
0.509000000000000341,-6.566770666748223739
0.510000000000000231,-6.506409641992651594
0.511000000000000343,-6.446186799974320536
0.512000000000000233,-6.386110129118190315
0.513000000000000345,-6.326187552344574527
0.514000000000000234,-6.266426921558197805
0.515000000000000346,-6.206836012374662204
0.516000000000000236,-6.147422519081774617
0.517000000000000348,-6.088194049831932020
0.518000000000000238,-6.029158122062527880
0.519000000000000350,-5.970322158140413116
0.520000000000000240,-5.911693481227040081
0.521000000000000352,-5.853279311360219062
0.522000000000000242,-5.795086761748728499
0.523000000000000353,-5.737122835275618726
0.524000000000000243,-5.679394421206283461
0.525000000000000355,-5.621908292096955861
0.526000000000000245,-5.564671100899632350
0.527000000000000357,-5.507689378258833202
0.528000000000000247,-5.450969529996287477
0.529000000000000359,-5.394517834778767451
0.530000000000000249,-5.338340441965079286
0.531000000000000361,-5.282443369627470631
0.532000000000000250,-5.226832502743372189
0.533000000000000362,-5.171513591552727718
0.534000000000000252,-5.116492250076809967
0.535000000000000364,-5.061773954793803654
0.536000000000000254,-5.007364043467101844
0.537000000000000366,-4.953267714121500909
0.538000000000000256,-4.899490024163427826
0.539000000000000368,-4.846035889640342376
0.540000000000000258,-4.792910084635552792
0.541000000000000369,-4.740117240793574993
0.542000000000000259,-4.687661846972408064
0.543000000000000371,-4.635548249018011546
0.544000000000000261,-4.583780649657190231
0.545000000000000373,-4.532363108504572580
0.546000000000000263,-4.481299542179825401
0.547000000000000375,-4.430593724530772270
0.548000000000000265,-4.380249286958997956
0.549000000000000377,-4.330269718843428706
0.550000000000000266,-4.280658368058626095
0.551000000000000378,-4.231418441583608470
0.552000000000000268,-4.182553006197777812
0.553000000000000380,-4.134064989260101797
0.554000000000000270,-4.085957179568188380
0.555000000000000382,-4.038232228293473725
0.556000000000000272,-3.990892649989432162
0.557000000000000384,-3.943940823669019657
0.558000000000000274,-3.897378993948490411
0.559000000000000385,-3.851209272253901528
0.560000000000000275,-3.805433638087578174
0.561000000000000387,-3.760053940351064661
0.562000000000000277,-3.715071898721796995
0.563000000000000389,-3.670489105080396719
0.564000000000000279,-3.626307024985792715
0.565000000000000391,-3.582526999195273731
0.566000000000000281,-3.539150245226815095
0.567000000000000393,-3.496177858960882734
0.568000000000000282,-3.453610816279323981
0.569000000000000394,-3.411449974738485658
0.570000000000000284,-3.369696075274480673
0.571000000000000396,-3.328349743937823124
0.572000000000000286,-3.287411493655459704
0.573000000000000398,-3.246881726017583070
0.574000000000000288,-3.206760733087357984
0.575000000000000400,-3.167048699231173714
0.576000000000000290,-3.127745702967542396
0.577000000000000401,-3.088851718832479332
0.578000000000000291,-3.050366619259604839
0.579000000000000403,-3.012290176472894210
0.580000000000000293,-2.974622064390484155
0.581000000000000405,-2.937361860537520908
0.582000000000000295,-2.900509047966674636
0.583000000000000407,-2.864063017184339976
0.584000000000000297,-2.828023068081253477
0.585000000000000409,-2.792388411865780462
0.586000000000000298,-2.757158172998599888
0.587000000000000410,-2.722331391127158717
0.588000000000000300,-2.687907023018811792
0.589000000000000412,-2.653883944491046698
0.590000000000000302,-2.620260952337816196
0.591000000000000414,-2.587036766250586428
0.592000000000000304,-2.554210030733083503
0.593000000000000416,-2.521779317008488785
0.594000000000000306,-2.489743124918230244
0.595000000000000417,-2.458099884811153490
0.596000000000000307,-2.426847959422268275
0.597000000000000419,-2.395985645740057013
0.598000000000000309,-2.365511176861551768
0.599000000000000421,-2.335422723834235104
0.600000000000000311,-2.305718397484132431
0.601000000000000423,-2.276396250229149931
0.602000000000000313,-2.247454277877185547
0.603000000000000425,-2.218890421408036051
0.604000000000000314,-2.190702568738834621
0.605000000000000426,-2.162888556472021939
0.606000000000000316,-2.135446171625656753
0.607000000000000428,-2.108373153345212803
0.608000000000000318,-2.081667194596645398
0.609000000000000430,-2.055325943840011771
0.610000000000000320,-2.029347006683437371
0.611000000000000432,-2.003727947516814822
0.612000000000000322,-1.978466291125059673
0.613000000000000433,-1.953559524280392257
0.614000000000000323,-1.929005097313483130
0.615000000000000435,-1.904800425663055519
0.616000000000000325,-1.880942891403765582
0.617000000000000437,-1.857429844752035653
0.618000000000000327,-1.834258605549719423
0.619000000000000439,-1.811426464725301333
0.620000000000000329,-1.788930685732561754
0.621000000000000441,-1.766768505966480163
0.622000000000000330,-1.744937138156301248
0.623000000000000442,-1.723433771735603415
0.624000000000000332,-1.702255574189361242
0.625000000000000444,-1.681399692377836930
0.626000000000000334,-1.660863253837338238
0.627000000000000446,-1.640643368057743690
0.628000000000000336,-1.620737127736819660
0.629000000000000448,-1.601141610011295402
0.630000000000000338,-1.581853877664776586
0.631000000000000449,-1.562870980312409230
0.632000000000000339,-1.544189955562479843
0.633000000000000451,-1.525807830154881417
0.634000000000000341,-1.507721621076626217
0.635000000000000453,-1.489928336654389840
0.636000000000000343,-1.472424977624255282
0.637000000000000455,-1.455208538178721867
0.638000000000000345,-1.438276006991139777
0.639000000000000457,-1.421624368217605294
0.640000000000000346,-1.405250602476601385
0.641000000000000458,-1.389151687806362334
0.642000000000000348,-1.373324600600278611
0.643000000000000460,-1.357766316520349292
0.644000000000000350,-1.342473811389022442
0.645000000000000462,-1.327444062059423668
0.646000000000000352,-1.312674047264335453
0.647000000000000464,-1.298160748443943469
0.648000000000000353,-1.283901150552744230
0.649000000000000465,-1.269892242845605423
0.650000000000000355,-1.256131019643403457
0.651000000000000467,-1.242614481078262445
0.652000000000000357,-1.229339633818773869
0.653000000000000469,-1.216303491775291734
0.654000000000000359,-1.203503076785652492
0.655000000000000471,-1.190935419281430763
0.656000000000000361,-1.178597558935090550
0.657000000000000473,-1.166486545288155430
0.658000000000000362,-1.154599438360745634
0.659000000000000474,-1.142933309242631479
