# Au-001-PE_CS-23329-AC
# h[nm],U(h)[kJ/mol]
0.149999999999999994,79.804794601496652717
0.150999999999999995,77.818298451068798727
0.151999999999999996,76.033406912109484210
0.152999999999999997,74.317389143998340728
0.153999999999999998,72.619336244498683186
0.154999999999999999,70.927844301231331769
0.156000000000000000,69.247634248720189021
0.157000000000000001,67.587558719496243498
0.158000000000000002,65.955194187263657568
0.159000000000000002,64.355033190294619772
0.160000000000000003,62.788475129497989258
0.161000000000000004,61.254572048217788449
0.162000000000000005,59.750960380645423697
0.163000000000000006,58.274698226568901305
0.164000000000000007,56.822896183163990713
0.165000000000000008,55.393122317124763754
0.166000000000000009,53.983607735054036425
0.167000000000000010,52.593297467460104144
0.168000000000000010,51.221794206898223933
0.169000000000000011,49.869237427891775383
0.170000000000000012,48.536152136611356411
0.171000000000000013,47.223292567319276714
0.172000000000000014,45.931497938441509632
0.173000000000000015,44.661570522629112645
0.174000000000000016,43.414180944964130049
0.175000000000000017,42.189801729143034947
0.176000000000000018,40.988667471427866928
0.177000000000000018,39.810758401587534649
0.178000000000000019,38.655803254412866465
0.179000000000000020,37.523297113096731437
0.180000000000000021,36.412530018124684261
0.181000000000000022,35.322622518716322304
0.182000000000000023,34.252564867856179376
0.183000000000000024,33.201257145191995335
0.184000000000000025,32.167548177460496106
0.185000000000000026,31.150271675946026306
0.186000000000000026,30.148278502106990118
0.187000000000000027,29.160464394405181565
0.188000000000000028,28.185792838028312701
0.189000000000000029,27.223313036545654597
0.190000000000000030,26.272173155995954374
0.191000000000000031,25.331629164883437966
0.192000000000000032,24.401049696366769126
0.193000000000000033,23.479917420020328223
0.194000000000000034,22.567827438025101827
0.195000000000000034,21.664483221916679412
0.196000000000000035,20.769690587644959123
0.197000000000000036,19.883350174323151549
0.198000000000000037,19.005448850383750425
0.199000000000000038,18.136050423764082495
0.200000000000000039,17.275285983272073764
0.201000000000000040,16.423344148780206098
0.202000000000000041,15.580461460111507677
0.203000000000000042,14.746913089648149509
0.204000000000000042,13.923004022622993858
0.205000000000000043,13.109060812224504033
0.206000000000000044,12.305423984259908465
0.207000000000000045,11.512441138188432177
0.208000000000000046,10.730460767708596137
0.209000000000000047,9.959826804509432918
0.210000000000000048,9.200873872954341337
0.211000000000000049,8.453923230997144600
0.212000000000000050,7.719279363148726425
0.213000000000000050,6.997227184443813641
0.214000000000000051,6.288029809723640895
0.215000000000000052,5.591926839807202398
0.216000000000000053,4.909133114944556731
0.217000000000000054,4.239837886036620596
0.218000000000000055,3.584204355204508197
0.219000000000000056,2.942369539167148940
0.220000000000000057,2.314444411334107610
0.221000000000000058,1.700514281377386805
0.222000000000000058,1.100639374156588968
0.223000000000000059,0.514855573127169563
0.224000000000000060,-0.056824703343917274
0.225000000000000061,-0.614411521070385547
0.226000000000000062,-1.157936369697233570
0.227000000000000063,-1.687451045037344333
0.228000000000000064,-2.203026493371572858
0.229000000000000065,-2.704751634337446919
0.230000000000000066,-3.192732176586234427
0.231000000000000066,-3.667089438159943260
0.232000000000000067,-4.127959181525364230
0.233000000000000068,-4.575490471399578318
0.234000000000000069,-5.009844561901408255
0.235000000000000070,-5.431193818156015318
0.236000000000000071,-5.839720676252531106
0.237000000000000072,-6.235616644395776120
0.238000000000000073,-6.619081347186229536
0.239000000000000073,-6.990321614194845878
0.240000000000000074,-7.349550613358525553
0.241000000000000075,-7.696987029191139307
0.242000000000000076,-8.032854285373902670
0.243000000000000077,-8.357379810944937759
0.244000000000000078,-8.670794349038404292
0.245000000000000079,-8.973331306919828165
0.246000000000000080,-9.265226145915150369
0.247000000000000081,-9.546715809729894531
0.248000000000000081,-9.818038189591534959
0.249000000000000082,-10.079431624617663843
0.250000000000000111,-10.331134435808253969
0.251000000000000112,-10.573384492076261409
0.252000000000000113,-10.806418806764064300
0.253000000000000114,-11.030473163136912618
0.254000000000000115,-11.245781767399327222
0.255000000000000115,-11.452576927839233534
0.256000000000000116,-11.651088758768551656
0.257000000000000117,-11.841544907994173030
0.258000000000000118,-12.024170306618250592
0.259000000000000119,-12.199186940031546911
0.260000000000000120,-12.366813639026148053
0.261000000000000121,-12.527265890013220329
0.262000000000000122,-12.680755663388744381
0.263000000000000123,-12.827491259142808744
0.264000000000000123,-12.967677168858068981
0.265000000000000124,-13.101513953288366210
0.266000000000000125,-13.229198134751007032
0.267000000000000126,-13.350922103604210278
0.268000000000000127,-13.466874038116912971
0.269000000000000128,-13.577237837069404236
0.270000000000000129,-13.682193064452238929
0.271000000000000130,-13.781914905657197679
0.272000000000000131,-13.876574134577154496
0.273000000000000131,-13.966337091053521391
0.274000000000000132,-14.051365668128738662
0.275000000000000133,-14.131817308579417869
0.276000000000000134,-14.207845010221593185
0.277000000000000135,-14.279597339494213060
0.278000000000000136,-14.347218452841286052
0.279000000000000137,-14.410848125425502531
0.280000000000000138,-14.470621786718826485
0.281000000000000139,-14.526670562526856401
0.282000000000000139,-14.579121323015403533
0.283000000000000140,-14.628096736318463300
0.284000000000000141,-14.673715327317779611
0.285000000000000142,-14.716091541194805004
0.286000000000000143,-14.755335811366672161
0.287000000000000144,-14.791554631428326161
0.288000000000000145,-14.824850630734186296
0.289000000000000146,-14.855322653263081989
0.290000000000000147,-14.883065839421703913
0.291000000000000147,-14.908171710452723602
0.292000000000000148,-14.930728255125256254
0.293000000000000149,-14.950820018396663968
0.294000000000000150,-14.968528191746338862
0.295000000000000151,-14.983930704893861474
0.296000000000000152,-14.997102318625788797
0.297000000000000153,-15.008114718467084003
0.298000000000000154,-15.017036608945264931
0.299000000000000155,-15.023933808207326379
0.300000000000000155,-15.028869342761414174
0.301000000000000156,-15.031903542127201590
0.302000000000000157,-15.033094133190848751
0.303000000000000158,-15.032496334072089184
0.304000000000000159,-15.030162947322963873
0.305000000000000160,-15.026144452288878739
0.306000000000000161,-15.020489096474330282
0.307000000000000162,-15.013242985766842352
0.308000000000000163,-15.004450173383370171
0.309000000000000163,-14.994152747414347004
0.310000000000000164,-14.982390916851077378
0.311000000000000165,-14.969203095992174468
0.312000000000000166,-14.954625987134875231
0.313000000000000167,-14.938694661466437097
0.314000000000000168,-14.921442638080241849
0.315000000000000169,-14.902901961050138979
0.316000000000000170,-14.883103274505268487
0.317000000000000171,-14.862075895655564750
0.318000000000000171,-14.839847885726470622
0.319000000000000172,-14.816446118768613616
0.320000000000000173,-14.791896348315592746
0.321000000000000174,-14.766223271869701961
0.322000000000000175,-14.739450593202098716
0.323000000000000176,-14.711601082459868195
0.324000000000000177,-14.682696634078334696
0.325000000000000178,-14.652758322502293709
0.326000000000000179,-14.621806455725101515
0.327000000000000179,-14.589860626659032050
0.328000000000000180,-14.556939762355005641
0.329000000000000181,-14.523062171093760853
0.330000000000000182,-14.488245587374233736
0.331000000000000183,-14.452507214828651527
0.332000000000000184,-14.415863767096684711
0.333000000000000185,-14.378331506694223663
0.334000000000000186,-14.339926281914751272
0.335000000000000187,-14.300663561803656165
0.336000000000000187,-14.260558469248163505
0.337000000000000188,-14.219625812226913908
0.338000000000000189,-14.177880113265526774
0.339000000000000190,-14.135335637145260534
0.340000000000000191,-14.092006416913326561
0.341000000000000192,-14.047906278244628453
0.342000000000000193,-14.003048862204911629
0.343000000000000194,-13.957447646466661695
0.344000000000000195,-13.911115965028718833
0.345000000000000195,-13.864067026491721180
0.346000000000000196,-13.816313930940827603
0.347000000000000197,-13.767869685487786668
0.348000000000000198,-13.718747218523892784
0.349000000000000199,-13.668959392735274605
0.350000000000000200,-13.618519016931660559
0.351000000000000201,-13.567438856739077124
0.352000000000000202,-13.515731644206610440
0.353000000000000203,-13.463410086376555341
0.354000000000000203,-13.410486872866622221
0.355000000000000204,-13.356974682511971508
0.356000000000000205,-13.302886189114138560
0.357000000000000206,-13.248234066342883253
0.358000000000000207,-13.193030991835902554
0.359000000000000208,-13.137289650540648012
0.360000000000000209,-13.081022737341118756
0.361000000000000210,-13.024242959011496978
0.362000000000000210,-12.966963035537485638
0.363000000000000211,-12.909195700844865229
0.364000000000000212,-12.850953702973825443
0.365000000000000213,-12.792249803736202907
0.366000000000000214,-12.733096777891857343
0.367000000000000215,-12.673507411878867757
0.368000000000000216,-12.613494502131475272
0.369000000000000217,-12.553070853017926467
0.370000000000000218,-12.492249274429791939
0.371000000000000218,-12.431042579052576258
0.372000000000000219,-12.369463579346675175
0.373000000000000220,-12.307525084266293547
0.374000000000000221,-12.245239895742942693
0.375000000000000222,-12.182620804958805394
0.376000000000000223,-12.119680588434372126
0.377000000000000224,-12.056432003953393206
0.378000000000000225,-11.992887786347262491
0.379000000000000226,-11.929060643159781208
0.380000000000000226,-11.864963250212344548
0.381000000000000227,-11.800608247088261393
0.382000000000000228,-11.736008232554375752
0.383000000000000229,-11.671175759936719629
0.384000000000000230,-11.606123332466244946
0.385000000000000231,-11.540863398609765511
0.386000000000000232,-11.475408347400165354
0.387000000000000233,-11.409770503779203210
0.388000000000000234,-11.343962123965326327
0.389000000000000234,-11.277995390858228220
0.390000000000000235,-11.211882409490780077
0.391000000000000236,-11.145635202538628050
0.392000000000000237,-11.079265705896592209
0.393000000000000238,-11.012785764330683236
0.394000000000000239,-10.946207127213437360
0.395000000000000240,-10.879541444350119050
0.396000000000000241,-10.812800261902237864
0.397000000000000242,-10.745995018414507882
0.398000000000000242,-10.679137040950738680
0.399000000000000243,-10.612237541343523262
0.400000000000000244,-10.545307612562110577
0.401000000000000245,-10.478358225202436316
0.402000000000000246,-10.411400224102546730
0.403000000000000247,-10.344444325086492142
0.404000000000000248,-10.277501111839114856
0.405000000000000249,-10.210581032913877308
0.406000000000000250,-10.143694398875373608
0.407000000000000250,-10.076851379577874468
0.408000000000000251,-10.010062001580855906
0.409000000000000252,-9.943336145702215134
0.410000000000000253,-9.876683544709381479
0.411000000000000254,-9.810113781148480427
0.412000000000000255,-9.743636285311207956
0.413000000000000256,-9.677260333339010145
0.414000000000000257,-9.610995045463683439
0.415000000000000258,-9.544849384383553570
0.416000000000000258,-9.478832153773993241
0.417000000000000259,-9.412951996930877030
0.418000000000000260,-9.347217395545463603
0.419000000000000261,-9.281636668608907570
0.420000000000000262,-9.216217971444574886
0.421000000000000263,-9.150969294866143855
0.422000000000000264,-9.085898464459249979
0.423000000000000265,-9.021013139984447093
0.424000000000000266,-8.956320814899214611
0.425000000000000266,-8.891828815996291269
0.426000000000000267,-8.827544303156006578
0.427000000000000268,-8.763474269209837075
0.428000000000000269,-8.699625539912492656
0.429000000000000270,-8.636004774019856001
0.430000000000000271,-8.572618463469812156
0.431000000000000272,-8.509472933663257521
0.432000000000000273,-8.446574343842282673
0.433000000000000274,-8.383928687562690385
0.434000000000000274,-8.321541793257832609
0.435000000000000275,-8.259419324890879821
0.436000000000000276,-8.197566782692536691
0.437000000000000277,-8.135989503981187809
0.438000000000000278,-8.074692664062563807
0.439000000000000279,-8.013681277206000431
0.440000000000000280,-7.952960197694212141
0.441000000000000281,-7.892534120943788700
0.442000000000000282,-7.832407584693477531
0.443000000000000282,-7.772584970257247150
0.444000000000000283,-7.713070503839466241
0.445000000000000284,-7.653868257909204331
0.446000000000000285,-7.594982152630905148
0.447000000000000286,-7.536415957348785000
0.448000000000000287,-7.478173292122003879
0.449000000000000288,-7.420257629308201430
0.450000000000000289,-7.362672295192529859
0.451000000000000290,-7.305420471659720860
0.452000000000000290,-7.248505197906633946
0.453000000000000291,-7.191929372192717551
0.454000000000000292,-7.135695753626035476
0.455000000000000293,-7.079806963982352208
0.456000000000000294,-7.024265489555043374
0.457000000000000295,-6.969073683033451871
0.458000000000000296,-6.914233765407489685
0.459000000000000297,-6.859747827896315542
0.460000000000000298,-6.805617833898902624
0.461000000000000298,-6.751845620964473937
0.462000000000000299,-6.698432902780778520
0.463000000000000300,-6.645381271178196769
0.464000000000000301,-6.592692198147815930
0.465000000000000302,-6.540367037871607003
0.466000000000000303,-6.488407028762892992
0.467000000000000304,-6.436813295515348088
0.468000000000000305,-6.385586851158897126
0.469000000000000306,-6.334728599120784232
0.470000000000000306,-6.284239335290363826
0.471000000000000307,-6.234119750085905132
0.472000000000000308,-6.184370430522131201
0.473000000000000309,-6.134991862276907071
0.474000000000000310,-6.085984431755801616
0.475000000000000311,-6.037348428153134883
0.476000000000000312,-5.989084045508366039
0.477000000000000313,-5.941191384756402627
0.478000000000000314,-5.893670455770844363
0.479000000000000314,-5.846521179398959767
0.480000000000000315,-5.799743389487280965
0.481000000000000316,-5.753336834896892960
0.482000000000000317,-5.707301181507337340
0.483000000000000318,-5.661636014208225376
0.484000000000000319,-5.616340838877675878
0.485000000000000320,-5.571415084346730495
0.486000000000000321,-5.526858104348904455
0.487000000000000322,-5.482669179454144448
0.488000000000000322,-5.438847518986394292
0.489000000000000323,-5.395392262924194604
0.490000000000000324,-5.352302483783558884
0.491000000000000325,-5.309577188482571763
0.492000000000000326,-5.267215320187071725
0.493000000000000327,-5.225215760136975973
0.494000000000000328,-5.183577329452637272
0.495000000000000329,-5.142298790920821538
0.496000000000000330,-5.101378850759841654
0.497000000000000330,-5.060816160363439842
0.498000000000000331,-5.020609318023025125
0.499000000000000332,-4.980756870627983446
0.500000000000000333,-4.941257315343634993
0.501000000000000334,-4.902109101266633573
0.502000000000000335,-4.863310631057483846
0.503000000000000336,-4.824860262550017431
0.504000000000000337,-4.786756310337497489
0.505000000000000338,-4.748997047335274502
0.506000000000000338,-4.711580706319779210
0.507000000000000339,-4.674505481443684829
0.508000000000000340,-4.637769529727160389
0.509000000000000341,-4.601370972525147707
0.510000000000000342,-4.565307896970466572
0.511000000000000343,-4.529578357392827215
0.512000000000000344,-4.494180376713606151
0.513000000000000345,-4.459111947816423616
0.514000000000000346,-4.424371034893519017
0.515000000000000346,-4.389955574767888891
0.516000000000000347,-4.355863478191245974
0.517000000000000348,-4.322092631117915751
0.518000000000000349,-4.288640895954556775
0.519000000000000350,-4.255506112785968575
0.520000000000000351,-4.222686100576945378
0.521000000000000352,-4.190178658350350638
0.522000000000000353,-4.157981566341481638
0.523000000000000353,-4.126092587128828093
0.524000000000000354,-4.094509466741476089
0.525000000000000355,-4.063229935743146726
0.526000000000000356,-4.032251710293119018
0.527000000000000357,-4.001572493184228918
0.528000000000000358,-3.971189974858005289
0.529000000000000359,-3.941101834397256365
0.530000000000000360,-3.911305740496197281
0.531000000000000361,-3.881799352408385140
0.532000000000000361,-3.852580320872617481
0.533000000000000362,-3.823646289017044175
0.534000000000000363,-3.794994893241701472
0.535000000000000364,-3.766623764079662262
0.536000000000000365,-3.738530527037087214
0.537000000000000366,-3.710712803412370420
0.538000000000000367,-3.683168211094616229
0.539000000000000368,-3.655894365341756380
0.540000000000000369,-3.628888879538423762
0.541000000000000369,-3.602149365934003811
0.542000000000000370,-3.575673436360974566
0.543000000000000371,-3.549458702933855569
0.544000000000000372,-3.523502778729040052
0.545000000000000373,-3.497803278445741348
0.546000000000000374,-3.472357819048319527
0.547000000000000375,-3.447164020390258710
0.548000000000000376,-3.422219505820113916
0.549000000000000377,-3.397521902769597091
0.550000000000000377,-3.373068843324154464
0.551000000000000378,-3.348857964776268403
0.552000000000000379,-3.324886910161776399
0.553000000000000380,-3.301153328779469653
0.554000000000000381,-3.277654876694212849
0.555000000000000382,-3.254389217223945252
0.556000000000000383,-3.231354021410706601
0.557000000000000384,-3.208546968476095884
0.558000000000000385,-3.185965746261314901
0.559000000000000385,-3.163608051652159858
0.560000000000000386,-3.141471590989162621
0.561000000000000387,-3.119554080463196932
0.562000000000000388,-3.097853246496784951
0.563000000000000389,-3.076366826111395003
0.564000000000000390,-3.055092567280971227
0.565000000000000391,-3.034028229271978017
0.566000000000000392,-3.013171582970209705
0.567000000000000393,-2.992520411194633745
0.568000000000000393,-2.972072508998505835
0.569000000000000394,-2.951825683958037239
0.570000000000000395,-2.931777756448860295
0.571000000000000396,-2.911926559910515522
0.572000000000000397,-2.892269941099280040
0.573000000000000398,-2.872805760329474989
0.574000000000000399,-2.853531891703632528
0.575000000000000400,-2.834446223331622328
0.576000000000000401,-2.815546657539090170
0.577000000000000401,-2.796831111065398279
0.578000000000000402,-2.778297515251286320
0.579000000000000403,-2.759943816216516410
0.580000000000000404,-2.741767975027722848
0.581000000000000405,-2.723767967856685956
0.582000000000000406,-2.705941786129252069
0.583000000000000407,-2.688287436665128816
0.584000000000000408,-2.670802941808778641
0.585000000000000409,-2.653486339551595297
0.586000000000000409,-2.636335683645625316
0.587000000000000410,-2.619349043708997016
0.588000000000000411,-2.602524505323283499
0.589000000000000412,-2.585860170123021273
0.590000000000000413,-2.569354155877532797
0.591000000000000414,-2.553004596565311424
0.592000000000000415,-2.536809642441134827
0.593000000000000416,-2.520767460096076995
0.594000000000000417,-2.504876232510640399
0.595000000000000417,-2.489134159101218380
0.596000000000000418,-2.473539455759955707
0.597000000000000419,-2.458090354888367024
0.598000000000000420,-2.442785105424695402
0.599000000000000421,-2.427621972865356526
0.600000000000000422,-2.412599239280503571
0.601000000000000423,-2.397715203323985911
0.602000000000000424,-2.382968180237789113
0.603000000000000425,-2.368356501851162754
0.604000000000000425,-2.353878516574585245
0.605000000000000426,-2.339532589388707340
0.606000000000000427,-2.325317101828474176
0.607000000000000428,-2.311230451962474230
0.608000000000000429,-2.297271054367825194
0.609000000000000430,-2.283437340100549218
