# Au-001-PE_CS-68900-AC
# h[nm],U(h)[kJ/mol]
0.200000000000000011,57.679982514935900895
0.201000000000000012,57.201883379154011777
0.202000000000000013,55.954154878985676191
0.203000000000000014,54.378799299722913929
0.204000000000000015,52.721822225750337054
0.205000000000000016,51.105918559202478946
0.206000000000000016,49.579665927952589755
0.207000000000000017,48.150048342413683145
0.208000000000000018,46.803309905788239575
0.209000000000000019,45.517771860621813573
0.210000000000000020,44.271227535606485048
0.211000000000000021,43.044775027538641154
0.212000000000000022,41.824392272555805050
0.213000000000000023,40.601154119981742951
0.214000000000000024,39.370698357219865215
0.215000000000000024,38.132338580938771599
0.216000000000000025,36.888074543765604574
0.217000000000000026,35.641648639563982215
0.218000000000000027,34.397728129791147467
0.219000000000000028,33.161247292823716748
0.220000000000000029,31.936915015030610476
0.221000000000000030,30.728876362177686588
0.222000000000000031,29.540507663218960488
0.223000000000000032,28.374320922219407493
0.224000000000000032,27.231953030801900439
0.225000000000000033,26.114216934253306590
0.226000000000000034,25.021194678720089399
0.227000000000000035,23.952355509238635989
0.228000000000000036,22.906685493008101417
0.229000000000000037,21.882818259980972186
0.230000000000000038,20.879159243385636557
0.231000000000000039,19.893998200657549091
0.232000000000000040,18.925606784286635786
0.233000000000000040,17.972319527403893602
0.234000000000000041,17.032597844094532036
0.235000000000000042,16.105077562544526160
0.236000000000000043,15.188601156812202575
0.237000000000000044,14.282236266455717200
0.238000000000000045,13.385282335754208560
0.239000000000000046,12.497267304920729458
0.240000000000000047,11.617936278701238351
0.241000000000000048,10.747234012252306457
0.242000000000000048,9.885282914470344906
0.243000000000000049,9.032358094786889779
0.244000000000000050,8.188860786586227292
0.245000000000000051,7.355291281030875261
0.246000000000000052,6.532222308382498177
0.247000000000000053,5.720273616505716419
0.248000000000000054,4.920088322697249161
0.249000000000000055,4.132311458154670269
0.250000000000000056,3.357570985823805643
0.251000000000000056,2.596461452546558135
0.252000000000000057,1.849530335107318235
0.253000000000000058,1.117267056122544400
0.254000000000000059,0.400094578523563282
0.255000000000000060,-0.301636564803293428
0.256000000000000061,-0.987651988422909688
0.257000000000000062,-1.657755127992034616
0.258000000000000063,-2.311827096145546268
0.259000000000000064,-2.949824954859790349
0.260000000000000064,-3.571778639605874162
0.261000000000000065,-4.177786765894345500
0.262000000000000066,-4.768011539530639276
0.263000000000000067,-5.342672979128469279
0.264000000000000068,-5.902042644121065607
0.265000000000000069,-6.446437044488376955
0.266000000000000070,-6.976210890379057616
0.267000000000000071,-7.491750321336989593
0.268000000000000071,-7.993466236419381588
0.269000000000000072,-8.481787828505741089
0.270000000000000073,-8.957156408844063833
0.271000000000000074,-9.420019591591099584
0.272000000000000075,-9.870825892942917790
0.273000000000000076,-10.310019785528199421
0.274000000000000077,-10.738037236115639317
0.275000000000000078,-11.155301743393014391
0.276000000000000079,-11.562220882603305938
0.277000000000000079,-11.959183355143899519
0.278000000000000080,-12.346556533794991850
0.279000000000000081,-12.724684487982568015
0.280000000000000082,-13.093886468319819727
0.281000000000000083,-13.454455825530137858
0.282000000000000084,-13.806659335644482667
0.283000000000000085,-14.150736901000328771
0.284000000000000086,-14.486901594959155304
0.285000000000000087,-14.815340017316751542
0.286000000000000087,-15.136212927024661923
0.287000000000000088,-15.449656118989864240
0.288000000000000089,-15.755781512299460445
0.289000000000000090,-16.054678418158548681
0.290000000000000091,-16.346414957066233598
0.291000000000000092,-16.631039596230898781
0.292000000000000093,-16.908582779885556135
0.293000000000000094,-17.179058626960816980
0.294000000000000095,-17.442466672464316702
0.295000000000000095,-17.698793630863793425
0.296000000000000096,-17.948015161742912227
0.297000000000000097,-18.190097619968110365
0.298000000000000098,-18.424999774545440800
0.299000000000000099,-18.652674482240144016
0.300000000000000100,-18.873070303860377095
0.301000000000000101,-19.086133052859203474
0.302000000000000102,-19.291807267571730478
0.303000000000000103,-19.490037599974080251
0.304000000000000103,-19.680770115316640556
0.305000000000000104,-19.863953498347157733
0.306000000000000105,-20.039540163095114877
0.307000000000000106,-20.207487264337238742
0.308000000000000107,-20.367757609907645389
0.309000000000000108,-20.520320473954932083
0.310000000000000109,-20.665152312087478492
0.311000000000000110,-20.802237380088335783
0.312000000000000111,-20.931568258530553805
0.313000000000000111,-21.053146286182375491
0.314000000000000112,-21.166981905569070221
0.315000000000000113,-21.273094924456010801
0.316000000000000114,-21.371514697343755529
0.317000000000000115,-21.462280231323443758
0.318000000000000116,-21.545440220837761558
0.319000000000000117,-21.621053016031641647
0.320000000000000118,-21.689186529465295905
0.321000000000000119,-21.749918086003471984
0.322000000000000119,-21.803334220694914336
0.323000000000000120,-21.849530429418415167
0.324000000000000121,-21.888610877002733446
0.325000000000000122,-21.920688067428933721
0.326000000000000123,-21.945882480601060394
0.327000000000000124,-21.964322180027291864
0.328000000000000125,-21.976142395592876966
0.329000000000000126,-21.981485085429955717
0.330000000000000127,-21.980498480702831188
0.331000000000000127,-21.973336616931053555
0.332000000000000128,-21.960158855270272227
0.333000000000000129,-21.941129396964548448
0.334000000000000130,-21.916416793974072164
0.335000000000000131,-21.886193458573814041
0.336000000000000132,-21.850635174508902026
0.337000000000000133,-21.809920612087321246
0.338000000000000134,-21.764230849387324440
0.339000000000000135,-21.713748901558965088
0.340000000000000135,-21.658659260006835723
0.341000000000000136,-21.599147443054285134
0.342000000000000137,-21.535399559510199907
0.343000000000000138,-21.467601886386677990
0.344000000000000139,-21.395940461851903791
0.345000000000000140,-21.320600694345483106
0.346000000000000141,-21.241766988635230717
0.347000000000000142,-21.159622389454433744
0.348000000000000143,-21.074348243226772581
0.349000000000000143,-20.986123878262759490
0.350000000000000144,-20.895126303696649472
0.351000000000000145,-20.801529927325649538
0.352000000000000146,-20.705506292414845859
0.353000000000000147,-20.607223833440009741
0.354000000000000148,-20.506847650657281434
0.355000000000000149,-20.404539303312773768
0.356000000000000150,-20.300456621236477872
0.357000000000000151,-20.194753534502666525
0.358000000000000151,-20.087579920784015997
0.359000000000000152,-19.979081469977025165
0.360000000000000153,-19.869399565633706572
0.361000000000000154,-19.758671182696520674
0.362000000000000155,-19.647028801001518161
0.363000000000000156,-19.534600333987516052
0.364000000000000157,-19.421509072026175602
0.365000000000000158,-19.307873639770413376
0.366000000000000159,-19.193807966903861484
0.367000000000000159,-19.079421271664074311
0.368000000000000160,-18.964818056505755806
0.369000000000000161,-18.850098115266149534
0.370000000000000162,-18.735356551194662700
0.371000000000000163,-18.620683805210966000
0.372000000000000164,-18.506165693759982105
0.373000000000000165,-18.391883455639771228
0.374000000000000166,-18.277913807186422446
0.375000000000000167,-18.164329005211445889
0.376000000000000167,-18.051196917098984329
0.377000000000000168,-17.938581097483869087
0.378000000000000169,-17.826540870946651296
0.379000000000000170,-17.715131420177751664
0.380000000000000171,-17.604403879079203676
0.381000000000000172,-17.494405430290832726
0.382000000000000173,-17.385179406645288935
0.383000000000000174,-17.276765396075585812
0.384000000000000175,-17.169199349517430875
0.385000000000000175,-17.062513691368355495
0.386000000000000176,-16.956737432085002837
0.387000000000000177,-16.851896282519359005
0.388000000000000178,-16.748012769614714301
0.389000000000000179,-16.645106353101148500
0.390000000000000180,-16.543193542849898847
0.391000000000000181,-16.442288016565129283
0.392000000000000182,-16.342400737510256903
0.393000000000000183,-16.243540071984593709
0.394000000000000183,-16.145711906284184067
0.395000000000000184,-16.048919762898552932
0.396000000000000185,-15.953164915712022776
0.397000000000000186,-15.858446503995560661
0.398000000000000187,-15.764761644991022393
0.399000000000000188,-15.672105544905672758
0.400000000000000189,-15.580471608150162410
0.401000000000000190,-15.489851544667748939
0.402000000000000191,-15.400235475216913272
0.403000000000000191,-15.311612034482999789
0.404000000000000192,-15.223968471907705080
0.405000000000000193,-15.137290750137637474
0.406000000000000194,-15.051563641005264671
0.407000000000000195,-14.966770818966821821
0.408000000000000196,-14.882894951932698291
0.409000000000000197,-14.799917789435989235
0.410000000000000198,-14.717820248094861668
0.411000000000000199,-14.636582494333350013
0.412000000000000199,-14.556184024334104521
0.413000000000000200,-14.476603741204698395
0.414000000000000201,-14.397820029346956261
0.415000000000000202,-14.319810826025641148
0.416000000000000203,-14.242553690140107747
0.417000000000000204,-14.166025868208285132
0.418000000000000205,-14.090204357578622663
0.419000000000000206,-14.015065966890801974
0.420000000000000207,-13.940587373811146321
0.421000000000000207,-13.866745180073351662
0.422000000000000208,-13.793515963859075413
0.423000000000000209,-13.720876329557373907
0.424000000000000210,-13.648802954944835975
0.425000000000000211,-13.577272635832020597
0.426000000000000212,-13.506262328224298841
0.427000000000000213,-13.435749188047967806
0.428000000000000214,-13.365710608494731915
0.429000000000000214,-13.296124255039581286
0.430000000000000215,-13.226968098188933709
0.431000000000000216,-13.158220444017421968
0.432000000000000217,-13.089859962552784722
0.433000000000000218,-13.021865714069537745
0.434000000000000219,-12.954217173352907011
0.435000000000000220,-12.886894251995098415
0.436000000000000221,-12.819877318786335962
0.437000000000000222,-12.753147218263645613
0.438000000000000222,-12.686685287480148787
0.439000000000000223,-12.620473371057947531
0.440000000000000224,-12.554493834587130863
0.441000000000000225,-12.488729576433440727
0.442000000000000226,-12.423164038016679456
0.443000000000000227,-12.357781212621103961
0.444000000000000228,-12.292565652798939979
0.445000000000000229,-12.227502476426911571
0.446000000000000230,-12.162577371475196131
0.447000000000000230,-12.097776599547245269
0.448000000000000231,-12.033086998247947363
0.449000000000000232,-11.968495982436472502
0.450000000000000233,-11.903991544419401549
0.451000000000000234,-11.839562253138138814
0.452000000000000235,-11.775197252403959425
0.453000000000000236,-11.710886258232310553
0.454000000000000237,-11.646619555327298201
0.455000000000000238,-11.582387992765477591
0.456000000000000238,-11.518182978927240967
0.457000000000000239,-11.453996475722467707
0.458000000000000240,-11.389820992156010959
0.459000000000000241,-11.325649577276994506
0.460000000000000242,-11.261475812554950338
0.461000000000000243,-11.197293803723992411
0.462000000000000244,-11.133098172135451165
0.463000000000000245,-11.068884045657332749
0.464000000000000246,-11.004647049158505112
0.465000000000000246,-10.940383294613399201
0.466000000000000247,-10.876089370862137784
0.467000000000000248,-10.811762333059625973
0.468000000000000249,-10.747399691845760827
0.469000000000000250,-10.682999402267736144
0.470000000000000251,-10.618559852484114714
0.471000000000000252,-10.554079852279063090
0.472000000000000253,-10.489558621414138528
0.473000000000000254,-10.424995777843474087
0.474000000000000254,-10.360391325817403185
0.475000000000000255,-10.295745643898110089
0.476000000000000256,-10.231059472910022379
0.477000000000000257,-10.166333903846416220
0.478000000000000258,-10.101570365752555958
0.479000000000000259,-10.036770613605002112
0.480000000000000260,-9.971936716205185292
0.481000000000000261,-9.907071044104808877
0.482000000000000262,-9.842176257579389187
0.483000000000000262,-9.777255294665520680
0.484000000000000263,-9.712311359276252887
0.485000000000000264,-9.647347909408427569
0.486000000000000265,-9.582368645454756972
0.487000000000000266,-9.517377498632548338
0.488000000000000267,-9.452378619540350968
0.489000000000000268,-9.387376366852993925
0.490000000000000269,-9.322375296164524983
0.491000000000000270,-9.257380148988193724
0.492000000000000270,-9.192395841921520372
0.493000000000000271,-9.127427455984276961
0.494000000000000272,-9.062480226136090167
0.495000000000000273,-8.997559530980115738
0.496000000000000274,-8.932670882658515055
0.497000000000000275,-8.867819916944783998
0.498000000000000276,-8.803012383537659247
0.499000000000000277,-8.738254136560630769
0.500000000000000222,-8.673551125270599016
0.501000000000000334,-8.608909384978845836
0.502000000000000224,-8.544335028186997860
0.503000000000000336,-8.479834235939966547
0.504000000000000226,-8.415413249398053352
0.505000000000000338,-8.351078361629117097
0.506000000000000227,-8.286835909622347174
0.507000000000000339,-8.222692266523818461
0.508000000000000229,-8.158653834094575785
0.509000000000000341,-8.094727035390839376
0.510000000000000231,-8.030918307666487621
0.511000000000000343,-7.967234095496768198
0.512000000000000233,-7.903680844122773053
0.513000000000000345,-7.840264993015209072
0.514000000000000234,-7.776992969656555843
0.515000000000000346,-7.713871183539471765
0.516000000000000236,-7.650906020380267236
0.517000000000000348,-7.588103836544926040
0.518000000000000238,-7.525470953685976738
0.519000000000000350,-7.463013653587455387
0.520000000000000240,-7.400738173215846594
0.521000000000000352,-7.338650699974079039
0.522000000000000242,-7.276757367156042378
0.523000000000000353,-7.215064249598479584
0.524000000000000243,-7.153577359527507618
0.525000000000000355,-7.092302642596425066
0.526000000000000245,-7.031245974111861585
0.527000000000000357,-6.970413155444636466
0.528000000000000247,-6.909809910622383811
0.529000000000000359,-6.849441883100115369
0.530000000000000249,-6.789314632705560015
0.531000000000000361,-6.729433632755475791
0.532000000000000250,-6.669804267339634052
0.533000000000000362,-6.610431828768549067
0.534000000000000252,-6.551321515181600219
0.535000000000000364,-6.492478428311622807
0.536000000000000254,-6.433907571402571079
0.537000000000000366,-6.375613847276134116
0.538000000000000256,-6.317602056544151523
0.539000000000000368,-6.259876895962518617
0.540000000000000258,-6.202442956923478690
0.541000000000000369,-6.145304724082005343
0.542000000000000259,-6.088466574113203578
0.543000000000000371,-6.031932774596485913
0.544000000000000261,-5.975707483023347422
0.545000000000000373,-5.919794745924773949
0.546000000000000263,-5.864198498114996383
0.547000000000000375,-5.808922562047603932
0.548000000000000265,-5.753970647281086315
0.549000000000000377,-5.699346350049605547
0.550000000000000266,-5.645053152936187146
0.551000000000000378,-5.591094424644419192
0.552000000000000268,-5.537473419865609259
0.553000000000000380,-5.484193279237849161
0.554000000000000270,-5.431257029393913527
0.555000000000000382,-5.378667583094464355
0.556000000000000272,-5.326427739443761133
0.557000000000000384,-5.274540184184291824
0.558000000000000274,-5.223007490067708147
0.559000000000000385,-5.171832117298558629
0.560000000000000275,-5.121016414048294330
0.561000000000000387,-5.070562617036252107
0.562000000000000277,-5.020472852174981959
0.563000000000000389,-4.970749135276983921
0.564000000000000279,-4.921393372820183743
0.565000000000000391,-4.872407362769356709
0.566000000000000281,-4.823792795450963844
0.567000000000000393,-4.775551254478662244
0.568000000000000282,-4.727684217727222027
0.569000000000000394,-4.680193058352001501
0.570000000000000284,-4.633079045852014133
0.571000000000000396,-4.586343347173794882
0.572000000000000286,-4.539987027854182955
0.573000000000000398,-4.494011053199384875
0.574000000000000288,-4.448416289498475784
0.575000000000000400,-4.403203505268978191
0.576000000000000290,-4.358373372532619250
0.577000000000000401,-4.313926468119064772
0.578000000000000291,-4.269863274995892688
0.579000000000000403,-4.226184183622689439
0.580000000000000293,-4.182889493327621722
0.581000000000000405,-4.139979413704448774
0.582000000000000295,-4.097454066028545228
0.583000000000000407,-4.055313484689898829
0.584000000000000297,-4.013557618641748981
0.585000000000000409,-3.972186332863034686
0.586000000000000298,-3.931199409833365799
0.587000000000000410,-3.890596551018723037
0.588000000000000300,-3.850377378366796055
0.589000000000000412,-3.810541435810230304
0.590000000000000302,-3.771088190776725302
0.591000000000000414,-3.732017035704497943
0.592000000000000304,-3.693327289561975757
0.593000000000000416,-3.655018199370404286
0.594000000000000306,-3.617088941728348495
0.595000000000000417,-3.579538624336830566
0.596000000000000307,-3.542366287524136403
0.597000000000000419,-3.505570905769168633
0.598000000000000309,-3.469151389222457027
0.599000000000000421,-3.433106585223729468
0.600000000000000311,-3.397435279815312015
0.601000000000000423,-3.362136199250265634
0.602000000000000313,-3.327208011494686701
0.603000000000000425,-3.292649327723023767
0.604000000000000314,-3.258458703806065504
0.605000000000000426,-3.224634641790414147
0.606000000000000316,-3.191175591369182385
0.607000000000000428,-3.158079951342849689
0.608000000000000318,-3.125346071070011611
0.609000000000000430,-3.092972251907073478
0.610000000000000320,-3.060956748636658897
0.611000000000000432,-3.029297770883851992
0.612000000000000322,-2.997993484520085961
0.613000000000000433,-2.967042013053915461
0.614000000000000323,-2.936441439008424137
0.615000000000000435,-2.906189805284698391
0.616000000000000325,-2.876285116511067663
0.617000000000000437,-2.846725340377633806
0.618000000000000327,-2.817508408955840871
0.619000000000000439,-2.788632220002640327
0.620000000000000329,-2.760094638249058097
0.621000000000000441,-2.731893496672795685
0.622000000000000330,-2.704026597754650929
0.623000000000000442,-2.676491714718459924
0.624000000000000332,-2.649286592754436676
0.625000000000000444,-2.622408950225576962
0.626000000000000334,-2.595856479857078902
0.627000000000000446,-2.569626849908494215
0.628000000000000336,-2.543717705328558676
0.629000000000000448,-2.518126668892489040
0.630000000000000338,-2.492851342321751762
0.631000000000000449,-2.467889307386008202
0.632000000000000339,-2.443238126987406389
0.633000000000000451,-2.418895346226915155
0.634000000000000341,-2.394858493452827197
0.635000000000000453,-2.371125081291258763
0.636000000000000343,-2.347692607658725450
0.637000000000000455,-2.324558556756690653
0.638000000000000345,-2.301720400048190562
0.639000000000000457,-2.279175597216382521
0.640000000000000346,-2.256921597105261856
0.641000000000000458,-2.234955838642343817
0.642000000000000348,-2.213275751743561059
0.643000000000000460,-2.191878758200239474
0.644000000000000350,-2.170762272548424132
0.645000000000000462,-2.149923702920382151
0.646000000000000352,-2.129360451878621330
0.647000000000000464,-2.109069917232257119
0.648000000000000353,-2.089049492836077881
0.649000000000000465,-2.069296569372142347
0.650000000000000355,-2.049808535114312935
0.651000000000000467,-2.030582776675541101
0.652000000000000357,-2.011616679738299052
0.653000000000000469,-1.992907629768068789
0.654000000000000359,-1.974453012710199129
0.655000000000000471,-1.956250215670112924
0.656000000000000361,-1.938296627577170694
0.657000000000000473,-1.920589639832172013
0.658000000000000362,-1.903126646938816169
