# Au-001-PE_CS-61686-AC
# h[nm],U(h)[kJ/mol]
0.149999999999999994,81.236952411039098365
0.150999999999999995,79.723228766667276091
0.151999999999999996,77.967115935220732581
0.152999999999999997,76.198877931120506446
0.153999999999999998,74.487989225869213783
0.154999999999999999,72.835982527631273342
0.156000000000000000,71.223274961173814290
0.157000000000000001,69.630161973614548288
0.158000000000000002,68.044134720464555244
0.159000000000000002,66.460600136193448861
0.160000000000000003,64.880940464324297068
0.161000000000000004,63.309954641866625025
0.162000000000000005,61.753621675170379035
0.163000000000000006,60.217516321658123957
0.164000000000000007,58.705895590521855354
0.165000000000000008,57.221336693635876713
0.166000000000000009,55.764765488333729593
0.167000000000000010,54.335721864190077213
0.168000000000000010,52.932737142406459441
0.169000000000000011,51.553732876626703785
0.170000000000000012,50.196382522165677642
0.171000000000000013,48.858403819775709565
0.172000000000000014,47.537769500747977247
0.173000000000000015,46.232837467743479465
0.174000000000000016,44.942409940313538641
0.175000000000000017,43.665735350091750888
0.176000000000000018,42.402468151746312230
0.177000000000000018,41.152601148636094308
0.178000000000000019,39.916383190302795470
0.179000000000000020,38.694232765522613704
0.180000000000000021,37.486655504043980613
0.181000000000000022,36.294171187480216645
0.182000000000000023,35.117253721319102056
0.183000000000000024,33.956285720702808817
0.184000000000000025,32.811527940074988408
0.185000000000000026,31.683102720158082377
0.186000000000000026,30.570989900604065070
0.187000000000000027,29.475033206062668967
0.188000000000000028,28.394954905567281855
0.189000000000000029,27.330376518809213593
0.190000000000000030,26.280843450659091332
0.191000000000000031,25.245851635523916201
0.192000000000000032,24.224874530678260243
0.193000000000000033,23.217389084112120656
0.194000000000000034,22.222899595552050300
0.195000000000000034,21.240958672668284635
0.196000000000000035,20.271184746537603161
0.197000000000000036,19.313275843759488026
0.198000000000000037,18.367019513116854768
0.199000000000000038,17.432298970827922346
0.200000000000000039,16.509095660702595154
0.201000000000000040,15.597488525743216314
0.202000000000000041,14.697650358705306672
0.203000000000000042,13.809841644214083445
0.204000000000000042,12.934402327838270708
0.205000000000000043,12.071741951730814435
0.206000000000000044,11.222328585604595119
0.207000000000000045,10.386676959247058250
0.208000000000000046,9.565336171504267071
0.209000000000000047,8.758877313352048333
0.210000000000000048,7.967881301625039825
0.211000000000000049,7.192927177137863559
0.212000000000000050,6.434581077900192625
0.213000000000000050,5.693386056179436494
0.214000000000000051,4.969852868278285207
0.215000000000000052,4.264451828797859001
0.216000000000000053,3.577605787348692168
0.217000000000000054,2.909684255459197288
0.218000000000000055,2.260998684964134142
0.219000000000000056,1.631798876454238378
0.220000000000000057,1.022270477344899176
0.221000000000000058,0.432533513621311816
0.222000000000000058,-0.137358112890861694
0.223000000000000059,-0.687416239048309619
0.224000000000000060,-1.217717250446620048
0.225000000000000061,-1.728400174721546945
0.226000000000000062,-2.219664147629105244
0.227000000000000063,-2.691765341411631152
0.228000000000000064,-3.145013443364215622
0.229000000000000065,-3.579767769629715879
0.230000000000000066,-3.996433095317192485
0.231000000000000066,-4.395455277292398044
0.232000000000000067,-4.777316740632278069
0.233000000000000068,-5.142531893956038047
0.234000000000000069,-5.491642532803241217
0.235000000000000070,-5.825213284065393182
0.236000000000000071,-6.143827138310936853
0.237000000000000072,-6.448081110775676805
0.238000000000000073,-6.738582065902247287
0.239000000000000073,-7.015942734670032266
0.240000000000000074,-7.280777948614121087
0.241000000000000075,-7.533701109423214248
0.242000000000000076,-7.775320908361988970
0.243000000000000077,-8.006238305498870389
0.244000000000000078,-8.227043774842851320
0.245000000000000079,-8.438314818005736129
0.246000000000000080,-8.640613745901347897
0.247000000000000081,-8.834485725263759193
0.248000000000000081,-9.020457084395070879
0.249000000000000082,-9.199033870524742085
0.250000000000000111,-9.370700649456827236
0.251000000000000112,-9.535919536776447103
0.252000000000000113,-9.695129448762671132
0.253000000000000114,-9.848745560284735134
0.254000000000000115,-9.997158956324637913
0.255000000000000115,-10.140736463343717588
0.256000000000000116,-10.279820646475357648
0.257000000000000117,-10.414729958457570547
0.258000000000000118,-10.545759026296616767
0.259000000000000119,-10.673179061858970584
0.260000000000000120,-10.797238382903179499
0.261000000000000121,-10.918163031469639179
0.262000000000000122,-11.036157477029671981
0.263000000000000123,-11.151405392339620803
0.264000000000000123,-11.264070490539797476
0.265000000000000124,-11.374297412667866425
0.266000000000000125,-11.482212655413189140
0.267000000000000126,-11.587925529610823006
0.268000000000000127,-11.691529140655367414
0.269000000000000128,-11.793101382695709844
0.270000000000000129,-11.892705939147493410
0.271000000000000130,-11.990393282724307156
0.272000000000000131,-12.086201668836725531
0.273000000000000131,-12.180158116836219406
0.274000000000000132,-12.272279374186117806
0.275000000000000133,-12.362572859220819055
0.276000000000000134,-12.451037578706117159
0.277000000000000135,-12.537665016935340745
0.278000000000000136,-12.622439993588571383
0.279000000000000137,-12.705341488043165654
0.280000000000000138,-12.786343428254101084
0.281000000000000139,-12.865415442722072825
0.282000000000000139,-12.942523574435929490
0.283000000000000140,-13.017630956014631494
0.284000000000000141,-13.090698445583480947
0.285000000000000142,-13.161685223200260353
0.286000000000000143,-13.230549347900790735
0.287000000000000144,-13.297248275660809469
0.288000000000000145,-13.361739338774111019
0.289000000000000146,-13.423980187325394553
0.290000000000000147,-13.483929193593349183
0.291000000000000147,-13.541545820354897955
0.292000000000000148,-13.596790954177913946
0.293000000000000149,-13.649627204886868981
0.294000000000000150,-13.700019172467188255
0.295000000000000151,-13.747933682738652905
0.296000000000000152,-13.793339993179042580
0.297000000000000153,-13.836209970316298623
0.298000000000000154,-13.876518240132970305
0.299000000000000155,-13.914242312940999113
0.300000000000000155,-13.949362684189305028
0.301000000000000156,-13.981862912662331055
0.302000000000000157,-14.011729677515663894
0.303000000000000158,-14.038952815575253652
0.304000000000000159,-14.063525340301941569
0.305000000000000160,-14.085443443791934470
0.306000000000000161,-14.104706483148973462
0.307000000000000162,-14.121316952524756161
0.308000000000000163,-14.135280442081759489
0.309000000000000163,-14.146605585087703716
0.310000000000000164,-14.155303994303807258
0.311000000000000165,-14.161390188780018207
0.312000000000000166,-14.164881512120723883
0.313000000000000167,-14.165798043233589709
0.314000000000000168,-14.164162500522843757
0.315000000000000169,-14.160000140437485783
0.316000000000000170,-14.153338651233548617
0.317000000000000171,-14.144208042759071731
0.318000000000000171,-14.132640533020511597
0.319000000000000172,-14.118670432240531198
0.320000000000000173,-14.102334025068875789
0.321000000000000174,-14.083669451561496189
0.322000000000000175,-14.062716587497774867
0.323000000000000176,-14.039516924561505462
0.324000000000000177,-14.014113450869150057
0.325000000000000178,-13.986550532287736814
0.326000000000000179,-13.956873794945920508
0.327000000000000179,-13.925130009303893885
0.328000000000000180,-13.891366976112058396
0.329000000000000181,-13.855633414554613836
0.330000000000000182,-13.817978852841070747
0.331000000000000183,-13.778453521478937205
0.332000000000000184,-13.737108249430871609
0.333000000000000185,-13.693994363333001019
0.334000000000000186,-13.649163589924906859
0.335000000000000187,-13.602667961817868303
0.336000000000000187,-13.554559726705388556
0.337000000000000188,-13.504891260098810690
0.338000000000000189,-13.453714981651506477
0.339000000000000190,-13.401083275116864257
0.340000000000000191,-13.347048411968222226
0.341000000000000192,-13.291662478694039606
0.342000000000000193,-13.234977307766701671
0.343000000000000194,-13.177044412270907614
0.344000000000000195,-13.117914924165228641
0.345000000000000195,-13.057639536140181136
0.346000000000000196,-12.996268447025983050
0.347000000000000197,-12.933851310694695513
0.348000000000000198,-12.870437188393591299
0.349000000000000199,-12.806074504439617812
0.350000000000000200,-12.740811005198832362
0.351000000000000201,-12.674693721269324698
0.352000000000000202,-12.607768932781498350
0.353000000000000203,-12.540082137725908851
0.354000000000000203,-12.471678023215405418
0.355000000000000204,-12.402600439585674152
0.356000000000000205,-12.332892377236353454
0.357000000000000206,-12.262595946113194145
0.358000000000000207,-12.191752357730468503
0.359000000000000208,-12.120401909632510851
0.360000000000000209,-12.048583972192705716
0.361000000000000210,-11.976336977648326609
0.362000000000000210,-11.903698411270339008
0.363000000000000211,-11.830704804567570676
0.364000000000000212,-11.757391730426112630
0.365000000000000213,-11.683793800085666703
0.366000000000000214,-11.609944661856324899
0.367000000000000215,-11.535877001480681514
0.368000000000000216,-11.461622544048305272
0.369000000000000217,-11.387212057371264962
0.370000000000000218,-11.312675356731883625
0.371000000000000218,-11.238041310915773963
0.372000000000000219,-11.163337849445882810
0.373000000000000220,-11.088591970935491204
0.374000000000000221,-11.013829752480637225
0.375000000000000222,-10.939076360015025813
0.376000000000000223,-10.864356059553031741
0.377000000000000224,-10.789692229248997180
0.378000000000000225,-10.715107372203686253
0.379000000000000226,-10.640623129951290338
0.380000000000000226,-10.566260296563260823
0.381000000000000227,-10.492038833307416823
0.382000000000000228,-10.417977883803880346
0.383000000000000229,-10.344095789621622572
0.384000000000000230,-10.270410106261957495
0.385000000000000231,-10.196937619478132930
0.386000000000000232,-10.123694361882170867
0.387000000000000233,-10.050695629792965491
0.388000000000000234,-9.977956000281631432
0.389000000000000234,-9.905489348372835678
0.390000000000000235,-9.833308864362575008
0.391000000000000236,-9.761427071215663887
0.392000000000000237,-9.689855842007718323
0.393000000000000238,-9.618606417379133688
0.394000000000000239,-9.547689422969975581
0.395000000000000240,-9.477114886807081362
0.396000000000000241,-9.406892256616451675
0.397000000000000242,-9.337030417035604657
0.398000000000000242,-9.267537706702771771
0.399000000000000243,-9.198421935201054112
0.400000000000000244,-9.129690399837556924
0.401000000000000245,-9.061349902239070886
0.402000000000000246,-8.993406764747277293
0.403000000000000247,-8.925866846597863002
0.404000000000000248,-8.858735559869529652
0.405000000000000249,-8.792017885189954640
0.406000000000000250,-8.725718387187129110
0.407000000000000250,-8.659841229675675933
0.408000000000000251,-8.594390190568939047
0.409000000000000252,-8.529368676508640945
0.410000000000000253,-8.464779737204949583
0.411000000000000254,-8.400626079480872477
0.412000000000000255,-8.336910081015650675
0.413000000000000256,-8.273633803782892926
0.414000000000000257,-8.210799007179767628
0.415000000000000258,-8.148407160844683972
0.416000000000000258,-8.086459457161256026
0.417000000000000259,-8.024956823447316978
0.418000000000000260,-7.963899933828289868
0.419000000000000261,-7.903289220794738057
0.420000000000000262,-7.843124886444661215
0.421000000000000263,-7.783406913411535122
0.422000000000000264,-7.724135075479497736
0.423000000000000265,-7.665308947887692348
0.424000000000000266,-7.606927917326186339
0.425000000000000266,-7.548991191626067021
0.426000000000000267,-7.491497809146982156
0.427000000000000268,-7.434446647865469160
0.428000000000000269,-7.377836434167835300
0.429000000000000270,-7.321665751351633666
0.430000000000000271,-7.265933047839949310
0.431000000000000272,-7.210636645112996845
0.432000000000000273,-7.155774745361727973
0.433000000000000274,-7.101345438868302828
0.434000000000000274,-7.047346711118426477
0.435000000000000275,-6.993776449650733973
0.436000000000000276,-6.940632450648524632
0.437000000000000277,-6.887912425279141715
0.438000000000000278,-6.835614005786537106
0.439000000000000279,-6.783734751342599623
0.440000000000000280,-6.732272153662675507
0.441000000000000281,-6.681223642391077355
0.442000000000000282,-6.630586590262197433
0.443000000000000282,-6.580358318042830668
0.444000000000000283,-6.530536099261499139
0.445000000000000284,-6.481117164730404667
0.446000000000000285,-6.432098706865613913
0.447000000000000286,-6.383477883811287334
0.448000000000000287,-6.335251823373345914
0.449000000000000288,-6.287417626768319501
0.450000000000000289,-6.239972372192791994
0.451000000000000290,-6.192913118218947410
0.452000000000000290,-6.146236907021648044
0.453000000000000291,-6.099940767442312506
0.454000000000000292,-6.054021717894974230
0.455000000000000293,-6.008476769119573291
0.456000000000000294,-5.963302926787754643
0.457000000000000295,-5.918497193966085312
0.458000000000000296,-5.874056573441697182
0.459000000000000297,-5.829978069915208394
0.460000000000000298,-5.786258692065656462
0.461000000000000298,-5.742895454492185969
0.462000000000000299,-5.699885379537005470
0.463000000000000300,-5.657225498994103319
0.464000000000000301,-5.614912855708142914
0.465000000000000302,-5.572944505067804144
0.466000000000000303,-5.531317516397723288
0.467000000000000304,-5.490028974253151617
0.468000000000000305,-5.449075979621311738
0.469000000000000306,-5.408455651033298395
0.470000000000000306,-5.368165125590373066
0.471000000000000307,-5.328201559908221085
0.472000000000000308,-5.288562130982876752
0.473000000000000309,-5.249244036981700390
0.474000000000000310,-5.210244497962820631
0.475000000000000311,-5.171560756526296210
0.476000000000000312,-5.133190078400292400
0.477000000000000313,-5.095129752965151582
0.478000000000000314,-5.057377093718539385
0.479000000000000314,-5.019929438684508582
0.480000000000000315,-4.982784150769190568
0.481000000000000316,-4.945938618066003656
0.482000000000000317,-4.909390254112826035
0.483000000000000318,-4.873136498103792569
0.484000000000000319,-4.837174815058082444
0.485000000000000320,-4.801502695948142829
0.486000000000000321,-4.766117657789534334
0.487000000000000322,-4.731017243694673802
0.488000000000000322,-4.696199022892519892
0.489000000000000323,-4.661660590716329544
0.490000000000000324,-4.627399568561356702
0.491000000000000325,-4.593413603814452628
0.492000000000000326,-4.559700369757301530
0.493000000000000327,-4.526257565445126474
0.494000000000000328,-4.493082915562462532
0.495000000000000329,-4.460174170257654502
0.496000000000000330,-4.427529104957558914
0.497000000000000330,-4.395145520163990405
0.498000000000000331,-4.363021241233264291
0.499000000000000332,-4.331154118140231546
0.500000000000000333,-4.299542025228078046
0.501000000000000334,-4.268182860945093360
0.502000000000000335,-4.237074547569635641
0.503000000000000336,-4.206215030924400189
0.504000000000000337,-4.175602280081042394
0.505000000000000338,-4.145234287056179134
0.506000000000000338,-4.115109066499792689
0.507000000000000339,-4.085224655376859637
0.508000000000000340,-4.055579112643167505
0.509000000000000341,-4.026170518916154961
0.510000000000000342,-3.996996976141461655
0.511000000000000343,-3.968056607256084334
0.512000000000000344,-3.939347555848706772
0.513000000000000345,-3.910867985817971793
0.514000000000000346,-3.882616081029287791
0.515000000000000346,-3.854590044970758633
0.516000000000000347,-3.826788100408796023
0.517000000000000348,-3.799208489044008985
0.518000000000000349,-3.771849471167722179
0.519000000000000350,-3.744709325319762971
0.520000000000000351,-3.717786347947797054
0.521000000000000352,-3.691078853068737509
0.522000000000000353,-3.664585171932537300
0.523000000000000353,-3.638303652688690271
0.524000000000000354,-3.612232660055918476
0.525000000000000355,-3.586370574995131566
0.526000000000000356,-3.560715794386117405
0.527000000000000357,-3.535266730708161553
0.528000000000000358,-3.510021811724765683
0.529000000000000359,-3.484979480172815780
0.530000000000000360,-3.460138193456276490
0.531000000000000361,-3.435496423344653660
0.532000000000000361,-3.411052655676379608
0.533000000000000362,-3.386805390067233024
0.534000000000000363,-3.362753139623984477
0.535000000000000364,-3.338894430663302160
0.536000000000000365,-3.315227802436084836
0.537000000000000366,-3.291751806857275309
0.538000000000000367,-3.268465008241210334
0.539000000000000368,-3.245365983042635349
0.540000000000000369,-3.222453319603322264
0.541000000000000369,-3.199725617904443986
0.542000000000000370,-3.177181489324655494
0.543000000000000371,-3.154819556403902769
0.544000000000000372,-3.132638452613032864
0.545000000000000373,-3.110636822129109635
0.546000000000000374,-3.088813319616494191
0.547000000000000375,-3.067166610013632777
0.548000000000000376,-3.045695368325584962
0.549000000000000377,-3.024398279422178426
0.550000000000000377,-3.003274037841806354
0.551000000000000378,-2.982321347600819017
0.552000000000000379,-2.961538922008455366
0.553000000000000380,-2.940925483487249803
0.554000000000000381,-2.920479763398849737
0.555000000000000382,-2.900200501875239922
0.556000000000000383,-2.880086447655190618
0.557000000000000384,-2.860136357926001516
0.558000000000000385,-2.840348998170317163
0.559000000000000385,-2.820723142018076057
0.560000000000000386,-2.801257571103397570
0.561000000000000387,-2.781951074926402701
0.562000000000000388,-2.762802450719835434
0.563000000000000389,-2.743810503320423866
0.564000000000000390,-2.724974045044871840
0.565000000000000391,-2.706291895570409611
0.566000000000000392,-2.687762881819787619
0.567000000000000393,-2.669385837850654308
0.568000000000000393,-2.651159604749170562
0.569000000000000394,-2.633083030527818114
0.570000000000000395,-2.615154970027288250
0.571000000000000396,-2.597374284822318025
0.572000000000000397,-2.579739843131451771
0.573000000000000398,-2.562250519730541853
0.574000000000000399,-2.544905195869985981
0.575000000000000400,-2.527702759195502136
0.576000000000000401,-2.510642103672435788
0.577000000000000401,-2.493722129513456398
0.578000000000000402,-2.476941743109543292
0.579000000000000403,-2.460299856964176968
0.580000000000000404,-2.443795389630666115
0.581000000000000405,-2.427427265652454924
0.582000000000000406,-2.411194415506383137
0.583000000000000407,-2.395095775548761186
0.584000000000000408,-2.379130287964187573
0.585000000000000409,-2.363296900717020588
0.586000000000000409,-2.347594567505399521
0.587000000000000410,-2.332022247717750130
0.588000000000000411,-2.316578906391665527
0.589000000000000412,-2.301263514175091451
0.590000000000000413,-2.286075047289718665
0.591000000000000414,-2.271012487496514076
0.592000000000000415,-2.256074822063306229
0.593000000000000416,-2.241261043734324776
0.594000000000000417,-2.226570150701632222
0.595000000000000417,-2.212001146578407518
0.596000000000000418,-2.197553040373890987
0.597000000000000419,-2.183224846470076752
0.598000000000000420,-2.169015584599930602
0.599000000000000421,-2.154924279827160838
0.600000000000000422,-2.140949962527419981
0.601000000000000423,-2.127091668370904465
0.602000000000000424,-2.113348438306243082
0.603000000000000425,-2.099719318545660851
0.604000000000000425,-2.086203360551303287
0.605000000000000426,-2.072799621022691330
0.606000000000000427,-2.059507161885258508
0.607000000000000428,-2.046325050279834024
0.608000000000000429,-2.033252358553148120
0.609000000000000430,-2.020288164249141261
0.610000000000000431,-2.007431550101185014
