# Au-001-PE_BGALNA-AC
# h[nm],U(h)[kJ/mol]
0.200000000000000011,152.743666928212718403
0.201000000000000012,150.986182813496014887
0.202000000000000013,148.818384460155840543
0.203000000000000014,146.505336838111105635
0.204000000000000015,144.191629144345824898
0.205000000000000016,141.945936562021131522
0.206000000000000016,139.791361834702968281
0.207000000000000017,137.725621068278940129
0.208000000000000018,135.734069747952901253
0.209000000000000019,133.797759993288167379
0.210000000000000020,131.898116700460519723
0.211000000000000021,130.019370568340093541
0.212000000000000022,128.149553123807493193
0.213000000000000023,126.280614304221401767
0.214000000000000024,124.408045082284729688
0.215000000000000024,122.530259318487878772
0.216000000000000025,120.647897755173019618
0.217000000000000026,118.763153145127446919
0.218000000000000027,116.879171618044694014
0.219000000000000028,114.999556024620957828
0.220000000000000029,113.127978042605604969
0.221000000000000030,111.267894222323889153
0.222000000000000031,109.422354635529927691
0.223000000000000032,107.593889723263117730
0.224000000000000032,105.784460125178995327
0.225000000000000033,103.995454865875757378
0.226000000000000034,102.227724677997514391
0.227000000000000035,100.481639049127778662
0.228000000000000036,98.757157517601328323
0.229000000000000037,97.053907637401636066
0.230000000000000038,95.371263779957089923
0.231000000000000039,93.708422485123307411
0.232000000000000040,92.064471392164847430
0.233000000000000040,90.438449873040156035
0.234000000000000041,88.829400367210666900
0.235000000000000042,87.236410099801162232
0.236000000000000043,85.658643377296542099
0.237000000000000044,84.095365022237572816
0.238000000000000045,82.545955755100621332
0.239000000000000046,81.009920480522026764
0.240000000000000047,79.486890506746931351
0.241000000000000048,77.976620739583580644
0.242000000000000048,76.478982860532980226
0.243000000000000049,74.993955435959932743
0.244000000000000050,73.521611820681798122
0.245000000000000051,72.062106623594658572
0.246000000000000052,70.615661401562931587
0.247000000000000053,69.182550145808605180
0.248000000000000054,67.763085026200485572
0.249000000000000055,66.357602765810511869
0.250000000000000056,64.966451932638776157
0.251000000000000056,63.589981358566390668
0.252000000000000057,62.228529827876187142
0.253000000000000058,60.882417119164244923
0.254000000000000059,59.551936434902110307
0.255000000000000060,58.237348211842537182
0.256000000000000061,56.938875272267310379
0.257000000000000062,55.656699250041171467
0.258000000000000063,54.390958205803144665
0.259000000000000064,53.141745331620157344
0.260000000000000064,51.909108636287633942
0.261000000000000065,50.693051497464352906
0.262000000000000066,49.493533965287085152
0.263000000000000067,48.310474703405624552
0.264000000000000068,47.143753456939421653
0.265000000000000069,45.993213942175970033
0.266000000000000070,44.858667059470022309
0.267000000000000071,43.739894338367136584
0.268000000000000071,42.636651532141094378
0.269000000000000072,41.548672287419293525
0.270000000000000073,40.475671823144665495
0.271000000000000074,39.417350561597004344
0.272000000000000075,38.373397662420487109
0.273000000000000076,37.343494418462810813
0.274000000000000077,36.327317479635560460
0.275000000000000078,35.324541877894503727
0.276000000000000079,34.334843832773344730
0.277000000000000079,33.357903322659396395
0.278000000000000080,32.393406412173490594
0.279000000000000081,31.441047330607283072
0.280000000000000082,30.500530300400765071
0.281000000000000083,29.571571118127089051
0.282000000000000084,28.653898493425181471
0.283000000000000085,27.747255153810591821
0.284000000000000086,26.851398725337379148
0.285000000000000087,25.966102400718625631
0.286000000000000087,25.091155407772056662
0.287000000000000088,24.226363291981492409
0.288000000000000089,23.371548027589419405
0.289000000000000090,22.526547971994290265
0.290000000000000091,21.691217678355979359
0.291000000000000092,20.865427581239210042
0.292000000000000093,20.049063569883834646
0.293000000000000094,19.242026463305723638
0.294000000000000095,18.444231400929449904
0.295000000000000095,17.655607161855094489
0.296000000000000096,16.876095425190921873
0.297000000000000097,16.105649983154190608
0.298000000000000098,15.344235917876195785
0.299000000000000099,14.591828752054258445
0.300000000000000100,13.848413582790019660
0.301000000000000101,13.113984207146049954
0.302000000000000102,12.388542247156973275
0.303000000000000103,11.672096281246684413
0.304000000000000103,10.964660988246198059
0.305000000000000104,10.266256309473012820
0.306000000000000105,9.576906633633758048
0.307000000000000106,8.896640008646864217
0.308000000000000107,8.225487383854718004
0.309000000000000108,7.563481885507338909
0.310000000000000109,6.910658127850467736
0.311000000000000110,6.267051561645921254
0.312000000000000111,5.632697861482460766
0.313000000000000111,5.007632352810964527
0.314000000000000112,4.391889479248466621
0.315000000000000113,3.785502310345965071
0.316000000000000114,3.188502089701488629
0.317000000000000115,2.600917823021447361
0.318000000000000116,2.022775905487529169
0.319000000000000117,1.454099787572956215
0.320000000000000118,0.894909678267277409
0.321000000000000119,0.345222284511650435
0.322000000000000119,-0.194949414484197669
0.323000000000000120,-0.725596359479195208
0.324000000000000121,-1.246713571514972863
0.325000000000000122,-1.758300281893719230
0.326000000000000123,-2.260360033454555051
0.327000000000000124,-2.752900754814119111
0.328000000000000125,-3.235934809252830835
0.329000000000000126,-3.709479019930726373
0.330000000000000127,-4.173554673108231583
0.331000000000000127,-4.628187501026968853
0.332000000000000128,-5.073407646077627398
0.333000000000000129,-5.509249607845356778
0.334000000000000130,-5.935752174579650209
0.335000000000000131,-6.352958340587806951
0.336000000000000132,-6.760915210996161662
0.337000000000000133,-7.159673895267312460
0.338000000000000134,-7.549289390801190436
0.339000000000000135,-7.929820457884093621
0.340000000000000135,-8.301329487187961931
0.341000000000000136,-8.663882360955270201
0.342000000000000137,-9.017548308940806834
0.343000000000000138,-9.362399760115405201
0.344000000000000139,-9.698512191072932609
0.345000000000000140,-10.025963972016715076
0.346000000000000141,-10.344836211139618598
0.347000000000000142,-10.655212598150173520
0.348000000000000143,-10.957179247637721886
0.349000000000000143,-11.250824542911496806
0.350000000000000144,-11.536238980892999706
0.351000000000000145,-11.813515018587050776
0.352000000000000146,-12.082746921605938439
0.353000000000000147,-12.344030615171554643
0.354000000000000148,-12.597463537974096681
0.355000000000000149,-12.843144499221455845
0.356000000000000150,-13.081173539171455644
0.357000000000000151,-13.311651793399843058
0.358000000000000151,-13.534681361019607948
0.359000000000000152,-13.750365177032573882
0.360000000000000153,-13.958806888962095982
0.361000000000000154,-14.160110737884645360
0.362000000000000155,-14.354381443951172770
0.363000000000000156,-14.541724096462434801
0.364000000000000157,-14.722244048538930983
0.365000000000000158,-14.896046816404615143
0.366000000000000159,-15.063237983282686372
0.367000000000000159,-15.223923107884800743
0.368000000000000160,-15.378207637457473211
0.369000000000000161,-15.526196825335528473
0.370000000000000162,-15.667995652938751405
0.371000000000000163,-15.803708756136259694
0.372000000000000164,-15.933440355892779294
0.373000000000000165,-16.057294193101760982
0.374000000000000166,-16.175373467502950575
0.375000000000000167,-16.287780780574184547
0.376000000000000167,-16.394618082282949700
0.377000000000000168,-16.495986621577515052
0.378000000000000169,-16.591986900494028134
0.379000000000000170,-16.682718631753186145
0.380000000000000171,-16.768280699717866611
0.381000000000000172,-16.848771124581567449
0.382000000000000173,-16.924287029656834846
0.383000000000000174,-16.994924611632935552
0.384000000000000175,-17.060779113671891594
0.385000000000000175,-17.121944801213210496
0.386000000000000176,-17.178514940359114860
0.387000000000000177,-17.230581778713069951
0.388000000000000178,-17.278236528547363804
0.389000000000000179,-17.321569352177021983
0.390000000000000180,-17.360669349420458474
0.391000000000000181,-17.395624547029989060
0.392000000000000182,-17.426521889978168645
0.393000000000000183,-17.453447234489459561
0.394000000000000183,-17.476485342709757731
0.395000000000000184,-17.495719878910040990
0.396000000000000185,-17.511233407123821593
0.397000000000000186,-17.523107390121481330
0.398000000000000187,-17.531422189628720787
0.399000000000000188,-17.536257067699629886
0.400000000000000189,-17.537690189158507081
0.401000000000000190,-17.535798625028764519
0.402000000000000191,-17.530658356870269188
0.403000000000000191,-17.522344281950459788
0.404000000000000192,-17.510930219178209910
0.405000000000000193,-17.496488915732488323
0.406000000000000194,-17.479092054322084238
0.407000000000000195,-17.458810261015159426
0.408000000000000196,-17.435713113581378764
0.409000000000000197,-17.409869150292330175
0.410000000000000198,-17.381345879129135312
0.411000000000000199,-17.350209787348923385
0.412000000000000199,-17.316526351365517655
0.413000000000000200,-17.280360046901353854
0.414000000000000201,-17.241774359371909497
0.415000000000000202,-17.200831794464953362
0.416000000000000203,-17.157593888880882105
0.417000000000000204,-17.112121221201835652
0.418000000000000205,-17.064473422860253038
0.419000000000000206,-17.014709189179473725
0.420000000000000207,-16.962886290461050010
0.421000000000000207,-16.909061583096018921
0.422000000000000208,-16.853291020678291545
0.423000000000000209,-16.795629665101422745
0.424000000000000210,-16.736131697620770353
0.425000000000000211,-16.674850429865038848
0.426000000000000212,-16.611838314783174297
0.427000000000000213,-16.547146957513078291
0.428000000000000214,-16.480827126161308627
0.429000000000000214,-16.412928762482913214
0.430000000000000215,-16.343500992452746345
0.431000000000000216,-16.272592136720369638
0.432000000000000217,-16.200249720941695131
0.433000000000000218,-16.126520485981554742
0.434000000000000219,-16.051450397982513607
0.435000000000000220,-15.975084658295878981
0.436000000000000221,-15.897467713271703715
0.437000000000000222,-15.818643263905386220
0.438000000000000222,-15.738654275339200694
0.439000000000000223,-15.657542986217617198
0.440000000000000224,-15.575350917895850245
0.441000000000000225,-15.492118883501650117
0.442000000000000226,-15.407886996850972849
0.443000000000000227,-15.322694681218163026
0.444000000000000228,-15.236580677962303199
0.445000000000000229,-15.149583055011145660
0.446000000000000230,-15.061739215204658748
0.447000000000000230,-14.973085904500612386
0.448000000000000231,-14.883659220044549443
0.449000000000000232,-14.793494618106802108
0.450000000000000233,-14.702626921889802247
0.451000000000000234,-14.611090329208304084
0.452000000000000235,-14.518918420046110995
0.453000000000000236,-14.426144163992296043
0.454000000000000237,-14.332799927560577302
0.455000000000000238,-14.238917481395134246
0.456000000000000238,-14.144528007366371725
0.457000000000000239,-14.049662105560255299
0.458000000000000240,-13.954349801164756428
0.459000000000000241,-13.858620551256725761
0.460000000000000242,-13.762503251493097167
0.461000000000000243,-13.666026242709506278
0.462000000000000244,-13.569217317430258163
0.463000000000000245,-13.472103726292365522
0.464000000000000246,-13.374712184387794522
0.465000000000000246,-13.277068877526611246
0.466000000000000247,-13.179199468424423358
0.467000000000000248,-13.081129102817286025
0.468000000000000249,-12.982882415507095430
0.469000000000000250,-12.884483536340329835
0.470000000000000251,-12.785956096123106462
0.471000000000000252,-12.687323232475124613
0.472000000000000253,-12.588607595625488145
0.473000000000000254,-12.489831354152496345
0.474000000000000254,-12.391016200670318170
0.475000000000000255,-12.292183357464470106
0.476000000000000256,-12.193353582078660935
0.477000000000000257,-12.094547172854950290
0.478000000000000258,-11.995783974429253149
0.479000000000000259,-11.897083383184170913
0.480000000000000260,-11.798464352660964494
0.481000000000000261,-11.699945398932207752
0.482000000000000262,-11.601544605936965127
0.483000000000000262,-11.503279630779866594
0.484000000000000263,-11.405167708995389120
0.485000000000000264,-11.307225659778886495
0.486000000000000265,-11.209469891185392498
0.487000000000000266,-11.111916405297288080
0.488000000000000267,-11.014580803362065353
0.489000000000000268,-10.917478290900907822
0.490000000000000269,-10.820623682789044295
0.491000000000000270,-10.724031408308679403
0.492000000000000270,-10.627715516175072707
0.493000000000000271,-10.531689679536508919
0.494000000000000272,-10.435967200948677913
0.495000000000000273,-10.340561017323787851
0.496000000000000274,-10.245483704855068652
0.497000000000000275,-10.150747483916806146
0.498000000000000276,-10.056364223940223113
0.499000000000000277,-9.962345448265560677
0.500000000000000222,-9.868702338970257060
0.501000000000000334,-9.775445741673618016
0.502000000000000224,-9.682586170317899033
0.503000000000000336,-9.590133811925699803
0.504000000000000226,-9.498098531334006722
0.505000000000000338,-9.406489875904256337
0.506000000000000227,-9.315317080208954437
0.507000000000000339,-9.224589070694069193
0.508000000000000229,-9.134314470317569601
0.509000000000000341,-9.044501603163354275
0.510000000000000231,-8.955158499031002250
0.511000000000000343,-8.866292898000269318
0.512000000000000233,-8.777912254970830830
0.513000000000000345,-8.690023744176228249
0.514000000000000234,-8.602634263672481296
0.515000000000000346,-8.515750439800063631
0.516000000000000236,-8.429378631619862006
0.517000000000000348,-8.343524935321878999
0.518000000000000238,-8.258195188607006187
0.519000000000000350,-8.173394975040810806
0.520000000000000240,-8.089129628379499337
0.521000000000000352,-8.005404236867217804
0.522000000000000242,-7.922223647504583077
0.523000000000000353,-7.839592470287681358
0.524000000000000243,-7.757515082417481445
0.525000000000000355,-7.675995632478894493
0.526000000000000245,-7.595038044589379922
0.527000000000000357,-7.514646022516250135
0.528000000000000247,-7.434823053762791290
0.529000000000000359,-7.355572413622198269
0.530000000000000249,-7.276897169199449067
0.531000000000000361,-7.198800183400235753
0.532000000000000250,-7.121284118887011516
0.533000000000000362,-7.044351442001276276
0.534000000000000252,-6.968004426652191441
0.535000000000000364,-6.892245158170704933
0.536000000000000254,-6.817075537129305474
0.537000000000000366,-6.742497283126441587
0.538000000000000256,-6.668511938535973904
0.539000000000000368,-6.595120872220623376
0.540000000000000258,-6.522325283209744029
0.541000000000000369,-6.450126204340479674
0.542000000000000259,-6.378524505862674943
0.543000000000000371,-6.307520899006623161
0.544000000000000261,-6.237115939513874885
0.545000000000000373,-6.167310031130552872
0.546000000000000263,-6.098103429063195691
0.547000000000000375,-6.029496243396457622
0.548000000000000265,-5.961488442473183547
0.549000000000000377,-5.894079856235792114
0.550000000000000266,-5.827270179529603134
0.551000000000000378,-5.761058975367315149
0.552000000000000268,-5.695445678154896108
0.553000000000000380,-5.630429596878488319
0.554000000000000270,-5.566009918252481370
0.555000000000000382,-5.502185709828243176
0.556000000000000272,-5.438955923063964804
0.557000000000000384,-5.376319396354920066
0.558000000000000274,-5.314274858024732318
0.559000000000000385,-5.252820929276954764
0.560000000000000275,-5.191956127107540730
0.561000000000000387,-5.131678867177681624
0.562000000000000277,-5.071987466647351894
0.563000000000000389,-5.012880146969383333
0.564000000000000279,-4.954355036644224164
0.565000000000000391,-4.896410173935271004
0.566000000000000281,-4.839043509545004618
0.567000000000000393,-4.782252909251781148
0.568000000000000282,-4.726036156507651853
0.569000000000000394,-4.670390954996894273
0.570000000000000284,-4.615314931155832134
0.571000000000000396,-4.560805636653586959
0.572000000000000286,-4.506860550834351109
0.573000000000000398,-4.453477083120828794
0.574000000000000288,-4.400652575379475628
0.575000000000000400,-4.348384304247322696
0.576000000000000290,-4.296669483420797242
0.577000000000000401,-4.245505265906544423
0.578000000000000291,-4.194888746234616050
0.579000000000000403,-4.144816962634026325
0.580000000000000293,-4.095286899171135531
0.581000000000000405,-4.046295487850751549
0.582000000000000295,-3.997839610680576694
0.583000000000000407,-3.949916101698838666
0.584000000000000297,-3.902521748965648296
0.585000000000000409,-3.855653296518156914
0.586000000000000298,-3.809307446289917465
0.587000000000000410,-3.763480859994526639
0.588000000000000300,-3.718170160974092031
0.589000000000000412,-3.673371936012446604
0.590000000000000302,-3.629082737113773049
0.591000000000000414,-3.585299083246686003
0.592000000000000304,-3.542017462054153132
0.593000000000000416,-3.499234331529496700
0.594000000000000306,-3.456946121658974302
0.595000000000000417,-3.415149236030953439
0.596000000000000307,-3.373840053412284767
0.597000000000000419,-3.333014929292018813
0.598000000000000309,-3.292670197392906228
0.599000000000000421,-3.252802171150860566
0.600000000000000311,-3.213407145162965772
0.601000000000000423,-3.174481396604067918
0.602000000000000313,-3.136021186612603984
0.603000000000000425,-3.098022761645659706
0.604000000000000314,-3.060482354804064720
0.605000000000000426,-3.023396187127320278
0.606000000000000316,-2.986760468859256168
0.607000000000000428,-2.950571400684324885
0.608000000000000318,-2.914825174935258278
0.609000000000000430,-2.879517976772073773
0.610000000000000320,-2.844645985333202010
0.611000000000000432,-2.810205374858674610
0.612000000000000322,-2.776192315786086162
0.613000000000000433,-2.742602975819468547
0.614000000000000323,-2.709433520971534115
0.615000000000000435,-2.676680116579635005
0.616000000000000325,-2.644338928295809854
0.617000000000000437,-2.612406123051211004
0.618000000000000327,-2.580877869995454876
0.619000000000000439,-2.549750341410969678
0.620000000000000329,-2.519019713603009691
0.621000000000000441,-2.488682167765502218
0.622000000000000330,-2.458733890823133983
0.623000000000000442,-2.429171076250047356
0.624000000000000332,-2.399989924865532309
0.625000000000000444,-2.371186645606996990
0.626000000000000334,-2.342757456280672557
0.627000000000000446,-2.314698584290285854
0.628000000000000336,-2.287006267344173782
0.629000000000000448,-2.259676754141106692
0.630000000000000338,-2.232706305035228933
0.631000000000000449,-2.206091192680395441
0.632000000000000339,-2.179827702654317800
0.633000000000000451,-2.153912134062827999
0.634000000000000341,-2.128340800124612020
0.635000000000000453,-2.103110028736746351
0.636000000000000343,-2.078216163021378016
0.637000000000000455,-2.053655561853856781
0.638000000000000345,-2.029424600372761400
0.639000000000000457,-2.005519670471915372
0.640000000000000346,-1.981937181275047255
0.641000000000000458,-1.958673559593059776
0.642000000000000348,-1.935725250364572547
0.643000000000000460,-1.913088717079755696
0.644000000000000350,-1.890760442188010426
0.645000000000000462,-1.868736927489627053
0.646000000000000352,-1.847014694511883492
0.647000000000000464,-1.825590284869705426
0.648000000000000353,-1.804460260611470801
0.649000000000000465,-1.783621204549877159
0.650000000000000355,-1.763069720578590793
0.651000000000000467,-1.742802433974581122
0.652000000000000357,-1.722815991686755366
0.653000000000000469,-1.703107062610926148
0.654000000000000359,-1.683672337851596978
0.655000000000000471,-1.664508530970656874
0.656000000000000361,-1.645612378223489713
0.657000000000000473,-1.626980638782485444
0.658000000000000362,-1.608610094948536684
0.659000000000000474,-1.590497552350511157
