# Au-001-PE_BENZENE-AC
# h[nm],U(h)[kJ/mol]
0.149999999999999994,83.800185320836334313
0.150999999999999995,82.094474300340536388
0.151999999999999996,80.284263572710173662
0.152999999999999997,78.471639617032650449
0.153999999999999998,76.687728327212582258
0.154999999999999999,74.935160616453487137
0.156000000000000000,73.208491212282311267
0.157000000000000001,71.502693540540320782
0.158000000000000002,69.815655695877467224
0.159000000000000002,68.148006833077161559
0.160000000000000003,66.502037932442462420
0.161000000000000004,64.880567365199581786
0.162000000000000005,63.286092355601816450
0.163000000000000006,61.720302345571852243
0.164000000000000007,60.183907742777158489
0.165000000000000008,58.676694234682578610
0.166000000000000009,57.197710332286398227
0.167000000000000010,55.745511535467088038
0.168000000000000010,54.318405932755226218
0.169000000000000011,52.914666707062906426
0.170000000000000012,51.532694063384077765
0.171000000000000013,50.171121697659359029
0.172000000000000014,48.828871312477346578
0.173000000000000015,47.505163549995799599
0.174000000000000016,46.199495889324524001
0.175000000000000017,44.911598342016660013
0.176000000000000018,43.641376854956568820
0.177000000000000018,42.388852730384158463
0.178000000000000019,41.154104492815392291
0.179000000000000020,39.937216743886928327
0.180000000000000021,38.738238820357594250
0.181000000000000022,37.557154602638547658
0.182000000000000023,36.393863650623501371
0.183000000000000024,35.248172971465216108
0.184000000000000025,34.119798127349447725
0.185000000000000026,33.008372033711005145
0.186000000000000026,31.913459637213623665
0.187000000000000027,30.834576654961956876
0.188000000000000028,29.771210661274352560
0.189000000000000029,28.722842989989061380
0.190000000000000030,27.688970148327182841
0.191000000000000031,26.669123688200492950
0.192000000000000032,25.662887733480072683
0.193000000000000033,24.669913603096738086
0.194000000000000034,23.689931190250543835
0.195000000000000034,22.722756951411291482
0.196000000000000035,21.768298522075959056
0.197000000000000036,20.826556108557070957
0.198000000000000037,19.897620907242295374
0.199000000000000038,18.981670876809705106
0.200000000000000039,18.078964237601653053
0.201000000000000040,17.189831098983198387
0.202000000000000041,16.314663623454013219
0.203000000000000042,15.453905128940601088
0.204000000000000042,14.608038511306110863
0.205000000000000043,13.777574340665839969
0.206000000000000044,12.963038950257395499
0.207000000000000045,12.164962797720326293
0.208000000000000046,11.383869337670093458
0.209000000000000047,10.620264603046244645
0.210000000000000048,9.874627652191438898
0.211000000000000049,9.147402000000756317
0.212000000000000050,8.438988115524624689
0.213000000000000050,7.749737035646610650
0.214000000000000051,7.079945115214359319
0.215000000000000052,6.429849908448427520
0.216000000000000053,5.799627154617484237
0.217000000000000054,5.189388822774414933
0.218000000000000055,4.599182155636289515
0.219000000000000056,4.028989641243981623
0.220000000000000057,3.478729832587852400
0.221000000000000058,2.948258929652981752
0.222000000000000058,2.437373035008901567
0.223000000000000059,1.945810992848993948
0.224000000000000060,1.473257721966497957
0.225000000000000061,1.019347955252795979
0.226000000000000062,0.583670301646818102
0.227000000000000063,0.165771550799909295
0.228000000000000064,-0.234838854180779155
0.229000000000000065,-0.618684244893874302
0.230000000000000066,-0.986316119666125646
0.231000000000000066,-1.338309556153581159
0.232000000000000067,-1.675258694925876757
0.233000000000000068,-1.997772338168697370
0.234000000000000069,-2.306469701509158199
0.235000000000000070,-2.601976351058285619
0.236000000000000071,-2.884920352135069699
0.237000000000000072,-3.155928650837218630
0.238000000000000073,-3.415623704687255291
0.239000000000000073,-3.664620374032943939
0.240000000000000074,-3.903523081732617417
0.241000000000000075,-4.132923244910746696
0.242000000000000076,-4.353396979226526575
0.243000000000000077,-4.565503073149959512
0.244000000000000078,-4.769781227171554505
0.245000000000000079,-4.966750550667572206
0.246000000000000080,-5.156908307282373372
0.247000000000000081,-5.340728898151935411
0.248000000000000081,-5.518663071053556912
0.249000000000000082,-5.691137342603354909
0.250000000000000111,-5.858553619910884080
0.251000000000000112,-6.021289007614146094
0.252000000000000113,-6.179695785936720753
0.253000000000000114,-6.334101545305542480
0.254000000000000115,-6.484809463125088769
0.255000000000000115,-6.632098708496644512
0.256000000000000116,-6.776224960983185497
0.257000000000000117,-6.917421029931276166
0.258000000000000118,-7.055897561354467662
0.259000000000000119,-7.191843819943143146
0.260000000000000120,-7.325428534378948697
0.261000000000000121,-7.456800794784010478
0.262000000000000122,-7.586090991816713647
0.263000000000000123,-7.713411787624113281
0.264000000000000123,-7.838859109568974581
0.265000000000000124,-7.962513158357667820
0.266000000000000125,-8.084439422897577998
0.267000000000000126,-8.204689694902828734
0.268000000000000127,-8.323303076940668177
0.269000000000000128,-8.440306978262666959
0.270000000000000129,-8.555718093392457035
0.271000000000000130,-8.669543359042071629
0.272000000000000131,-8.781780885499582467
0.273000000000000131,-8.892420859170755421
0.274000000000000132,-9.001446413465290064
0.275000000000000133,-9.108834465693870897
0.276000000000000134,-9.214556518084956238
0.277000000000000135,-9.318579421440206900
0.278000000000000136,-9.420866100325712367
0.279000000000000137,-9.521376239042504963
0.280000000000000138,-9.620066927935535972
0.281000000000000139,-9.716893269886600848
0.282000000000000139,-9.811808947094124989
0.283000000000000140,-9.904766748473139870
0.284000000000000141,-9.995719058213243358
0.285000000000000142,-10.084618306212130179
0.286000000000000143,-10.171417381259116652
0.287000000000000144,-10.256070007977964309
0.288000000000000145,-10.338531088653583723
0.289000000000000146,-10.418757011162499637
0.290000000000000147,-10.496705924306297675
0.291000000000000147,-10.572337981909145199
0.292000000000000148,-10.645615557088891734
0.293000000000000149,-10.716503428145127685
0.294000000000000150,-10.784968937530155841
0.295000000000000151,-10.850982125379829313
0.296000000000000152,-10.914515839082557846
0.297000000000000153,-10.975545820357243798
0.298000000000000154,-11.034050771295492055
0.299000000000000155,-11.090012400801352754
0.300000000000000155,-11.143415452833332679
0.301000000000000156,-11.194247717820166699
0.302000000000000157,-11.242500028583984673
0.303000000000000158,-11.288166242062743549
0.304000000000000159,-11.331243208079374796
0.305000000000000160,-11.371730726357736074
0.306000000000000161,-11.409631492936563646
0.307000000000000162,-11.444951037082145007
0.308000000000000163,-11.477697649748751729
0.309000000000000163,-11.507882304584009958
0.310000000000000164,-11.535518572424070527
0.311000000000000165,-11.560622530171141165
0.312000000000000166,-11.583212664894306343
0.313000000000000167,-11.603309773943347949
0.314000000000000168,-11.620936861814900709
0.315000000000000169,-11.636119034461193777
0.316000000000000170,-11.648883391683554578
0.317000000000000171,-11.659258918206129252
0.318000000000000171,-11.667276373980039139
0.319000000000000172,-11.672968184224737698
0.320000000000000173,-11.676368329671110047
0.321000000000000174,-11.677512237430601516
0.322000000000000175,-11.676436672876123524
0.323000000000000176,-11.673179632883551093
0.324000000000000177,-11.667780240747751108
0.325000000000000178,-11.660278643053359815
0.326000000000000179,-11.650715908749672778
0.327000000000000179,-11.639133930648487336
0.328000000000000180,-11.625575329536207647
0.329000000000000181,-11.610083361064981844
0.330000000000000182,-11.592701825562775397
0.331000000000000183,-11.573474980879506546
0.332000000000000184,-11.552447458364444088
0.333000000000000185,-11.529664182050398225
0.334000000000000186,-11.505170291101446622
0.335000000000000187,-11.479011065563810234
0.336000000000000187,-11.451231855443914753
0.337000000000000188,-11.421878013122782392
0.338000000000000189,-11.390994829102995212
0.339000000000000190,-11.358627471072306747
0.340000000000000191,-11.324820926256714770
0.341000000000000192,-11.289619947026496405
0.342000000000000193,-11.253068999709196163
0.343000000000000194,-11.215212216556139424
0.344000000000000195,-11.176093350801574289
0.345000000000000195,-11.135755734747807111
0.346000000000000196,-11.094242240803815491
0.347000000000000197,-11.051595245400571699
0.348000000000000198,-11.007856595702097735
0.349000000000000199,-10.963067579027997667
0.350000000000000200,-10.917268894900649556
0.351000000000000201,-10.870500629627752431
0.352000000000000202,-10.822802233329600341
0.353000000000000203,-10.774212499319054004
0.354000000000000203,-10.724769545741585475
0.355000000000000204,-10.674510799382176174
0.356000000000000205,-10.623472981546230542
0.357000000000000206,-10.571692095921697785
0.358000000000000207,-10.519203418330331345
0.359000000000000208,-10.466041488277015858
0.360000000000000209,-10.412240102207157122
0.361000000000000210,-10.357832308383516207
0.362000000000000210,-10.302850403295433779
0.363000000000000211,-10.247325929515154641
0.364000000000000212,-10.191289674917864971
0.365000000000000213,-10.134771673183891494
0.366000000000000214,-10.077801205503970294
0.367000000000000215,-10.020406803410216057
0.368000000000000216,-9.962616252658289540
0.369000000000000217,-9.904456598088032138
0.370000000000000218,-9.845954149392690979
0.371000000000000218,-9.787134487728968324
0.372000000000000219,-9.728022473102747369
0.373000000000000220,-9.668642252467787301
0.374000000000000221,-9.609017268477089146
0.375000000000000222,-9.549170268829078267
0.376000000000000223,-9.489123316153365906
0.377000000000000224,-9.428897798383003348
0.378000000000000225,-9.368514439562797946
0.379000000000000226,-9.307993311045414941
0.380000000000000226,-9.247353843029507914
0.381000000000000227,-9.186614836396159944
0.382000000000000228,-9.125794474802450651
0.383000000000000229,-9.064910336992884510
0.384000000000000230,-9.003979409291625657
0.385000000000000231,-8.943018098240722580
0.386000000000000232,-8.882042243351218502
0.387000000000000233,-8.821067129936311701
0.388000000000000234,-8.760107501997357105
0.389000000000000234,-8.699177575135601970
0.390000000000000235,-8.638291049464029925
0.391000000000000236,-8.577461122495734003
0.392000000000000237,-8.516700501986500527
0.393000000000000238,-8.456021418711298310
0.394000000000000239,-8.395435639155483187
0.395000000000000240,-8.334954478103274056
0.396000000000000241,-8.274588811107417285
0.397000000000000242,-8.214349086825022184
0.398000000000000242,-8.154245339206344312
0.399000000000000243,-8.094287199523986231
0.400000000000000244,-8.034483908231424110
0.401000000000000245,-7.974844326640964987
0.402000000000000246,-7.915376948411993574
0.403000000000000247,-7.856089910841589585
0.404000000000000248,-7.796991005950523856
0.405000000000000249,-7.738087691358456865
0.406000000000000250,-7.679387100943043443
0.407000000000000250,-7.620896055278484127
0.408000000000000251,-7.562621071849738641
0.409000000000000252,-7.504568375039426087
0.410000000000000253,-7.446743905884977366
0.411000000000000254,-7.389153331604353170
0.412000000000000255,-7.331802054889105413
0.413000000000000256,-7.274695222964238539
0.414000000000000257,-7.217837736414631777
0.415000000000000258,-7.161234257778522405
0.416000000000000258,-7.104889219908741893
0.417000000000000259,-7.048806834102913754
0.418000000000000260,-6.992991098004237571
0.419000000000000261,-6.937445803274703060
0.420000000000000262,-6.882174543042992809
0.421000000000000263,-6.827180719129620101
0.422000000000000264,-6.772467549051997437
0.423000000000000265,-6.718038072812507089
0.424000000000000266,-6.663895159472842167
0.425000000000000266,-6.610041513517916023
0.426000000000000267,-6.556479681013053451
0.427000000000000268,-6.503212055558139859
0.428000000000000269,-6.450240884042621303
0.429000000000000270,-6.397568272205376161
0.430000000000000271,-6.345196190003482783
0.431000000000000272,-6.293126476794140167
0.432000000000000273,-6.241360846333906309
0.433000000000000274,-6.189900891599646293
0.434000000000000274,-6.138748089435409838
0.435000000000000275,-6.087903805029729831
0.436000000000000276,-6.037369296227682369
0.437000000000000277,-5.987145717682063051
0.438000000000000278,-5.937234124848158601
0.439000000000000279,-5.887635477826490771
0.440000000000000280,-5.838350645057825083
0.441000000000000281,-5.789380406874887974
0.442000000000000282,-5.740725458915074242
0.443000000000000282,-5.692386415398378752
0.444000000000000283,-5.644363812274842296
0.445000000000000284,-5.596658110245678053
0.446000000000000285,-5.549269697662106537
0.447000000000000286,-5.502198893306185390
0.448000000000000287,-5.455445949057349253
0.449000000000000288,-5.409011052448851942
0.450000000000000289,-5.362894329117805725
0.451000000000000290,-5.317095845152665312
0.452000000000000290,-5.271615609341907316
0.453000000000000291,-5.226453575327471235
0.454000000000000292,-5.181609643666584830
0.455000000000000293,-5.137083663805393385
0.456000000000000294,-5.092875435967854081
0.457000000000000295,-5.048984712963148880
0.458000000000000296,-5.005411201914874653
0.459000000000000297,-4.962154565915168902
0.460000000000000298,-4.919214425606787344
0.461000000000000298,-4.876590360696163806
0.462000000000000299,-4.834281911400308829
0.463000000000000300,-4.792288579830354500
0.464000000000000301,-4.750609831314505094
0.465000000000000302,-4.709245095663002978
0.466000000000000303,-4.668193768377675745
0.467000000000000304,-4.627455211808532809
0.468000000000000305,-4.587028756259863727
0.469000000000000306,-4.546913701048049816
0.470000000000000306,-4.507109315513479153
0.471000000000000307,-4.467614839988538478
0.472000000000000308,-4.428429486723959307
0.473000000000000309,-4.389552440775393194
0.474000000000000310,-4.350982860852207423
0.475000000000000311,-4.312719880130340577
0.476000000000000312,-4.274762607031107997
0.477000000000000313,-4.237110125967500807
0.478000000000000314,-4.199761498059816134
0.479000000000000314,-4.162715761822131100
0.480000000000000315,-4.125971933821111826
0.481000000000000316,-4.089529009308735752
0.482000000000000317,-4.053385962830200029
0.483000000000000318,-4.017541748808463709
0.484000000000000319,-3.981995302106636103
0.485000000000000320,-3.946745538569523148
0.486000000000000321,-3.911791355545416682
0.487000000000000322,-3.877131632389313687
0.488000000000000322,-3.842765230948583799
0.489000000000000323,-3.808690996032190412
0.490000000000000324,-3.774907755864332248
0.491000000000000325,-3.741414322523518798
0.492000000000000326,-3.708209492367884330
0.493000000000000327,-3.675292046447645955
0.494000000000000328,-3.642660750905457601
0.495000000000000329,-3.610314357365425053
0.496000000000000330,-3.578251603311483287
0.497000000000000330,-3.546471212455844402
0.498000000000000331,-3.514971895098095267
0.499000000000000332,-3.483752348475626093
0.500000000000000333,-3.452811257105898424
0.501000000000000334,-3.422147293121100997
0.502000000000000335,-3.391759116595714829
0.503000000000000336,-3.361645375867469365
0.504000000000000337,-3.331804707852094705
0.505000000000000338,-3.302235738352338412
0.506000000000000338,-3.272937082361606631
0.507000000000000339,-3.243907344362603418
0.508000000000000340,-3.215145118621308029
0.509000000000000341,-3.186648989476647653
0.510000000000000342,-3.158417531626077412
0.511000000000000343,-3.130449310407445118
0.512000000000000344,-3.102742882077313524
0.513000000000000345,-3.075296794086014529
0.514000000000000346,-3.048109585349672468
0.515000000000000346,-3.021179786519347044
0.516000000000000347,-2.994505920247497066
0.517000000000000348,-2.968086501452004811
0.518000000000000349,-2.941920037577753000
0.519000000000000350,-2.916005028856083481
0.520000000000000351,-2.890339968562115391
0.521000000000000352,-2.864923343270119549
0.522000000000000353,-2.839753633107023223
0.523000000000000353,-2.814829312004099027
0.524000000000000354,-2.790148847947019117
0.525000000000000355,-2.765710703224210310
0.526000000000000356,-2.741513334673675306
0.527000000000000357,-2.717555193928302693
0.528000000000000358,-2.693834727659651485
0.529000000000000359,-2.670350377820348342
0.530000000000000360,-2.647100581885026394
0.531000000000000361,-2.624083773089898930
0.532000000000000361,-2.601298380670924892
0.533000000000000362,-2.578742830100633210
0.534000000000000363,-2.556415543323560691
0.535000000000000364,-2.534314938990315902
0.536000000000000365,-2.512439432690282803
0.537000000000000366,-2.490787437182938824
0.538000000000000367,-2.469357362627745189
0.539000000000000368,-2.448147616812664573
0.540000000000000369,-2.427156605381189269
0.541000000000000369,-2.406382732057955831
0.542000000000000370,-2.385824398872837371
0.543000000000000371,-2.365480006383525513
0.544000000000000372,-2.345347953896568693
0.545000000000000373,-2.325426639686843711
0.546000000000000374,-2.305714461215375710
0.547000000000000375,-2.286209815345530583
0.548000000000000376,-2.266911098557536697
0.549000000000000377,-2.247816707161257366
0.550000000000000377,-2.228925037507201612
0.551000000000000378,-2.210234486195750581
0.552000000000000379,-2.191743450284531214
0.553000000000000380,-2.173450327493920309
0.554000000000000381,-2.155353516410614123
0.555000000000000382,-2.137451416689270189
0.556000000000000383,-2.119742429252108096
0.557000000000000384,-2.102224956486524299
0.558000000000000385,-2.084897402440589964
0.559000000000000385,-2.067758173016471357
0.560000000000000386,-2.050805676161674640
0.561000000000000387,-2.034038322058120851
0.562000000000000388,-2.017454523309003100
0.563000000000000389,-2.001052695123367808
0.564000000000000390,-1.984831255498432201
0.565000000000000391,-1.968788625399560344
0.566000000000000392,-1.952923228937889721
0.567000000000000393,-1.937233493545584606
0.568000000000000393,-1.921717850148655149
0.569000000000000394,-1.906374733337343752
0.570000000000000395,-1.891202581534055183
0.571000000000000396,-1.876199837158753159
0.572000000000000397,-1.861364946791886910
0.573000000000000398,-1.846696361334727143
0.574000000000000399,-1.832192536167173147
0.575000000000000400,-1.817851931302950419
0.576000000000000401,-1.803673011542202831
0.577000000000000401,-1.789654246621488642
0.578000000000000402,-1.775794111361107763
0.579000000000000403,-1.762091085809775803
0.580000000000000404,-1.748543655386655349
0.581000000000000405,-1.735150311020679847
0.582000000000000406,-1.721909549287198304
0.583000000000000407,-1.708819872541915696
0.584000000000000408,-1.695879789052128661
0.585000000000000409,-1.683087813125232035
0.586000000000000409,-1.670442465234517782
0.587000000000000410,-1.657942272142244544
0.588000000000000411,-1.645585767019965839
0.589000000000000412,-1.633371489566151080
0.590000000000000413,-1.621297986121047030
0.591000000000000414,-1.609363809778829646
0.592000000000000415,-1.597567520497022553
0.593000000000000416,-1.585907685203186812
0.594000000000000417,-1.574382877898881095
0.595000000000000417,-1.562991679760942443
0.596000000000000418,-1.551732679240001689
0.597000000000000419,-1.540604472156362093
0.598000000000000420,-1.529605661793125737
0.599000000000000421,-1.518734858986685365
0.600000000000000422,-1.507990682214516820
0.601000000000000423,-1.497371757680327820
0.602000000000000424,-1.486876719396547974
0.603000000000000425,-1.476504209264204004
0.604000000000000425,-1.466252877150154621
0.605000000000000426,-1.456121380961741707
0.606000000000000427,-1.446108386718865990
0.607000000000000428,-1.436212568623443486
0.608000000000000429,-1.426432609126393025
0.609000000000000430,-1.416767198992005650
0.610000000000000431,-1.407215037359876408
0.611000000000000432,-1.397774831804304840
