# Au-001-PE_CHOL-JS
# h[nm],U(h)[kJ/mol]
0.149999999999999994,132.642193436393512229
0.150999999999999995,130.428637340576813131
0.151999999999999996,128.771539909463456297
0.152999999999999997,127.224962458041247260
0.153999999999999998,125.614502035160541027
0.154999999999999999,123.901982544343198356
0.156000000000000000,122.108243651156072929
0.157000000000000001,120.271774284029675073
0.158000000000000002,118.428742011858361138
0.159000000000000002,116.605216725650251419
0.160000000000000003,114.815872234641730643
0.161000000000000004,113.065730268451460461
0.162000000000000005,111.352976838005389482
0.163000000000000006,109.671800443463808961
0.164000000000000007,108.014760628720068780
0.165000000000000008,106.374520326963491357
0.166000000000000009,104.744951694917830309
0.167000000000000010,103.121709622226461534
0.168000000000000010,101.502397208548899243
0.169000000000000011,99.886447298063401945
0.170000000000000012,98.274828762125451931
0.171000000000000013,96.669664785841135313
0.172000000000000014,95.073828215348299864
0.173000000000000015,93.490558847518684615
0.174000000000000016,91.923130639435697731
0.175000000000000017,90.374583511694112303
0.176000000000000018,88.847524537023474522
0.177000000000000018,87.343996410544491482
0.178000000000000019,85.865406661466337823
0.179000000000000020,84.412508556436335994
0.180000000000000021,82.985423576761817799
0.181000000000000022,81.583695309213467795
0.182000000000000023,80.206365232675608468
0.183000000000000024,78.852061942914772885
0.184000000000000025,77.519096632700978944
0.185000000000000026,76.205558987321737163
0.186000000000000026,74.909408964356501315
0.187000000000000027,73.628561135442836871
0.188000000000000028,72.360959338124629880
0.189000000000000029,71.104640299537507531
0.190000000000000030,69.857785646983444394
0.191000000000000031,68.618762319569356123
0.192000000000000032,67.386151852509328819
0.193000000000000033,66.158769337435586522
0.194000000000000034,64.935673085724118891
0.195000000000000034,63.716166155168217244
0.196000000000000035,62.499790960295776188
0.197000000000000036,61.286318188821709896
0.198000000000000037,60.075731205036866811
0.199000000000000038,58.868207047402464127
0.200000000000000039,57.664095032428477339
0.201000000000000040,56.463893868480376170
0.202000000000000041,55.268228068266331832
0.203000000000000042,54.077824332734259372
0.204000000000000042,52.893488466001976178
0.205000000000000043,51.716083273717813995
0.206000000000000044,50.546507797946659934
0.207000000000000045,49.385678151595001850
0.208000000000000046,48.234510135220567406
0.209000000000000047,47.093903749033451334
0.210000000000000048,45.964729652845761620
0.211000000000000049,44.847817576252666072
0.212000000000000050,43.743946639827662182
0.213000000000000050,42.653837514871483449
0.214000000000000051,41.578146323465063006
0.215000000000000052,40.517460161421617215
0.216000000000000053,39.472294113385395065
0.217000000000000054,38.443089620981680810
0.218000000000000055,37.430214060828369327
0.219000000000000056,36.433961388665650816
0.220000000000000057,35.454553708196911543
0.221000000000000058,34.492143627885795354
0.222000000000000058,33.546817275389763324
0.223000000000000059,32.618597847087137609
0.224000000000000060,31.707449578866640394
0.225000000000000061,30.813282033664904702
0.226000000000000062,29.935954610869920600
0.227000000000000063,29.075281192422863796
0.228000000000000064,28.231034850054761876
0.229000000000000065,27.402952547430373897
0.230000000000000066,26.590739779927758946
0.231000000000000066,25.794075103258876425
0.232000000000000067,25.012614510079821173
0.233000000000000068,24.245995621098352046
0.234000000000000069,23.493841663943417331
0.235000000000000070,22.755765219203816230
0.236000000000000071,22.031371718577236862
0.237000000000000072,21.320262685006746040
0.238000000000000073,20.622038709044499427
0.239000000000000073,19.936302159496911202
0.240000000000000074,19.262659629700952024
0.241000000000000075,18.600724123596979354
0.242000000000000076,17.950116988130535134
0.243000000000000077,17.310469600472224272
0.244000000000000078,16.681424820129230113
0.245000000000000079,16.062638217267199536
0.246000000000000080,15.453779089506223698
0.247000000000000081,14.854531280127961423
0.248000000000000081,14.264593811069502749
0.249000000000000082,13.683681344310281602
0.250000000000000111,13.111524485308976296
0.251000000000000112,12.547869942046329328
0.252000000000000113,11.992480552996507726
0.253000000000000114,11.445135197011840233
0.254000000000000115,10.905628597675482538
0.255000000000000115,10.373771034178629336
0.256000000000000116,9.849387970223785871
0.257000000000000117,9.332319611859759334
0.258000000000000118,8.822420404530120663
0.259000000000000119,8.319558478973394955
0.260000000000000120,7.823615054961386761
0.261000000000000121,7.334483811209939752
0.262000000000000122,6.852070229148790936
0.263000000000000123,6.376290917602625896
0.264000000000000123,5.907072924815763848
0.265000000000000124,5.444353043654379221
0.266000000000000125,4.988077115244138326
0.267000000000000126,4.538199335751103902
0.268000000000000127,4.094681570490097400
0.269000000000000128,3.657492679050778683
0.270000000000000129,3.226607854665886954
0.271000000000000130,2.802007980609824589
0.272000000000000131,2.383679006009908896
0.273000000000000131,1.971611343074676226
0.274000000000000132,1.565799287395644335
0.275000000000000133,1.166240462657706756
0.276000000000000134,0.772935290799792840
0.277000000000000135,0.385886488400325134
0.278000000000000136,0.005098589818464827
0.279000000000000137,-0.369422502596526425
0.280000000000000138,-0.737669941111644412
0.281000000000000139,-1.099636328092280069
0.282000000000000139,-1.455314084574723665
0.283000000000000140,-1.804695792281070243
0.284000000000000141,-2.147774509547503818
0.285000000000000142,-2.484544061740419529
0.286000000000000143,-2.814999306823120939
0.287000000000000144,-3.139136376810016227
0.288000000000000145,-3.456952895907898782
0.289000000000000146,-3.768448176193038623
0.290000000000000147,-4.073623391713836028
0.291000000000000147,-4.372481731937846838
0.292000000000000148,-4.665028535484629479
0.293000000000000149,-4.951271405098608192
0.294000000000000150,-5.231220304823824385
0.295000000000000151,-5.504887640342616351
0.296000000000000152,-5.772288323435664559
0.297000000000000153,-6.033439821510979684
0.298000000000000154,-6.288362193135839107
0.299000000000000155,-6.537078110487915872
0.300000000000000155,-6.779612869621439941
0.301000000000000156,-7.015994389420674437
0.302000000000000157,-7.246253200088048629
0.303000000000000158,-7.470422421986330441
0.304000000000000159,-7.688537735626167269
0.305000000000000160,-7.900637343559919756
0.306000000000000161,-8.106761924912403217
0.307000000000000162,-8.306954583247790680
0.308000000000000163,-8.501260788440292870
0.309000000000000163,-8.689728313184565067
0.310000000000000164,-8.872407164750281794
0.311000000000000165,-9.049349512553687802
0.312000000000000166,-9.220609612088150442
0.313000000000000167,-9.386243725724972009
0.314000000000000168,-9.546310040865908064
0.315000000000000169,-9.700868585899508290
0.316000000000000170,-9.849981144385044018
0.317000000000000171,-9.993711167859862243
0.318000000000000171,-10.132123687639412069
0.319000000000000172,-10.265285225953384440
0.320000000000000173,-10.393263706736192376
0.321000000000000174,-10.516128366366309876
0.322000000000000175,-10.633949664625948373
0.323000000000000176,-10.746799196130481846
0.324000000000000177,-10.854749602456228885
0.325000000000000178,-10.957874485174802004
0.326000000000000179,-11.056248319983838613
0.327000000000000179,-11.149946372105134174
0.328000000000000180,-11.239044613104578474
0.329000000000000181,-11.323619639272070714
0.330000000000000182,-11.403748591683855906
0.331000000000000183,-11.479509078056072013
0.332000000000000184,-11.550979096483994013
0.333000000000000185,-11.618236961149269959
0.334000000000000186,-11.681361230065283152
0.335000000000000187,-11.740430634919700736
0.336000000000000187,-11.795524013062982149
0.337000000000000188,-11.846720241681580887
0.338000000000000189,-11.894098174186076733
0.339000000000000190,-11.937736578835805190
0.340000000000000191,-11.977714079613761555
0.341000000000000192,-12.014109099358757149
0.342000000000000193,-12.046999805154941399
0.343000000000000194,-12.076464055973072931
0.344000000000000195,-12.102579352551897429
0.345000000000000195,-12.125422789503778276
0.346000000000000196,-12.145071009623297442
0.347000000000000197,-12.161600160373998492
0.348000000000000198,-12.175085852524498264
0.349000000000000199,-12.185603120901754792
0.350000000000000200,-12.193226387226571816
0.351000000000000201,-12.198029424993450220
0.352000000000000202,-12.200085326354749071
0.353000000000000203,-12.199466470967063714
0.354000000000000203,-12.196244496756037279
0.355000000000000204,-12.190490272553947904
0.356000000000000205,-12.182273872563735395
0.357000000000000206,-12.171664552601706433
0.358000000000000207,-12.158730728070215932
0.359000000000000208,-12.143539953611432125
0.360000000000000209,-12.126158904392442039
0.361000000000000210,-12.106653358971723122
0.362000000000000210,-12.085088183697049402
0.363000000000000211,-12.061527318584584378
0.364000000000000212,-12.036033764629349818
0.365000000000000213,-12.008669572497188582
0.366000000000000214,-11.979495832548874290
0.367000000000000215,-11.948572666147365240
0.368000000000000216,-11.915959218199741798
0.369000000000000217,-11.881713650885885158
0.370000000000000218,-11.845893138526808031
0.371000000000000218,-11.808553863545919071
0.372000000000000219,-11.769751013477643298
0.373000000000000220,-11.729538778978531255
0.374000000000000221,-11.687970352796670070
0.375000000000000222,-11.645097929656273550
0.376000000000000223,-11.600972707015404950
0.377000000000000224,-11.555644886655398906
0.378000000000000225,-11.509163677061792441
0.379000000000000226,-11.461577296557434735
0.380000000000000226,-11.412932977149674585
0.381000000000000227,-11.363276969054078691
0.382000000000000228,-11.312654545858816135
0.383000000000000229,-11.261110010294228090
0.384000000000000230,-11.208686700573576189
0.385000000000000231,-11.155426997271826295
0.386000000000000232,-11.101372330710287173
0.387000000000000233,-11.046563188816151069
0.388000000000000234,-10.991039125426665279
0.389000000000000234,-10.934838769009081361
0.390000000000000235,-10.877999831768079275
0.391000000000000236,-10.820559119113738689
0.392000000000000237,-10.762552539463753121
0.393000000000000238,-10.704015114354813676
0.394000000000000239,-10.644980988838760538
0.395000000000000240,-10.585483442140271038
0.396000000000000241,-10.525554898553558303
0.397000000000000242,-10.465226938556410730
0.398000000000000242,-10.404530310121081982
0.399000000000000243,-10.343494940201896526
0.400000000000000244,-10.282149946380618744
0.401000000000000245,-10.220523648651401061
0.402000000000000246,-10.158643581327654104
0.403000000000000247,-10.096536505054276134
0.404000000000000248,-10.034228418909171054
0.405000000000000249,-9.971744572578874255
0.406000000000000250,-9.909109478593624232
0.407000000000000250,-9.846346924608123885
0.408000000000000251,-9.783479985714695459
0.409000000000000252,-9.720531036776288047
0.410000000000000253,-9.657521764767356132
0.411000000000000254,-9.594473181111339954
0.412000000000000255,-9.531405634003828453
0.413000000000000256,-9.468338820711412751
0.414000000000000257,-9.405291799836327016
0.415000000000000258,-9.342283003537982466
0.416000000000000258,-9.279330249702569589
0.417000000000000259,-9.216450754052758043
0.418000000000000260,-9.153661142189708499
0.419000000000000261,-9.090977461560294515
0.420000000000000262,-9.028415193342677725
0.421000000000000263,-8.965989264244040413
0.422000000000000264,-8.903714058204345250
0.423000000000000265,-8.841603428000745168
0.424000000000000266,-8.779670706747484843
0.425000000000000266,-8.717928719286335948
0.426000000000000267,-8.656389793463327820
0.427000000000000268,-8.595065771287485390
0.428000000000000269,-8.533968019967867136
0.429000000000000270,-8.473107442825437374
0.430000000000000271,-8.412494490076463549
0.431000000000000272,-8.352139169484676273
0.432000000000000273,-8.292051056879412130
0.433000000000000274,-8.232239306537490364
0.434000000000000274,-8.172712661426544400
0.435000000000000275,-8.113479463308001627
0.436000000000000276,-8.054547662698057664
0.437000000000000277,-7.995924828685055274
0.438000000000000278,-7.937618158602125717
0.439000000000000279,-7.879634487554037392
0.440000000000000280,-7.821980297797233916
0.441000000000000281,-7.764661727972532290
0.442000000000000282,-7.707684582189851419
0.443000000000000282,-7.651054338964567769
0.444000000000000283,-7.594776160005416443
0.445000000000000284,-7.538854898853683650
0.446000000000000285,-7.483295109373794496
0.447000000000000286,-7.428101054095641587
0.448000000000000287,-7.373276712408663336
0.449000000000000288,-7.318825788608394944
0.450000000000000289,-7.264751719795761176
0.451000000000000290,-7.211057683629919168
0.452000000000000290,-7.157746605935320083
0.453000000000000291,-7.104821168163740985
0.454000000000000292,-7.052283814712309251
0.455000000000000293,-7.000136760098359723
0.456000000000000294,-6.948381995992294335
0.457000000000000295,-6.897021298109519805
0.458000000000000296,-6.846056232962600241
0.459000000000000297,-6.795488164474974724
0.460000000000000298,-6.745318260457418447
0.461000000000000298,-6.695547498948745790
0.462000000000000299,-6.646176674421992558
0.463000000000000300,-6.597206403857630796
0.464000000000000301,-6.548637132685291462
0.465000000000000302,-6.500469140595482642
0.466000000000000303,-6.452702547222832763
0.467000000000000304,-6.405337317702523237
0.468000000000000305,-6.358373268101471965
0.469000000000000306,-6.311810070725825561
0.470000000000000306,-6.265647259306655670
0.471000000000000307,-6.219884234065188977
0.472000000000000308,-6.174520266659592416
0.473000000000000309,-6.129554505014795041
0.474000000000000310,-6.084985978037183330
0.475000000000000311,-6.040813600215786394
0.476000000000000312,-5.997036176111891770
0.477000000000000313,-5.953652404738548398
0.478000000000000314,-5.910660883831911683
0.479000000000000314,-5.868060114016143913
0.480000000000000315,-5.825848502863498979
0.481000000000000316,-5.784024368851524045
0.482000000000000317,-5.742585945218926291
0.483000000000000318,-5.701531383721993862
0.484000000000000319,-5.660858758293214166
0.485000000000000320,-5.620566068603872978
0.486000000000000321,-5.580651243532316563
0.487000000000000322,-5.541112144539622086
0.488000000000000322,-5.501946568954276806
0.489000000000000323,-5.463152253167761430
0.490000000000000324,-5.424726875742496013
0.491000000000000325,-5.386668060433945193
0.492000000000000326,-5.348973379128480587
0.493000000000000327,-5.311640354698684341
0.494000000000000328,-5.274666463777681003
0.495000000000000329,-5.238049139454125758
0.496000000000000330,-5.201785773889412212
0.497000000000000330,-5.165873720858772167
0.498000000000000331,-5.130310298217644949
0.499000000000000332,-5.095092790295093543
0.500000000000000333,-5.060218450215618446
0.501000000000000334,-5.025684502150900457
0.502000000000000335,-4.991488143503060471
0.503000000000000336,-4.957626547020812957
0.504000000000000337,-4.924096862849979495
0.505000000000000338,-4.890896220519829640
0.506000000000000338,-4.858021730866655119
0.507000000000000339,-4.825470487895935356
0.508000000000000340,-4.793239570584471920
0.509000000000000341,-4.761326044623971576
0.510000000000000342,-4.729726964107172194
0.511000000000000343,-4.698439373158092458
0.512000000000000344,-4.667460307507470318
0.513000000000000345,-4.636786796014829015
0.514000000000000346,-4.606415862138362627
0.515000000000000346,-4.576344525353851722
0.516000000000000347,-4.546569802523852566
0.517000000000000348,-4.517088709218404219
0.518000000000000349,-4.487898260988291810
0.519000000000000350,-4.458995474592187591
0.520000000000000351,-4.430377369178655655
0.521000000000000352,-4.402040967424271756
0.522000000000000353,-4.373983296628834339
0.523000000000000353,-4.346201389768787671
0.524000000000000354,-4.318692286509985045
0.525000000000000355,-4.291453034180705117
0.526000000000000356,-4.264480688705997835
0.527000000000000357,-4.237772315504434673
0.528000000000000358,-4.211324990348051855
0.529000000000000359,-4.185135800186698063
0.530000000000000360,-4.159201843937493592
0.531000000000000361,-4.133520233240490782
0.532000000000000361,-4.108088093181355482
0.533000000000000362,-4.082902562982019035
0.534000000000000363,-4.057960796660098346
0.535000000000000364,-4.033259963658014868
0.536000000000000365,-4.008797249442592303
0.537000000000000366,-3.984569856075994121
0.538000000000000367,-3.960575002758745633
0.539000000000000368,-3.936809926345722577
0.540000000000000369,-3.913271881835753252
0.541000000000000369,-3.889958142835711730
0.542000000000000370,-3.866866001999722080
0.543000000000000371,-3.843992771444292522
0.544000000000000372,-3.821335783140022535
0.545000000000000373,-3.798892389280611237
0.546000000000000374,-3.776659962629802969
0.547000000000000375,-3.754635896846961085
0.548000000000000376,-3.732817606791920984
0.549000000000000377,-3.711202528809732115
0.550000000000000377,-3.689788120995891152
0.551000000000000378,-3.668571863442715575
0.552000000000000379,-3.647551258467424784
0.553000000000000380,-3.626723830822483841
0.554000000000000381,-3.606087127888774724
0.555000000000000382,-3.585638719852225709
0.556000000000000383,-3.565376199864270124
0.557000000000000384,-3.545297184186848138
0.558000000000000385,-3.525399312322295309
0.559000000000000385,-3.505680247128746707
0.560000000000000386,-3.486137674921448770
0.561000000000000387,-3.466769305560519321
0.562000000000000388,-3.447572872525564769
0.563000000000000389,-3.428546132977662975
0.564000000000000390,-3.409686867809102573
0.565000000000000391,-3.390992881681334836
0.566000000000000392,-3.372462003051546642
0.567000000000000393,-3.354092084188289302
0.568000000000000393,-3.335881001176507876
0.569000000000000394,-3.317826653912405277
0.570000000000000395,-3.299926966088524871
0.571000000000000396,-3.282179885169344224
0.572000000000000397,-3.264583382357872487
0.573000000000000398,-3.247135452553448154
0.574000000000000399,-3.229834114301204373
0.575000000000000400,-3.212677409733453171
0.576000000000000401,-3.195663404503326088
0.577000000000000401,-3.178790187711055815
0.578000000000000402,-3.162055871823077347
0.579000000000000403,-3.145458592584335911
0.580000000000000404,-3.128996508924100972
0.581000000000000405,-3.112667802855489718
0.582000000000000406,-3.096470679369044632
0.583000000000000407,-3.080403366320595193
0.584000000000000408,-3.064464114313675935
0.585000000000000409,-3.048651196576744660
0.586000000000000409,-3.032962908835442395
0.587000000000000410,-3.017397569180157113
0.588000000000000411,-3.001953517929067505
0.589000000000000412,-2.986629117486969243
0.590000000000000413,-2.971422752200006290
0.591000000000000414,-2.956332828206599039
0.592000000000000415,-2.941357773284752675
0.593000000000000416,-2.926496036695888314
0.594000000000000417,-2.911746089025461171
0.595000000000000417,-2.897106422020570449
0.596000000000000418,-2.882575548424586298
0.597000000000000419,-2.868152001809209484
0.598000000000000420,-2.853834336403899830
0.599000000000000421,-2.839621126923012717
0.600000000000000422,-2.825510968390695599
0.601000000000000423,-2.811502475963748360
0.602000000000000424,-2.797594284752595861
0.603000000000000425,-2.783785049640500997
0.604000000000000425,-2.770073445101157716
0.605000000000000426,-2.756458165014813222
0.606000000000000427,-2.742937922483087210
0.607000000000000428,-2.729511449642457954
0.608000000000000429,-2.716177497476829128
0.609000000000000430,-2.702934835628930443
0.610000000000000431,-2.689782252211012636
0.611000000000000432,-2.676718553614711560
