# Au-001-PE_BSAIV11
# h[nm],U(h)[kJ/mol]
0.149999999999999994,89.429569372935659999
0.150999999999999995,86.975233767315785371
0.151999999999999996,84.597366832615108478
0.152999999999999997,82.253824865377424658
0.153999999999999998,79.928965689966489094
0.154999999999999999,77.621434949205067255
0.156000000000000000,75.336382282762912155
0.157000000000000001,73.080844149926917908
0.158000000000000002,70.861282041186825609
0.159000000000000002,68.682508339107656070
0.160000000000000003,66.547443650585350383
0.161000000000000004,64.457321133002196234
0.162000000000000005,62.412085676077893481
0.163000000000000006,60.410833337896711726
0.164000000000000007,58.452205243478374541
0.165000000000000008,56.534696425919960916
0.166000000000000009,54.656869418669352001
0.167000000000000010,52.817479503048183176
0.168000000000000010,51.015527146365698741
0.169000000000000011,49.250256226305765495
0.170000000000000012,47.521116266689595875
0.171000000000000013,45.827704632473306390
0.172000000000000014,44.169701489199937328
0.173000000000000015,42.546806999537722049
0.174000000000000016,40.958687114609631408
0.175000000000000017,39.404931638846335318
0.176000000000000018,37.885026093893912957
0.177000000000000018,36.398337286742908248
0.178000000000000019,34.944111357319414424
0.179000000000000020,33.521482372882694278
0.180000000000000021,32.129489172214604764
0.181000000000000022,30.767098063404212382
0.182000000000000023,29.433229072961104578
0.183000000000000024,28.126783668473734679
0.184000000000000025,26.846672180286201836
0.185000000000000026,25.591839488676033199
0.186000000000000026,24.361287890719115268
0.187000000000000027,23.154096393131798237
0.188000000000000028,21.969435978960451195
0.189000000000000029,20.806580658116139659
0.190000000000000030,19.664914330171406220
0.191000000000000031,18.543933661813248648
0.192000000000000032,17.443247312667644167
0.193000000000000033,16.362571935350715080
0.194000000000000034,15.301725433073297467
0.195000000000000034,14.260617985944161745
0.196000000000000035,13.239241360431577732
0.197000000000000036,12.237657000243824967
0.198000000000000037,11.255983365820664943
0.199000000000000038,10.294382947874362699
0.200000000000000039,9.353049331634604613
0.201000000000000040,8.432194635742202848
0.202000000000000041,7.532037595667692820
0.203000000000000042,6.652792508159121709
0.204000000000000042,5.794659202134356590
0.205000000000000043,4.957814153802194923
0.206000000000000044,4.142402820431219546
0.207000000000000045,3.348533228592716959
0.208000000000000046,2.576270819132811418
0.209000000000000047,1.825634522624018929
0.210000000000000048,1.096594015492575513
0.211000000000000049,0.389068088177436988
0.212000000000000050,-0.297075957777830801
0.213000000000000050,-0.962021977248430304
0.214000000000000051,-1.606003814083443615
0.215000000000000052,-2.229303402827532921
0.216000000000000053,-2.832248244748859278
0.217000000000000054,-3.415208362026561417
0.218000000000000055,-3.978592830774593470
0.219000000000000056,-4.522845988884700574
0.220000000000000057,-5.048443408805871613
0.221000000000000058,-5.555887718641131734
0.222000000000000058,-6.045704347617872898
0.223000000000000059,-6.518437264303376999
0.224000000000000060,-6.974644768103861914
0.225000000000000061,-7.414895386772866637
0.226000000000000062,-7.839763925004790579
0.227000000000000063,-8.249827701818677639
0.228000000000000064,-8.645663007433549652
0.229000000000000065,-9.027841803770396467
0.230000000000000066,-9.396928686631792260
0.231000000000000066,-9.753478122043230059
0.232000000000000067,-10.098031964204237099
0.233000000000000068,-10.431117257998041126
0.234000000000000069,-10.753244325040238749
0.235000000000000070,-11.064905128794762845
0.236000000000000071,-11.366571911329085509
0.237000000000000072,-11.658696091795464511
0.238000000000000073,-11.941707414680077903
0.239000000000000073,-12.216013334225699793
0.240000000000000074,-12.481998620174419301
0.241000000000000075,-12.740025169057989984
0.242000000000000076,-12.990432004651736975
0.243000000000000077,-13.233535450871096728
0.244000000000000078,-13.469629460293111478
0.245000000000000079,-13.698986081598567566
0.246000000000000080,-13.921856049524047094
0.247000000000000081,-14.138469481359777546
0.248000000000000081,-14.349036664601788615
0.249000000000000082,-14.553748921042744868
0.250000000000000111,-14.752779533343391094
0.251000000000000112,-14.946284720944902347
0.252000000000000113,-15.134404653046519940
0.253000000000000114,-15.317264487262656658
0.254000000000000115,-15.494975423481315957
0.255000000000000115,-15.667635763353056078
0.256000000000000116,-15.835331966741176046
0.257000000000000117,-15.998139697348173982
0.258000000000000118,-16.156124850592895825
0.259000000000000119,-16.309344557643747464
0.260000000000000120,-16.457848160307989360
0.261000000000000121,-16.601678152233048991
0.262000000000000122,-16.740871082590725649
0.263000000000000123,-16.875458419085077821
0.264000000000000123,-17.005467367750792818
0.265000000000000124,-17.130921647588326806
0.266000000000000125,-17.251842218616246782
0.267000000000000126,-17.368247962409885332
0.268000000000000127,-17.480156314639639703
0.269000000000000128,-17.587583849523305446
0.270000000000000129,-17.690546816465705149
0.271000000000000130,-17.789061629478215565
0.272000000000000131,-17.883145310251443050
0.273000000000000131,-17.972815885998773666
0.274000000000000132,-18.058092743398894697
0.275000000000000133,-18.138996940144036074
0.276000000000000134,-18.215551475749016674
0.277000000000000135,-18.287781523396994032
0.278000000000000136,-18.355714624693696635
0.279000000000000137,-18.419380849273593981
0.280000000000000138,-18.478812921252281143
0.281000000000000139,-18.534046314551044787
0.282000000000000139,-18.585119319133255544
0.283000000000000140,-18.632073080190970416
0.284000000000000141,-18.674951612304660387
0.285000000000000142,-18.713801790571363171
0.286000000000000143,-18.748673320658419073
0.287000000000000144,-18.779618689692494371
0.288000000000000145,-18.806693099838433625
0.289000000000000146,-18.829954386360387986
0.290000000000000147,-18.849462921890602018
0.291000000000000147,-18.865281508559256451
0.292000000000000148,-18.877475259564022281
0.293000000000000149,-18.886111471679825513
0.294000000000000150,-18.891259490130202892
0.295000000000000151,-18.892990567161294990
0.296000000000000152,-18.891377715578130392
0.297000000000000153,-18.886495558423163743
0.298000000000000154,-18.878420175895925581
0.299000000000000155,-18.867228950534983056
0.300000000000000155,-18.853000411605165709
0.301000000000000156,-18.835814079558304002
0.302000000000000157,-18.815750311361863822
0.303000000000000158,-18.792890147419335278
0.304000000000000159,-18.767315160737645385
0.305000000000000160,-18.739107308931078677
0.306000000000000161,-18.708348789588679750
0.307000000000000162,-18.675121899471843534
0.308000000000000163,-18.639508897951987620
0.309000000000000163,-18.601591875044235280
0.310000000000000164,-18.561452624342106077
0.311000000000000165,-18.519172521110171203
0.312000000000000166,-18.474832405746830943
0.313000000000000167,-18.428512472787303977
0.314000000000000168,-18.380292165577639452
0.315000000000000169,-18.330250076714364127
0.316000000000000170,-18.278463854310935233
0.317000000000000171,-18.225010114120802740
0.318000000000000171,-18.169964357518882281
0.319000000000000172,-18.113400895317230521
0.320000000000000173,-18.055392777367000434
0.321000000000000174,-17.996011727877593955
0.322000000000000175,-17.935328086364716427
0.323000000000000176,-17.873410754121980659
0.324000000000000177,-17.810327146095453088
0.325000000000000178,-17.746143148027147873
0.326000000000000179,-17.680923078722109665
0.327000000000000179,-17.614729657283408670
0.328000000000000180,-17.547623975150948183
0.329000000000000181,-17.479665472773287860
0.330000000000000182,-17.410911920735252068
0.331000000000000183,-17.341419405160344525
0.332000000000000184,-17.271242317202911920
0.333000000000000185,-17.200433346443269045
0.334000000000000186,-17.129043477997093703
0.335000000000000187,-17.057121993150310857
0.336000000000000187,-16.984716473330877307
0.337000000000000188,-16.911872807229634930
0.338000000000000189,-16.838635200884763066
0.339000000000000190,-16.765046190545973559
0.340000000000000191,-16.691146658137714809
0.341000000000000192,-16.616975849144257182
0.342000000000000193,-16.542571392742601688
0.343000000000000194,-16.467969324013932209
0.344000000000000195,-16.393204108068111680
0.345000000000000195,-16.318308665921062328
0.346000000000000196,-16.243314401969083605
0.347000000000000197,-16.168251232909877757
0.348000000000000198,-16.093147617964806528
0.349000000000000199,-16.018030590262618773
0.350000000000000200,-15.942925789250192992
0.351000000000000201,-15.867857494001304630
0.352000000000000202,-15.792848657300012860
0.353000000000000203,-15.717920940380945893
0.354000000000000203,-15.643094748214101841
0.355000000000000204,-15.568389265227239093
0.356000000000000205,-15.493822491364756644
0.357000000000000206,-15.419411278386913722
0.358000000000000207,-15.345171366318741235
0.359000000000000208,-15.271117419963175621
0.360000000000000209,-15.197263065398155746
0.361000000000000210,-15.123620926382153939
0.362000000000000210,-15.050202660597756577
0.363000000000000211,-14.977018995667364720
0.364000000000000212,-14.904079764880060921
0.365000000000000213,-14.831393942572635325
0.366000000000000214,-14.758969679112567519
0.367000000000000215,-14.686814335434570822
0.368000000000000216,-14.614934517086572541
0.369000000000000217,-14.543336107744599062
0.370000000000000218,-14.472024302159997688
0.371000000000000218,-14.401003638505807558
0.372000000000000219,-14.330278030092561181
0.373000000000000220,-14.259850796427055997
0.374000000000000221,-14.189724693590695992
0.375000000000000222,-14.119901943916985942
0.376000000000000223,-14.050384264950540825
0.377000000000000224,-13.981172897672681898
0.378000000000000225,-13.912268633981167198
0.379000000000000226,-13.843671843413966727
0.380000000000000226,-13.775382499109344536
0.381000000000000227,-13.707400202996501193
0.382000000000000228,-13.639724210213122646
0.383000000000000229,-13.572353452748004088
0.384000000000000230,-13.505286562308594256
0.385000000000000231,-13.438521892415170811
0.386000000000000232,-13.372057539724542252
0.387000000000000233,-13.305891364587925096
0.388000000000000234,-13.240021010848579408
0.389000000000000234,-13.174443924886512391
0.390000000000000235,-13.109157373918014500
0.391000000000000236,-13.044158463559455186
0.392000000000000237,-12.979444154665177535
0.393000000000000238,-12.915011279450624215
0.394000000000000239,-12.850856556912130912
0.395000000000000240,-12.786976607556031382
0.396000000000000241,-12.723367967449799920
0.397000000000000242,-12.660027101608978484
0.398000000000000242,-12.596950416733815103
0.399000000000000243,-12.534134273310064245
0.400000000000000244,-12.471574997088771042
0.401000000000000245,-12.409268889960189952
0.402000000000000246,-12.347212240237137593
0.403000000000000247,-12.285401332363381499
0.404000000000000248,-12.223832456062854845
0.405000000000000249,-12.162501914945462289
0.406000000000000250,-12.101406034585428628
0.407000000000000250,-12.040541170088221890
0.408000000000000251,-11.979903713161835555
0.409000000000000252,-11.919490098708605430
0.410000000000000253,-11.859296810953170009
0.411000000000000254,-11.799320389122579300
0.412000000000000255,-11.739557432694002870
0.413000000000000256,-11.680004606225732999
0.414000000000000257,-11.620658643786720532
0.415000000000000258,-11.561516352999831270
0.416000000000000258,-11.502574618713854449
0.417000000000000259,-11.443830406318872051
0.418000000000000260,-11.385280764719718505
0.419000000000000261,-11.326922828981526692
0.420000000000000262,-11.268753822661576436
0.421000000000000263,-11.210771059841153630
0.422000000000000264,-11.152971946870701814
0.423000000000000265,-11.095353983841654610
0.424000000000000266,-11.037914765797719241
0.425000000000000266,-10.980651983698132668
0.426000000000000267,-10.923563425145228933
0.427000000000000268,-10.866646974888276134
0.428000000000000269,-10.809900615115131117
0.429000000000000270,-10.753322425543171192
0.430000000000000271,-10.696910583320365262
0.431000000000000272,-10.640663362747327270
0.432000000000000273,-10.584579134830578440
0.433000000000000274,-10.528656366677193290
0.434000000000000274,-10.472893620740508780
0.435000000000000275,-10.417289553926345036
0.436000000000000276,-10.361842916568871686
0.437000000000000277,-10.306552551284886121
0.438000000000000278,-10.251417391715040850
0.439000000000000279,-10.196436461160276465
0.440000000000000280,-10.141608871121214008
0.441000000000000281,-10.086933819748303165
0.442000000000000282,-10.032410590209945411
0.443000000000000282,-9.978038548985610490
0.444000000000000283,-9.923817144090847364
0.445000000000000284,-9.869745903240497498
0.446000000000000285,-9.815824431956437834
0.447000000000000286,-9.762052411625868231
0.448000000000000287,-9.708429597515660703
0.449000000000000288,-9.654955816748453046
0.450000000000000289,-9.601630966245460641
0.451000000000000290,-9.548455010641166751
0.452000000000000290,-9.495427980174529381
0.453000000000000291,-9.442549968561189999
0.454000000000000292,-9.389821130851068176
0.455000000000000293,-9.337241681275294525
0.456000000000000294,-9.284811891086439672
0.457000000000000295,-9.232532086395652371
0.458000000000000296,-9.180402646010147549
0.459000000000000297,-9.128423999274421163
0.460000000000000298,-9.076596623918106843
0.461000000000000298,-9.024921043913545660
0.462000000000000299,-8.973397827345744204
0.463000000000000300,-8.922027584297216762
0.464000000000000301,-8.870810964750260652
0.465000000000000302,-8.819748656508792806
0.466000000000000303,-8.768841383141921852
0.467000000000000304,-8.718089901951151077
0.468000000000000305,-8.667495001963100520
0.469000000000000306,-8.617057501949343390
0.470000000000000306,-8.566778248475028334
0.471000000000000307,-8.516658113977548794
0.472000000000000308,-8.466697994876756894
0.473000000000000309,-8.416898809717768160
0.474000000000000310,-8.367261497347515231
0.475000000000000311,-8.317787015125977845
0.476000000000000312,-8.268476337173122914
0.477000000000000313,-8.219330452652076957
0.478000000000000314,-8.170350364089438600
0.479000000000000314,-8.121537085733297801
0.480000000000000315,-8.072891641949363262
0.481000000000000316,-8.024415065655830404
0.482000000000000317,-7.976108396797167543
0.483000000000000318,-7.927972680857237719
0.484000000000000319,-7.880008967411946230
0.485000000000000320,-7.832218308721559552
0.486000000000000321,-7.784601758362809321
0.487000000000000322,-7.737160369900837331
0.488000000000000322,-7.689895195600884747
0.489000000000000323,-7.642807285179801013
0.490000000000000324,-7.595897684597142430
0.491000000000000325,-7.549167434885727168
0.492000000000000326,-7.502617571021436227
0.493000000000000327,-7.456249120832067590
0.494000000000000328,-7.410063103944859897
0.495000000000000329,-7.364060530772479574
0.496000000000000330,-7.318242401536993569
0.497000000000000330,-7.272609705331571028
0.498000000000000331,-7.227163419219377438
0.499000000000000332,-7.181904507369326396
0.500000000000000333,-7.136833920228143668
0.501000000000000334,-7.091952593728313659
0.502000000000000335,-7.047261448531327410
0.503000000000000336,-7.002761389305803164
0.504000000000000337,-6.958453304039831089
0.505000000000000338,-6.914338063387067912
0.506000000000000338,-6.870416520045923292
0.507000000000000339,-6.826689508171321918
0.508000000000000340,-6.783157842818371641
0.509000000000000341,-6.739822319417422491
0.510000000000000342,-6.696683713279779404
0.511000000000000343,-6.653742779133542840
0.512000000000000344,-6.611000250688881863
0.513000000000000345,-6.568456840232116178
0.514000000000000346,-6.526113238248015591
0.515000000000000346,-6.483970113069590369
0.516000000000000347,-6.442028110554746334
0.517000000000000348,-6.400287853789262904
0.518000000000000349,-6.358749942815238754
0.519000000000000350,-6.317414954384567238
0.520000000000000351,-6.276283441736651980
0.521000000000000352,-6.235355934399807509
0.522000000000000353,-6.194632938015626422
0.523000000000000353,-6.154114934185716201
0.524000000000000354,-6.113802380340213283
0.525000000000000355,-6.073695709627327410
0.526000000000000356,-6.033795330823391367
0.527000000000000357,-5.994101628262802350
0.528000000000000358,-5.954614961787109806
0.529000000000000359,-5.915335666712829621
0.530000000000000360,-5.876264053817219057
0.531000000000000361,-5.837400409341529262
0.532000000000000361,-5.798744995011076320
0.533000000000000362,-5.760298048071595289
0.534000000000000363,-5.722059781341295448
0.535000000000000364,-5.684030383278032339
0.536000000000000365,-5.646210018061067260
0.537000000000000366,-5.608598825686885725
0.538000000000000367,-5.571196922078444302
0.539000000000000368,-5.534004399207473668
0.540000000000000369,-5.497021325229151323
0.541000000000000369,-5.460247744628779820
0.542000000000000370,-5.423683678379850548
0.543000000000000371,-5.387329124113078294
0.544000000000000372,-5.351184056295918978
0.545000000000000373,-5.315248426422064298
0.546000000000000374,-5.279522163210466523
0.547000000000000375,-5.244005172813443139
0.548000000000000376,-5.208697339033451001
0.549000000000000377,-5.173598523548045058
0.550000000000000377,-5.138708566142601519
0.551000000000000378,-5.104027284950444887
0.552000000000000379,-5.069554476699932977
0.553000000000000380,-5.035289916968103796
0.554000000000000381,-5.001233360440503262
0.555000000000000382,-4.967384541176885548
0.556000000000000383,-4.933743172882254946
0.557000000000000384,-4.900308949183117768
0.558000000000000385,-4.867081543908388319
0.559000000000000385,-4.834060611374764171
0.560000000000000386,-4.801245786676139105
0.561000000000000387,-4.768636685976817446
0.562000000000000388,-4.736232906808146126
0.563000000000000389,-4.704034028368315745
0.564000000000000390,-4.672039611825021588
0.565000000000000391,-4.640249200620683467
0.566000000000000392,-4.608662320779982835
0.567000000000000393,-4.577278481219432038
0.568000000000000393,-4.546097174058703949
0.569000000000000394,-4.515117874933483044
0.570000000000000395,-4.484340043309646084
0.571000000000000396,-4.453763122798411800
0.572000000000000397,-4.423386541472386746
0.573000000000000398,-4.393209712182167159
0.574000000000000399,-4.363232032873361810
0.575000000000000400,-4.333452886903776502
0.576000000000000401,-4.303871643360598576
0.577000000000000401,-4.274487657377414429
0.578000000000000402,-4.245300270450791835
0.579000000000000403,-4.216308810756340009
0.580000000000000404,-4.187512593464048472
0.581000000000000405,-4.158910921052720866
0.582000000000000406,-4.130503083623379368
0.583000000000000407,-4.102288359211457625
0.584000000000000408,-4.074266014097680966
0.585000000000000409,-4.046435303117463356
0.586000000000000409,-4.018795469968678091
0.587000000000000410,-3.991345747517745846
0.588000000000000411,-3.964085358103813128
0.589000000000000412,-3.937013513841018497
0.590000000000000413,-3.910129416918633805
0.591000000000000414,-3.883432259899067596
0.592000000000000415,-3.856921226013573456
0.593000000000000416,-3.830595489455574487
0.594000000000000417,-3.804454215671529305
0.595000000000000417,-3.778496561649299590
0.596000000000000418,-3.752721676203785162
0.597000000000000419,-3.727128700259989991
0.598000000000000420,-3.701716767133193198
0.599000000000000421,-3.676485002806368918
0.600000000000000422,-3.651432526204649864
0.601000000000000423,-3.626558449466858569
0.602000000000000424,-3.601861878214006829
0.603000000000000425,-3.577341911814732267
0.604000000000000425,-3.552997643647615611
0.605000000000000426,-3.528828161360345383
0.606000000000000427,-3.504832547125693587
0.607000000000000428,-3.481009877894203353
0.608000000000000429,-3.457359225643688916
