# CaO001_HMC
# h[nm],U(h)[kJ/mol]
0.149999999999999994,128.490532951491275071
0.150999999999999995,125.828204082784196771
0.151999999999999996,123.189770253366788211
0.152999999999999997,120.615986686392218985
0.153999999999999998,118.109344648637446085
0.154999999999999999,115.660046548329972893
0.156000000000000000,113.257640195670006733
0.157000000000000001,110.895102627679307261
0.158000000000000002,108.569306792927861238
0.159000000000000002,106.280043708173096206
0.160000000000000003,104.028716959217376825
0.161000000000000004,101.817216237473402884
0.162000000000000005,99.647142047838400458
0.163000000000000006,97.519384966635342948
0.164000000000000007,95.433990070831924868
0.165000000000000008,93.390216969316753648
0.166000000000000009,91.386711956717462613
0.167000000000000010,89.421725864034499409
0.168000000000000010,87.493330761334888734
0.169000000000000011,85.599606539367528057
0.170000000000000012,83.738782795624800315
0.171000000000000013,81.909331992340042916
0.172000000000000014,80.110016860612944356
0.173000000000000015,78.339899120221033968
0.174000000000000016,76.598318466335115318
0.175000000000000017,74.884851093476342498
0.176000000000000018,73.199256334003237612
0.177000000000000018,71.541418716694437308
0.178000000000000019,69.911291221861887379
0.179000000000000020,68.308843946515921175
0.180000000000000021,66.734020940604935390
0.181000000000000022,65.186706716164081854
0.182000000000000023,63.666702903262191171
0.183000000000000024,62.173714736584699381
0.184000000000000025,60.707346490636908243
0.185000000000000026,59.267104614227378079
0.186000000000000026,57.852407114563312973
0.187000000000000027,56.462597674872050391
0.188000000000000028,55.096963025136766134
0.189000000000000029,53.754752194479749505
0.190000000000000030,52.435196431035748788
0.191000000000000031,51.137528760159298713
0.192000000000000032,49.861002348021244757
0.193000000000000033,48.604907032466101668
0.194000000000000034,47.368583567267151579
0.195000000000000034,46.151435293407850224
0.196000000000000035,44.952937097942594846
0.197000000000000036,43.772641645493344242
0.198000000000000037,42.610182969153456156
0.199000000000000038,41.465277587239285140
0.200000000000000039,40.337723371465514788
0.201000000000000040,39.227396432732874132
0.202000000000000041,38.134246315101265168
0.203000000000000042,37.058289799083240723
0.204000000000000042,35.999603614515507388
0.205000000000000043,34.958316353234053508
0.206000000000000044,33.934599854689963649
0.207000000000000045,32.928660315400513525
0.208000000000000046,31.940729347392540660
0.209000000000000047,30.971055182992767385
0.210000000000000048,30.019894194646546737
0.211000000000000049,29.087502869880360379
0.212000000000000050,28.174130353834424767
0.213000000000000050,27.280011645576031754
0.214000000000000051,26.405361510087665522
0.215000000000000052,25.550369145702426010
0.216000000000000053,24.715193627005511701
0.217000000000000054,23.899960125912201647
0.218000000000000055,23.104756898768865625
0.219000000000000056,22.329633014839973981
0.220000000000000057,21.574596791327287804
0.221000000000000058,20.839614891976715683
0.222000000000000058,20.124612040185034800
0.223000000000000059,19.429471293147223321
0.224000000000000060,18.754034820787069293
0.225000000000000061,18.098105131799044898
0.226000000000000062,17.461446688909500580
0.227000000000000063,16.843787856257524282
0.228000000000000064,16.244823123431157086
0.229000000000000065,15.664215553011874960
0.230000000000000066,15.101599401337569617
0.231000000000000066,14.556582865456643816
0.232000000000000067,14.028750912799671013
0.233000000000000068,13.517668153835350253
0.234000000000000069,13.022881721815497968
0.235000000000000070,12.543924127573770733
0.236000000000000071,12.080316061159669161
0.237000000000000072,11.631569115809700321
0.238000000000000073,11.197188413339356217
0.239000000000000073,10.776675113449341481
0.240000000000000074,10.369528792648578630
0.241000000000000075,9.975249681491579423
0.242000000000000076,9.593340751592620563
0.243000000000000077,9.223309646408690554
0.244000000000000078,8.864670452076065743
0.245000000000000079,8.516945306642281110
0.246000000000000080,8.179665847862562345
0.247000000000000081,7.852374501333407864
0.248000000000000081,7.534625612127745953
0.249000000000000082,7.225986424285819609
0.250000000000000111,6.926037913515915356
0.251000000000000112,6.634375479283711741
0.252000000000000113,6.350609503129487798
0.253000000000000114,6.074365780566250095
0.254000000000000115,5.805285834287586155
0.255000000000000115,5.543027116670172560
0.256000000000000116,5.287263109701539676
0.257000000000000117,5.037683330513397451
0.258000000000000118,4.793993250666447992
0.259000000000000119,4.555914137223892268
0.260000000000000120,4.323182823479855053
0.261000000000000121,4.095551416985142801
0.262000000000000122,3.872786952243866043
0.263000000000000123,3.654670995151219071
0.264000000000000123,3.440999205909542891
0.265000000000000124,3.231580866806711416
0.266000000000000125,3.026238380871090428
0.267000000000000126,2.824806747038725252
0.268000000000000127,2.627133017083535638
0.269000000000000128,2.433075739176691954
0.270000000000000129,2.242504392558521076
0.271000000000000130,2.055298817429775937
0.272000000000000131,1.871348643801103551
0.273000000000000131,1.690552722682223230
0.274000000000000132,1.512818562647744391
0.275000000000000133,1.338061774485771016
0.276000000000000134,1.166205526320029273
0.277000000000000135,0.997180011297190916
0.278000000000000136,0.830921929647903790
0.279000000000000137,0.667373986664600904
0.280000000000000138,0.506484407890628541
0.281000000000000139,0.348206472583657778
0.282000000000000139,0.192498066302191878
0.283000000000000140,0.039321253266029421
0.284000000000000141,-0.111358131039616823
0.285000000000000142,-0.259570866712368620
0.286000000000000143,-0.405344715579664339
0.287000000000000144,-0.548704766626296747
0.288000000000000145,-0.689673760806523206
0.289000000000000146,-0.828272395452555821
0.290000000000000147,-0.964519608587761645
0.291000000000000147,-1.098432843536394588
0.292000000000000148,-1.230028294295117064
0.293000000000000149,-1.359321132193665571
0.294000000000000150,-1.486325714425265732
0.295000000000000151,-1.611055775071269291
0.296000000000000152,-1.733524599280169998
0.297000000000000153,-1.853745181289342181
0.298000000000000154,-1.971730366999075557
0.299000000000000155,-2.087492981823340088
0.300000000000000155,-2.201045944550945599
0.301000000000000156,-2.312402367954603299
0.302000000000000157,-2.421575646885115063
0.303000000000000158,-2.528579534582790611
0.304000000000000159,-2.633428207930176512
0.305000000000000160,-2.736136322358297068
0.306000000000000161,-2.836719057104434505
0.307000000000000162,-2.935192151502647562
0.308000000000000163,-3.031571932969349348
0.309000000000000163,-3.125875337325749292
0.310000000000000164,-3.218119922077053552
0.311000000000000165,-3.308323873245138991
0.312000000000000166,-3.396506006327514537
0.313000000000000167,-3.482685761930706114
0.314000000000000168,-3.566883196601086325
0.315000000000000169,-3.649118969350941377
0.316000000000000170,-3.729414324352062771
0.317000000000000171,-3.807791070243847997
0.318000000000000171,-3.884271556477584486
0.319000000000000172,-3.958878647094064007
0.320000000000000173,-4.031635692306872798
0.321000000000000174,-4.102566498239993642
0.322000000000000175,-4.171695295145001481
0.323000000000000176,-4.239046704400331933
0.324000000000000177,-4.304645704573225373
0.325000000000000178,-4.368517596803534353
0.326000000000000179,-4.430687969748333011
0.327000000000000179,-4.491182664306316852
0.328000000000000180,-4.550027738322311777
0.329000000000000181,-4.607249431454236266
0.330000000000000182,-4.662874130367391068
0.331000000000000183,-4.716928334405087853
0.332000000000000184,-4.769438621868692607
0.333000000000000185,-4.820431617025755067
0.334000000000000186,-4.869933957951067427
0.335000000000000187,-4.917972265292302581
0.336000000000000187,-4.964573112039969871
0.337000000000000188,-5.009762994369479472
0.338000000000000189,-5.053568303612978596
0.339000000000000190,-5.096015299408255927
0.340000000000000191,-5.137130084062720314
0.341000000000000192,-5.176938578162248561
0.342000000000000193,-5.215466497446252347
0.343000000000000194,-5.252739330963503761
0.344000000000000195,-5.288782320515982960
0.345000000000000195,-5.323620441392552749
0.346000000000000196,-5.357278384387971215
0.347000000000000197,-5.389780539098222079
0.348000000000000198,-5.421150978478256555
0.349000000000000199,-5.451413444644184203
0.350000000000000200,-5.480591335898376215
0.351000000000000201,-5.508707694952521550
0.352000000000000202,-5.535785198320883893
0.353000000000000203,-5.561846146853498318
0.354000000000000203,-5.586912457376910446
0.355000000000000204,-5.611005655408014547
0.356000000000000205,-5.634146868905267169
0.357000000000000206,-5.656356823020190383
0.358000000000000207,-5.677655835810816676
0.359000000000000208,-5.698063814878326916
0.360000000000000209,-5.717600254887353017
0.361000000000000210,-5.736284235929987041
0.362000000000000210,-5.754134422693590878
0.363000000000000211,-5.771169064392223547
0.364000000000000212,-5.787405995421909921
0.365000000000000213,-5.802862636699988919
0.366000000000000214,-5.817555997649438204
0.367000000000000215,-5.831502678789330041
0.368000000000000216,-5.844718874893523264
0.369000000000000217,-5.857220378679998340
0.370000000000000218,-5.869022584994420200
0.371000000000000218,-5.880140495452079286
0.372000000000000219,-5.890588723503421775
0.373000000000000220,-5.900381499889356895
0.374000000000000221,-5.909532678453460974
0.375000000000000222,-5.918055742279166864
0.376000000000000223,-5.925963810121454678
0.377000000000000224,-5.933269643103160185
0.378000000000000225,-5.939985651647523568
0.379000000000000226,-5.946123902619457446
0.380000000000000226,-5.951696126649456353
0.381000000000000227,-5.956713725614693367
0.382000000000000228,-5.961187780253601964
0.383000000000000229,-5.965129057890826481
0.384000000000000230,-5.968548020250784347
0.385000000000000231,-5.971454831339261027
0.386000000000000232,-5.973859365373247243
0.387000000000000233,-5.975771214740631443
0.388000000000000234,-5.977199697972096715
0.389000000000000234,-5.978153867708885016
0.390000000000000235,-5.978642518650792326
0.391000000000000236,-5.978674195470010666
0.392000000000000237,-5.978257200677151495
0.393000000000000238,-5.977399602426900493
0.394000000000000239,-5.976109242251441245
0.395000000000000240,-5.974393742710850219
0.396000000000000241,-5.972260514950394672
0.397000000000000242,-5.969716766155384491
0.398000000000000242,-5.966769506895316155
0.399000000000000243,-5.963425558349308098
0.400000000000000244,-5.959691559406048000
0.401000000000000245,-5.955573973631847373
0.402000000000000246,-5.951079096101066668
0.403000000000000247,-5.946213060083996638
0.404000000000000248,-5.940981843587666233
0.405000000000000249,-5.935391275745782735
0.406000000000000250,-5.929447043054397071
0.407000000000000250,-5.923154695450578267
0.408000000000000251,-5.916519652231714943
0.409000000000000252,-5.909547207813639957
0.410000000000000253,-5.902242537326114480
0.411000000000000254,-5.894610702044721151
0.412000000000000255,-5.886656654658487753
0.413000000000000256,-5.878385244373115270
0.414000000000000257,-5.869801221849712647
0.415000000000000258,-5.860909243979675942
0.416000000000000258,-5.851713878496246579
0.417000000000000259,-5.842219608423847355
0.418000000000000260,-5.832430836366397919
0.419000000000000261,-5.822351888636148054
0.420000000000000262,-5.811987019224655882
0.421000000000000263,-5.801340413617984915
0.422000000000000264,-5.790416192458022415
0.423000000000000265,-5.779218415052345570
0.424000000000000266,-5.767751082735051327
0.425000000000000266,-5.756018142081018141
0.426000000000000267,-5.744023487976415154
0.427000000000000268,-5.731770966548213941
0.428000000000000269,-5.719264377955584955
0.429000000000000270,-5.706507479046260656
0.430000000000000271,-5.693503985880830953
0.431000000000000272,-5.680257576128223462
0.432000000000000273,-5.666771891335449673
0.433000000000000274,-5.653050539074961911
0.434000000000000274,-5.639097094972817636
0.435000000000000275,-5.624915104620989759
0.436000000000000276,-5.610508085377161613
0.437000000000000277,-5.595879528055284879
0.438000000000000278,-5.581032898510287055
0.439000000000000279,-5.565971639120279590
0.440000000000000280,-5.550699170169521857
0.441000000000000281,-5.535218891135500918
0.442000000000000282,-5.519534181883477331
0.443000000000000282,-5.503648403771613573
0.444000000000000283,-5.487564900670106383
0.445000000000000284,-5.471286999897376546
0.446000000000000285,-5.454818013076556227
0.447000000000000286,-5.438161236915444618
0.448000000000000287,-5.421319953912867362
0.449000000000000288,-5.404297432994668249
0.450000000000000289,-5.387096930082137192
0.451000000000000290,-5.369721688595920028
0.452000000000000290,-5.352174939898272754
0.453000000000000291,-5.334459903676415315
0.454000000000000292,-5.316579788269847562
0.455000000000000293,-5.298537790944231496
0.456000000000000294,-5.280337098114548766
0.457000000000000295,-5.261980885520104678
0.458000000000000296,-5.243472318353831874
0.459000000000000297,-5.224814551348472946
0.460000000000000298,-5.206010728821882871
0.461000000000000298,-5.187063984683882190
0.462000000000000299,-5.167977442406905375
0.463000000000000300,-5.148754214962564468
0.464000000000000301,-5.129397404726375065
0.465000000000000302,-5.109910103352613753
0.466000000000000303,-5.090295391621351584
0.467000000000000304,-5.070556339259605139
0.468000000000000305,-5.050696004738459699
0.469000000000000306,-5.030717435047955988
0.470000000000000306,-5.010623665451602093
0.471000000000000307,-4.990417719221984960
0.472000000000000308,-4.970102607359352831
0.473000000000000309,-4.949681328294555982
0.474000000000000310,-4.929156867577911605
0.475000000000000311,-4.908532197555447674
0.476000000000000312,-4.887810277033945994
0.477000000000000313,-4.866994050936034100
0.478000000000000314,-4.846086449946668040
0.479000000000000314,-4.825090390152262820
0.480000000000000315,-4.804008772673517669
0.481000000000000316,-4.782844483293231086
0.482000000000000317,-4.761600392080003630
0.483000000000000318,-4.740279353008975960
0.484000000000000319,-4.718884203580495651
0.485000000000000320,-4.697417764437679999
0.486000000000000321,-4.675882838983750567
0.487000000000000322,-4.654282212999939716
0.488000000000000322,-4.632618654264765823
0.489000000000000323,-4.610894912175483640
0.490000000000000324,-4.589113717372343082
0.491000000000000325,-4.567277781366355427
0.492000000000000326,-4.545389796171158459
0.493000000000000327,-4.523452433939667117
0.494000000000000328,-4.501468346605911997
0.495000000000000329,-4.479440165532743379
0.496000000000000330,-4.457370501165728527
0.497000000000000330,-4.435261942693861315
0.498000000000000331,-4.413117057717292901
0.499000000000000332,-4.390938391922699857
0.500000000000000333,-4.368728468766480688
0.501000000000000334,-4.346489789166152917
0.502000000000000335,-4.324224831200284669
0.503000000000000336,-4.301936049817213004
0.504000000000000337,-4.279625876552779928
0.505000000000000338,-4.257296719257341877
0.506000000000000338,-4.234950961832237404
0.507000000000000339,-4.212590963975880065
0.508000000000000340,-4.190219060939634588
0.509000000000000341,-4.167837563293671721
0.510000000000000342,-4.145448756702792004
0.511000000000000343,-4.123054901712454701
0.512000000000000344,-4.100658233544978160
0.513000000000000345,-4.078260961906021720
0.514000000000000346,-4.055865270801418454
0.515000000000000346,-4.033473318364328541
0.516000000000000347,-4.011087236692739921
0.517000000000000348,-3.988709131697387278
0.518000000000000349,-3.966341082959933040
0.519000000000000350,-3.943985143601548060
0.520000000000000351,-3.921643340161692581
0.521000000000000352,-3.899317672487198738
0.522000000000000353,-3.877010113631448540
0.523000000000000353,-3.854722609763664654
0.524000000000000354,-3.832457080088246038
0.525000000000000355,-3.810215416773958363
0.526000000000000356,-3.787999484892968560
0.527000000000000357,-3.765811122369608022
0.528000000000000358,-3.743652139938688173
0.529000000000000359,-3.721524321113318656
0.530000000000000360,-3.699429422162038517
0.531000000000000361,-3.677369172095179550
0.532000000000000361,-3.655345272660282863
0.533000000000000362,-3.633359398346425628
0.534000000000000363,-3.611413196397342595
0.535000000000000364,-3.589508286833140716
0.536000000000000365,-3.567646262480469233
0.537000000000000366,-3.545828689011020884
0.538000000000000367,-3.524057104988089328
0.539000000000000368,-3.502333021921187228
0.540000000000000369,-3.480657924328347086
0.541000000000000369,-3.459033269806153665
0.542000000000000370,-3.437460489107110106
0.543000000000000371,-3.415940986224350162
0.544000000000000372,-3.394476138483411010
0.545000000000000373,-3.373067296640924972
0.546000000000000374,-3.351715784990033420
0.547000000000000375,-3.330422901472352315
0.548000000000000376,-3.309189917796336200
0.549000000000000377,-3.288018079561804363
0.550000000000000377,-3.266908606390496850
0.551000000000000378,-3.245862692062440491
0.552000000000000379,-3.224881504658001496
0.553000000000000380,-3.203966186705388797
0.554000000000000381,-3.183117855333423840
0.555000000000000382,-3.162337602429519556
0.556000000000000383,-3.141626494802473246
0.557000000000000384,-3.120985574350155556
0.558000000000000385,-3.100415858231686084
0.559000000000000385,-3.079918339044095621
0.560000000000000386,-3.059493985003217453
0.561000000000000387,-3.039143740128663396
0.562000000000000388,-3.018868524432703815
0.563000000000000389,-2.998669234112925519
0.564000000000000390,-2.978546741748439697
0.565000000000000391,-2.958501896499548867
0.566000000000000392,-2.938535524310651681
0.567000000000000393,-2.918648428116304316
0.568000000000000393,-2.898841388050171552
0.569000000000000394,-2.879115161656832012
0.570000000000000395,-2.859470484106240828
0.571000000000000396,-2.839908068410644582
0.572000000000000397,-2.820428605643934272
0.573000000000000398,-2.801032765163147253
0.574000000000000399,-2.781721194832111443
0.575000000000000400,-2.762494521246981805
0.576000000000000401,-2.743353349963599364
0.577000000000000401,-2.724298265726560864
0.578000000000000402,-2.705329832699784109
0.579000000000000403,-2.686448594698510384
0.580000000000000404,-2.667655075422627586
0.581000000000000405,-2.648949778691132906
0.582000000000000406,-2.630333188677675071
0.583000000000000407,-2.611805770147005212
0.584000000000000408,-2.593367968692297687
0.585000000000000409,-2.575020210973149037
0.586000000000000409,-2.556762904954183124
0.587000000000000410,-2.538596440144192279
0.588000000000000411,-2.520521187835625287
0.589000000000000412,-2.502537501344421766
0.590000000000000413,-2.484645716250004632
0.591000000000000414,-2.466846150635395141
0.592000000000000415,-2.449139105327355459
0.593000000000000416,-2.431524864136410891
0.594000000000000417,-2.414003694096723329
0.595000000000000417,-2.396575845705762653
0.596000000000000418,-2.379241553163529144
0.597000000000000419,-2.362001034611499684
0.598000000000000420,-2.344854492370949117
0.599000000000000421,-2.327802113180809762
0.600000000000000422,-2.310844068434822596
0.601000000000000423,-2.293980514417996552
0.602000000000000424,-2.277211592542296437
0.603000000000000425,-2.260537429581474633
0.604000000000000425,-2.243958137904979999
0.605000000000000426,-2.227473815710912852
0.606000000000000427,-2.211084547257963884
0.607000000000000428,-2.194790403096179343
0.608000000000000429,-2.178591440296711923
0.609000000000000430,-2.162487702680236712
0.610000000000000431,-2.146479221044232055
0.611000000000000432,-2.130566013388878854
0.612000000000000433,-2.114748085141648914
0.613000000000000433,-2.099025429380505514
0.614000000000000434,-2.083398027055661572
