# CaO001_ARGSCA-JS
# h[nm],U(h)[kJ/mol]
0.149999999999999994,136.104552708662879468
0.150999999999999995,134.198551646619534949
0.151999999999999996,131.460328305673840532
0.152999999999999997,128.648172383905972538
0.153999999999999998,125.981031747846060398
0.154999999999999999,123.457008658582338967
0.156000000000000000,121.010441487122449189
0.157000000000000001,118.579826711670349937
0.158000000000000002,116.129578084284688089
0.159000000000000002,113.650292181597052377
0.160000000000000003,111.150963432630078387
0.161000000000000004,108.649912663302217197
0.162000000000000005,106.167373679154792399
0.163000000000000006,103.720620692778126681
0.164000000000000007,101.321506411205206177
0.165000000000000008,98.975867959919696659
0.166000000000000009,96.684168318961070554
0.167000000000000010,94.442808203972347769
0.168000000000000010,92.245671529235337971
0.169000000000000011,90.085604897757633580
0.170000000000000012,87.955652757186186363
0.171000000000000013,85.849965216103811372
0.172000000000000014,83.764363804411374304
0.173000000000000015,81.696594663879182008
0.174000000000000016,79.646323429138334404
0.175000000000000017,77.614936328714478009
0.176000000000000018,75.605212266385564135
0.177000000000000018,73.620924537647411512
0.178000000000000019,71.666421263934722674
0.179000000000000020,69.746222681555352096
0.180000000000000021,67.864662533672486688
0.181000000000000022,66.025590881700907175
0.182000000000000023,64.232147172759567866
0.183000000000000024,62.486605575681707592
0.184000000000000025,60.790289433057907331
0.185000000000000026,59.143548047474929774
0.186000000000000026,57.545786731192471564
0.187000000000000027,55.995539872547929861
0.188000000000000028,54.490576477282431256
0.189000000000000029,53.028028009699504253
0.190000000000000030,51.604529191552465761
0.191000000000000031,50.216363548907018810
0.192000000000000032,48.859606792110476192
0.193000000000000033,47.530262463648313087
0.194000000000000034,46.224385611872754964
0.195000000000000034,44.938191487371163646
0.196000000000000035,43.668147374750887479
0.197000000000000036,42.411046643501975950
0.198000000000000037,41.164064917635911911
0.199000000000000038,39.924798924857164195
0.200000000000000039,38.691289098945780722
0.201000000000000040,37.462027385416241998
0.202000000000000041,36.235951954942365205
0.203000000000000042,35.012430677618844754
0.204000000000000042,33.791235270422518511
0.205000000000000043,32.572508016451720891
0.206000000000000044,31.356722882920525564
0.207000000000000045,30.144642749435298867
0.208000000000000046,28.937274311212501487
0.209000000000000047,27.735822054415841365
0.210000000000000048,26.541642521865469462
0.211000000000000049,25.356199904594156180
0.212000000000000050,24.181023814202102784
0.213000000000000050,23.017669917469781637
0.214000000000000051,21.867683951788357888
0.215000000000000052,20.732569490192645389
0.216000000000000053,19.613759689763394789
0.217000000000000054,18.512593137793267317
0.218000000000000055,17.430293806661310896
0.219000000000000056,16.367955040627869323
0.220000000000000057,15.326527425151386552
0.221000000000000058,14.306810330986809987
0.222000000000000058,13.309446880169312877
0.223000000000000059,12.334922047841313741
0.224000000000000060,11.383563591468050191
0.225000000000000061,10.455545486027578050
0.226000000000000062,9.550893538981371833
0.227000000000000063,8.669492861001529604
0.228000000000000064,7.811096876388255339
0.229000000000000065,6.975337569768624846
0.230000000000000066,6.161736682036358381
0.231000000000000066,5.369717587667123482
0.232000000000000067,4.598617606730036833
0.233000000000000068,3.847700527404812387
0.234000000000000069,3.116169137998289873
0.235000000000000070,2.403177590812517472
0.236000000000000071,1.707843443313667775
0.237000000000000072,1.029259244525713601
0.238000000000000073,0.366503556140452436
0.239000000000000073,-0.281348681729748862
0.240000000000000074,-0.915216511098493335
0.241000000000000075,-1.536004096176758704
0.242000000000000076,-2.144592679972746829
0.243000000000000077,-2.741833379732415477
0.244000000000000078,-3.328540830376424342
0.245000000000000079,-3.905487673450303454
0.246000000000000080,-4.473399878938929319
0.247000000000000081,-5.032952878549571629
0.248000000000000081,-5.584768481664412754
0.249000000000000082,-6.129412539025072881
0.250000000000000111,-6.667393314250524838
0.251000000000000112,-7.199160519412002301
0.252000000000000113,-7.725104968003634553
0.253000000000000114,-8.245558796655116041
0.254000000000000115,-8.760796205748276222
0.255000000000000115,-9.271034668623361341
0.256000000000000116,-9.776436559213276922
0.257000000000000117,-10.277111148637704474
0.258000000000000118,-10.773116922446529742
0.259000000000000119,-11.264464171751344068
0.260000000000000120,-11.751117813356604103
0.261000000000000121,-12.233000396133943966
0.262000000000000122,-12.709995253221128664
0.263000000000000123,-13.181949762115333868
0.264000000000000123,-13.648678677326552489
0.265000000000000124,-14.109967502916481052
0.266000000000000125,-14.565575874937277234
0.267000000000000126,-15.015240926469758165
0.268000000000000127,-15.458680610616363893
0.269000000000000128,-15.895596959404002746
0.270000000000000129,-16.325679259079993955
0.271000000000000130,-16.748607124721306860
0.272000000000000131,-17.164053459411256597
0.273000000000000131,-17.571687285458558847
0.274000000000000132,-17.971176437232607270
0.275000000000000133,-18.362190107161360686
0.276000000000000134,-18.744401238280254063
0.277000000000000135,-19.117488758429434625
0.278000000000000136,-19.481139652774722038
0.279000000000000137,-19.835050872772967523
0.280000000000000138,-20.178931081018884441
0.281000000000000139,-20.512502232601470098
0.282000000000000139,-20.835500994666293906
0.283000000000000140,-21.147680006831190980
0.284000000000000141,-21.448808985941447247
0.285000000000000142,-21.738675679382637895
0.286000000000000143,-22.017086671800122133
0.287000000000000144,-22.283868050609548561
0.288000000000000145,-22.538865936130356715
0.289000000000000146,-22.781946882537088328
0.290000000000000147,-23.012998156111365233
0.291000000000000147,-23.231927897492976598
0.292000000000000148,-23.438665174780819456
0.293000000000000149,-23.633159934425624016
0.294000000000000150,-23.815382856896270880
0.295000000000000151,-23.985325124090941529
0.296000000000000152,-24.142998105411969334
0.297000000000000153,-24.288432969331971378
0.298000000000000154,-24.421680227153746756
0.299000000000000155,-24.542809215511908860
0.300000000000000155,-24.651907523984327497
0.301000000000000156,-24.749080373979683856
0.302000000000000157,-24.834449954847762854
0.303000000000000158,-24.908154722924344071
0.304000000000000159,-24.970348668975951512
0.305000000000000160,-25.021200559253713891
0.306000000000000161,-25.060893155103492802
0.307000000000000162,-25.089622415812364409
0.308000000000000163,-25.107596689102262388
0.309000000000000163,-25.115035893412301249
0.310000000000000164,-25.112170695842610968
0.311000000000000165,-25.099241689366643016
0.312000000000000166,-25.076498572657520469
0.313000000000000167,-25.044199335616749380
0.314000000000000168,-25.002609453443177756
0.315000000000000169,-24.952001091836240931
0.316000000000000170,-24.892652325691564386
0.317000000000000171,-24.824846373418502310
0.318000000000000171,-24.748870848790271992
0.319000000000000172,-24.665017032026987920
0.320000000000000173,-24.573579161610698662
0.321000000000000174,-24.474853748140162679
0.322000000000000175,-24.369138911351257093
0.323000000000000176,-24.256733741256709891
0.324000000000000177,-24.137937684196320021
0.325000000000000178,-24.013049954435683020
0.326000000000000179,-23.882368971808720204
0.327000000000000179,-23.746191825764331185
0.328000000000000180,-23.604813766053066360
0.329000000000000181,-23.458527720174181752
0.330000000000000182,-23.307623837594899641
0.331000000000000183,-23.152389060656339836
0.332000000000000184,-22.993106721988716856
0.333000000000000185,-22.830056168176191989
0.334000000000000186,-22.663512409336146192
0.335000000000000187,-22.493745794209591082
0.336000000000000187,-22.321021710298293073
0.337000000000000188,-22.145600308529260758
0.338000000000000189,-21.967736251879113496
0.339000000000000190,-21.787678487348141942
0.340000000000000191,-21.605670040636773876
0.341000000000000192,-21.421947832845933846
0.342000000000000193,-21.236742518495333343
0.343000000000000194,-21.050278344132344444
0.344000000000000195,-20.862773026785582431
0.345000000000000195,-20.674437651504355529
0.346000000000000196,-20.485476587214321853
0.347000000000000197,-20.296087420113764210
0.348000000000000198,-20.106460903831482767
0.349000000000000199,-19.916780925566559546
0.350000000000000200,-19.727224487433225875
0.351000000000000201,-19.537961702238352046
0.352000000000000202,-19.349155802926468084
0.353000000000000203,-19.160963164936390513
0.354000000000000203,-18.973533340724280549
0.355000000000000204,-18.787009105720755997
0.356000000000000205,-18.601526515003811824
0.357000000000000206,-18.417214969984541995
0.358000000000000207,-18.234197294419331570
0.359000000000000208,-18.052589819079496891
0.360000000000000209,-17.872502474428088703
0.361000000000000210,-17.694038890672132425
0.362000000000000210,-17.517296504578684591
0.363000000000000211,-17.342366672462894428
0.364000000000000212,-17.169334788776950518
0.365000000000000213,-16.998280409749408904
0.366000000000000214,-16.829277381545416858
0.367000000000000215,-16.662393972439264900
0.368000000000000216,-16.497693008511916446
0.369000000000000217,-16.335232012406816438
0.370000000000000218,-16.175063344698603629
0.371000000000000218,-16.017234347449427645
0.372000000000000219,-15.861787489548579089
0.373000000000000220,-15.708760513450920726
0.374000000000000221,-15.558186582949673493
0.375000000000000222,-15.410094431638380996
0.376000000000000223,-15.264508511736162077
0.377000000000000224,-15.121449142968833357
0.378000000000000225,-14.980932661217021717
0.379000000000000226,-14.842971566659556970
0.380000000000000226,-14.707574671158459623
0.381000000000000227,-14.574747244647866751
0.382000000000000228,-14.444491160306029087
0.383000000000000229,-14.316805038304980968
0.384000000000000230,-14.191684387947589130
0.385000000000000231,-14.069121748016792495
0.386000000000000232,-13.949106825175363156
0.387000000000000233,-13.831626630268630151
0.388000000000000234,-13.716665612395336993
0.389000000000000234,-13.604205790624543937
0.390000000000000235,-13.494226883248277460
0.391000000000000236,-13.386706434471369320
0.392000000000000237,-13.281619938450500484
0.393000000000000238,-13.178940960605412869
0.394000000000000239,-13.078641256134670101
0.395000000000000240,-12.980690885678276558
0.396000000000000241,-12.885058328078169865
0.397000000000000242,-12.791710590196119668
0.398000000000000242,-12.700613313756818457
0.399000000000000243,-12.611730879191394905
0.400000000000000244,-12.525026506463671438
0.401000000000000245,-12.440462352868644658
0.402000000000000246,-12.357999607798486608
0.403000000000000247,-12.277598584477733112
0.404000000000000248,-12.199218808674674008
0.405000000000000249,-12.122819104401360235
0.406000000000000250,-12.048357676619195544
0.407000000000000250,-11.975792190971978002
0.408000000000000251,-11.905079850572002798
0.409000000000000252,-11.836177469869168632
0.410000000000000253,-11.769041545636131474
0.411000000000000254,-11.703628325106148367
0.412000000000000255,-11.639893871303074846
0.413000000000000256,-11.577794125605823439
0.414000000000000257,-11.517284967591860934
0.415000000000000258,-11.458322272206810766
0.416000000000000258,-11.400861964308973029
0.417000000000000259,-11.344860070639533944
0.418000000000000260,-11.290272769270716324
0.419000000000000261,-11.237056436585442398
0.420000000000000262,-11.185167691843400206
0.421000000000000263,-11.134563439389342676
0.422000000000000264,-11.085200908560139510
0.423000000000000265,-11.037037691347999058
0.424000000000000266,-10.990031777877806718
0.425000000000000266,-10.944141589756576138
0.426000000000000267,-10.899326011353743127
0.427000000000000268,-10.855544419070788820
0.428000000000000269,-10.812756708658898930
0.429000000000000270,-10.770923320643131404
0.430000000000000271,-10.730005263911559510
0.431000000000000272,-10.689964137527358190
0.432000000000000273,-10.650762150821559970
0.433000000000000274,-10.612362141823776795
0.434000000000000274,-10.574727594087473648
0.435000000000000275,-10.537822651966056497
0.436000000000000276,-10.501612134395147180
0.437000000000000277,-10.466061547235769424
0.438000000000000278,-10.431137094232488138
0.439000000000000279,-10.396805686639632782
0.440000000000000280,-10.363034951567865249
0.441000000000000281,-10.329793239102521341
0.442000000000000282,-10.297049628244284492
0.443000000000000282,-10.264773931721499878
0.444000000000000283,-10.232936699722909424
0.445000000000000284,-10.201509222598115656
0.446000000000000285,-10.170463532572332710
0.447000000000000286,-10.139772404520991600
0.448000000000000287,-10.109409355848319123
0.449000000000000288,-10.079348645513507066
0.450000000000000289,-10.049565272246471892
0.451000000000000290,-10.020034971994480344
0.452000000000000290,-9.990734214639754640
0.453000000000000291,-9.961640200026879555
0.454000000000000292,-9.932730853338126664
0.455000000000000293,-9.903984819853331345
0.456000000000000294,-9.875381459130178285
0.457000000000000295,-9.846900838639538023
0.458000000000000296,-9.818523726889432979
0.459000000000000297,-9.790231586070230918
0.460000000000000298,-9.762006564252567742
0.461000000000000298,-9.733831487168423280
0.462000000000000299,-9.705689849604928199
0.463000000000000300,-9.677565806439179852
0.464000000000000301,-9.649444163341687641
0.465000000000000302,-9.621310367174871203
0.466000000000000303,-9.593150496112082593
0.467000000000000304,-9.564951249501774555
0.468000000000000305,-9.536699937500504376
0.469000000000000306,-9.508384470497402319
0.470000000000000306,-9.479993348352092397
0.471000000000000307,-9.451515649466854185
0.472000000000000308,-9.422941019713363175
0.473000000000000309,-9.394259661233077097
0.474000000000000310,-9.365462321129879086
0.475000000000000311,-9.336540280072558318
0.476000000000000312,-9.307485340824097619
0.477000000000000313,-9.278289816713771287
0.478000000000000314,-9.248946520067530486
0.479000000000000314,-9.219448750611372034
0.480000000000000315,-9.189790283861487552
0.481000000000000316,-9.159965359514723460
0.482000000000000317,-9.129968669851708185
0.483000000000000318,-9.099795348164803954
0.484000000000000319,-9.069440957222177246
0.485000000000000320,-9.038901477778697569
0.486000000000000321,-9.008173297143887481
0.487000000000000322,-8.977253197816423835
0.488000000000000322,-8.946138346194270952
0.489000000000000323,-8.914826281368984695
0.490000000000000324,-8.883314904012127755
0.491000000000000325,-8.851602465361230188
0.492000000000000326,-8.819687556312413079
0.493000000000000327,-8.787569096626125287
0.494000000000000328,-8.755246324252130563
0.495000000000000329,-8.722718784779385004
0.496000000000000330,-8.689986321016036186
0.497000000000000330,-8.657049062704436082
0.498000000000000331,-8.623907416375514501
0.499000000000000332,-8.590562055346747883
0.500000000000000333,-8.557013909867336565
0.501000000000000334,-8.523264157413979802
0.502000000000000335,-8.489314213140376708
0.503000000000000336,-8.455165720483146075
0.504000000000000337,-8.420820541926591574
0.505000000000000338,-8.386280749928491929
0.506000000000000338,-8.351548618008802549
0.507000000000000339,-8.316626612002806951
0.508000000000000340,-8.281517381480146156
0.509000000000000341,-8.246223751330862939
0.510000000000000342,-8.210748713519219422
0.511000000000000343,-8.175095419006112252
0.512000000000000344,-8.139267169840410432
0.513000000000000345,-8.103267411419542654
0.514000000000000346,-8.067099724919470916
0.515000000000000346,-8.030767819893748438
0.516000000000000347,-7.994275527041554419
0.517000000000000348,-7.957626791144287282
0.518000000000000349,-7.920825664169905522
0.519000000000000350,-7.883876298544566730
0.520000000000000351,-7.846782940590477651
0.521000000000000352,-7.809549924129096432
0.522000000000000353,-7.772181664248471122
0.523000000000000353,-7.734682651233526940
0.524000000000000354,-7.697057444658037539
0.525000000000000355,-7.659310667636700209
0.526000000000000356,-7.621447001235884144
0.527000000000000357,-7.583471179041476162
0.528000000000000358,-7.545387981881999551
0.529000000000000359,-7.507202232705400213
0.530000000000000360,-7.468918791607507046
0.531000000000000361,-7.430542551010409724
0.532000000000000361,-7.392078430988712867
0.533000000000000362,-7.353531374741675286
0.534000000000000363,-7.314906344209193279
0.535000000000000364,-7.276208315829522988
0.536000000000000365,-7.237442276436595989
0.537000000000000366,-7.198613219294765386
0.538000000000000367,-7.159726140268726446
0.539000000000000368,-7.120786034126508568
0.540000000000000369,-7.081797890973087206
0.541000000000000369,-7.042766692812560514
0.542000000000000370,-7.003697410236393139
0.543000000000000371,-6.964594999235551143
0.544000000000000372,-6.925464398134184130
0.545000000000000373,-6.886310524642508923
0.546000000000000374,-6.847138273026549093
0.547000000000000375,-6.807952511392438844
0.548000000000000376,-6.768758079082966894
0.549000000000000377,-6.729559784183980931
0.550000000000000377,-6.690362401138335358
0.551000000000000378,-6.651170668465105962
0.552000000000000379,-6.611989286581730241
0.553000000000000380,-6.572822915726776571
0.554000000000000381,-6.533676173981016966
0.555000000000000382,-6.494553635384670898
0.556000000000000383,-6.455459828148296886
0.557000000000000384,-6.416399232955429355
0.558000000000000385,-6.377376281354393051
0.559000000000000385,-6.338395354237400525
0.560000000000000386,-6.299460780404478655
0.561000000000000387,-6.260576835210288849
0.562000000000000388,-6.221747739291515700
0.563000000000000389,-6.182977657372869196
0.564000000000000390,-6.144270697149480043
0.565000000000000391,-6.105630908243668387
0.566000000000000392,-6.067062281234101739
0.567000000000000393,-6.028568746755242458
0.568000000000000393,-5.990154174665144104
0.569000000000000394,-5.951822373279595624
0.570000000000000395,-5.913577088670815662
0.571000000000000396,-5.875422004028562739
0.572000000000000397,-5.837360739082041228
0.573000000000000398,-5.799396849580581659
0.574000000000000399,-5.761533826831368721
0.575000000000000400,-5.723775097292397973
0.576000000000000401,-5.686124022218920437
0.577000000000000401,-5.648583897361703521
0.578000000000000402,-5.611157952715292829
0.579000000000000403,-5.573849352314740102
0.580000000000000404,-5.536661194079126602
0.581000000000000405,-5.499596509700230840
0.582000000000000406,-5.462658264574881350
0.583000000000000407,-5.425849357779304327
0.584000000000000408,-5.389172622084143605
0.585000000000000409,-5.352630824008502763
0.586000000000000409,-5.316226663911689521
0.587000000000000410,-5.279962776121168488
0.588000000000000411,-5.243841729095382043
0.589000000000000412,-5.207866025620080386
0.590000000000000413,-5.172038103036777024
0.591000000000000414,-5.136360333502115516
0.592000000000000415,-5.100835024276863194
0.593000000000000416,-5.065464418043219119
0.594000000000000417,-5.030250693249292304
0.595000000000000417,-4.995195964479647088
0.596000000000000418,-4.960302282850511446
0.597000000000000419,-4.925571636428870193
0.598000000000000420,-4.891005950674014890
0.599000000000000421,-4.856607088900718239
0.600000000000000422,-4.822376852762851662
0.601000000000000423,-4.788316982756527729
0.602000000000000424,-4.754429158741671380
0.603000000000000425,-4.720715000481161994
0.604000000000000425,-4.687176068196528433
0.605000000000000426,-4.653813863139319551
0.606000000000000427,-4.620629828177301945
0.607000000000000428,-4.587625348394456459
0.608000000000000429,-4.554801751704220081
