# CaO001_GLNSCA-JS
# h[nm],U(h)[kJ/mol]
0.149999999999999994,131.842517913060589763
0.150999999999999995,129.404929980655907684
0.151999999999999996,127.001602822994343001
0.152999999999999997,124.641711348593958064
0.153999999999999998,122.328040941183218138
0.154999999999999999,120.059560716361559685
0.156000000000000000,117.833402468805587660
0.157000000000000001,115.646191817962602499
0.158000000000000002,113.494824337112049761
0.159000000000000002,111.376826966496963678
0.160000000000000003,109.290442892291622456
0.161000000000000004,107.234554568327212110
0.162000000000000005,105.208530061833315017
0.163000000000000006,103.212050108855393660
0.164000000000000007,101.244950409366254007
0.165000000000000008,99.307096579976331441
0.166000000000000009,97.398297396429342143
0.167000000000000010,95.518254568589995301
0.168000000000000010,93.666543245164774589
0.169000000000000011,91.842615767912292313
0.170000000000000012,90.045821070692340982
0.171000000000000013,88.275432915054480532
0.172000000000000014,86.530681410163026612
0.173000000000000015,84.810783665022682953
0.174000000000000016,83.114970764825429228
0.175000000000000017,81.442509436864440886
0.176000000000000018,79.792717722458874618
0.177000000000000018,78.164974688606804420
0.178000000000000019,76.558724711265170981
0.179000000000000020,74.973477170096970212
0.180000000000000021,73.408802547304290442
0.181000000000000022,71.864325956668864137
0.182000000000000023,70.339719076591848079
0.183000000000000024,68.834691351904524481
0.184000000000000025,67.348981187596422160
0.185000000000000026,65.882347702313751370
0.186000000000000026,64.434563454638933422
0.187000000000000027,63.005408410668948704
0.188000000000000028,61.594665293599504707
0.189000000000000029,60.202116348381352395
0.190000000000000030,58.827541468326231211
0.191000000000000031,57.470717565467758448
0.192000000000000032,56.131419021081207177
0.193000000000000033,54.809419024867885639
0.194000000000000034,53.504491598381250128
0.195000000000000034,52.216414097620976520
0.196000000000000035,50.944969998717759552
0.197000000000000036,49.689951786801856315
0.198000000000000037,48.451163789269564575
0.199000000000000038,47.228424818803695473
0.200000000000000039,46.021570517042405868
0.201000000000000040,44.830455315407355954
0.202000000000000041,43.654953954265664606
0.203000000000000042,42.494962524546664895
0.204000000000000042,41.350399016623455850
0.205000000000000043,40.221203379371033293
0.206000000000000044,39.107337107651062524
0.207000000000000045,38.008782389017930825
0.208000000000000046,36.925540850259913839
0.209000000000000047,35.857631951631852019
0.210000000000000048,34.805091081510894924
0.211000000000000049,33.767967406955975207
0.212000000000000050,32.746321536538580688
0.213000000000000050,31.740223051113396480
0.214000000000000051,30.749747956176207708
0.215000000000000052,29.774976106376421114
0.216000000000000053,28.815988648854055754
0.217000000000000054,27.872865527576482947
0.218000000000000055,26.945683085959984737
0.219000000000000056,26.034511799951076227
0.220000000000000057,25.139414168558225526
0.221000000000000058,24.260442783703460634
0.222000000000000058,23.397638596297205993
0.223000000000000059,22.551029390724437462
0.224000000000000060,21.720628475520918244
0.225000000000000061,20.906433593967125972
0.226000000000000062,20.108426054663780747
0.227000000000000063,19.326570078895063176
0.228000000000000064,18.560812358742445838
0.229000000000000065,17.811081817476683398
0.230000000000000066,17.077289561723112854
0.231000000000000066,16.359329013243705475
0.232000000000000067,15.657076206891099801
0.233000000000000068,14.970390240337149379
0.234000000000000069,14.299113860535490161
0.235000000000000070,13.643074171514253834
0.236000000000000071,13.002083447983224573
0.237000000000000072,12.375940039346488675
0.238000000000000073,11.764429349011937376
0.239000000000000073,11.167324874352701158
0.240000000000000074,10.584389293273646970
0.241000000000000075,10.015375584048792135
0.242000000000000076,9.460028165894316388
0.243000000000000077,8.918084048607536118
0.244000000000000078,8.389273980515660867
0.245000000000000079,7.873323584920446372
0.246000000000000080,7.369954476182098979
0.247000000000000081,6.878885347541948470
0.248000000000000081,6.399833023729506465
0.249000000000000082,5.932513472323435622
0.250000000000000111,5.476642768729605315
0.251000000000000112,5.031938010496851632
0.252000000000000113,4.598118177504341375
0.253000000000000114,4.174904935323770161
0.254000000000000115,3.762023379775359277
0.255000000000000115,3.359202721363584665
0.256000000000000116,2.966176908889761599
0.257000000000000117,2.582685192097186277
0.258000000000000118,2.208472623709851312
0.259000000000000119,1.843290501677385951
0.260000000000000120,1.486896752839667268
0.261000000000000121,1.139056259576174179
0.262000000000000122,0.799541131308055708
0.263000000000000123,0.468130922979928976
0.264000000000000123,0.144612802863326284
0.265000000000000124,-0.171218327800286646
0.266000000000000125,-0.479559760661170398
0.267000000000000126,-0.780600948867988143
0.268000000000000127,-1.074523515588452272
0.269000000000000128,-1.361501299569467749
0.270000000000000129,-1.641700434845908108
0.271000000000000130,-1.915279461714268994
0.272000000000000131,-2.182389466115060461
0.273000000000000131,-2.443174244614636059
0.274000000000000132,-2.697770492239644380
0.275000000000000133,-2.946308010494323337
0.276000000000000134,-3.188909932979568040
0.277000000000000135,-3.425692966130992723
0.278000000000000136,-3.656767642700716969
0.279000000000000137,-3.882238585720654722
0.280000000000000138,-4.102204780803379691
0.281000000000000139,-4.316759854758973169
0.282000000000000139,-4.525992358630174905
0.283000000000000140,-4.729986053373883337
0.284000000000000141,-4.928820196542395671
0.285000000000000142,-5.122569828442809836
0.286000000000000143,-5.311306056376093210
0.287000000000000144,-5.495096335678191224
0.288000000000000145,-5.674004746404058608
0.289000000000000146,-5.848092264609358715
0.290000000000000147,-6.017417027296326104
0.291000000000000147,-6.182034590195983448
0.292000000000000148,-6.341998177661947622
0.293000000000000149,-6.497358924047605733
0.294000000000000150,-6.648166106031609957
0.295000000000000151,-6.794467365443894735
0.296000000000000152,-6.936308922226970708
0.297000000000000153,-7.073735777244621659
0.298000000000000154,-7.206791904722483544
0.299000000000000155,-7.335520434172295268
0.300000000000000155,-7.459963821713969878
0.301000000000000156,-7.580164010766975657
0.302000000000000157,-7.696162582135615438
0.303000000000000158,-7.808000893560603117
0.304000000000000159,-7.915720208853433526
0.305000000000000160,-8.019361816769135842
0.306000000000000161,-8.118967139808768607
0.307000000000000162,-8.214577833174256938
0.308000000000000163,-8.306235874125949437
0.309000000000000163,-8.393983642017564861
0.310000000000000164,-8.477863989304069037
0.311000000000000165,-8.557920303835691911
0.312000000000000166,-8.634196562766291549
0.313000000000000167,-8.706737378416082862
0.314000000000000168,-8.775588036438396244
0.315000000000000169,-8.840794526647105300
0.316000000000000170,-8.902403566866428974
0.317000000000000171,-8.960462620167461978
0.318000000000000171,-9.015019905856773264
0.319000000000000172,-9.066124404582037499
0.320000000000000173,-9.113825857916921791
0.321000000000000174,-9.158174762784053513
0.322000000000000175,-9.199222361070013676
0.323000000000000176,-9.237020624780059919
0.324000000000000177,-9.271622237073419370
0.325000000000000178,-9.303080569511838149
0.326000000000000179,-9.331449655845721836
0.327000000000000179,-9.356784162652477477
0.328000000000000180,-9.379139357131910160
0.329000000000000181,-9.398571072353407274
0.330000000000000182,-9.415135670238180765
0.331000000000000183,-9.428890002549715987
0.332000000000000184,-9.439891370153421946
0.333000000000000185,-9.448197480795547776
0.334000000000000186,-9.453866405639754333
0.335000000000000187,-9.456956534787941848
0.336000000000000187,-9.457526532000880337
0.337000000000000188,-9.455635288821820694
0.338000000000000189,-9.451341878295858479
0.339000000000000190,-9.444705508465737864
0.340000000000000191,-9.435785475814046919
0.341000000000000192,-9.424641118810882290
0.342000000000000193,-9.411331771715227390
0.343000000000000194,-9.395916718768093645
0.344000000000000195,-9.378455148904958349
0.345000000000000195,-9.359006111105864889
0.346000000000000196,-9.337628470491102561
0.347000000000000197,-9.314380865262068099
0.348000000000000198,-9.289321664577343540
0.349000000000000199,-9.262508927445772144
0.350000000000000200,-9.234000362710148124
0.351000000000000201,-9.203853290186959413
0.352000000000000202,-9.172124603020385791
0.353000000000000203,-9.138870731301391714
0.354000000000000203,-9.104147606996020770
0.355000000000000204,-9.068010630220214807
0.356000000000000205,-9.030514636892704061
0.357000000000000206,-8.991713867791451875
0.358000000000000207,-8.951661939033380477
0.359000000000000208,-8.910411813992443086
0.360000000000000209,-8.868015776665796324
0.361000000000000210,-8.824525406493304303
0.362000000000000210,-8.779991554631516593
0.363000000000000211,-8.734464321678984788
0.364000000000000212,-8.687993036846375361
0.365000000000000213,-8.640626238561040395
0.366000000000000214,-8.592411656492842553
0.367000000000000215,-8.543396194984829606
0.368000000000000216,-8.493625917869925601
0.369000000000000217,-8.443146034652023957
0.370000000000000218,-8.392000888027977723
0.371000000000000218,-8.340233942724648131
0.372000000000000219,-8.287887775623547171
0.373000000000000220,-8.235004067143915307
0.374000000000000221,-8.181623593853702303
0.375000000000000222,-8.127786222276368377
0.376000000000000223,-8.073530903860879349
0.377000000000000224,-8.018895671080667142
0.378000000000000225,-7.963917634627089015
0.379000000000000226,-7.908632981661847694
0.380000000000000226,-7.853076975092706746
0.381000000000000227,-7.797283953835981052
0.382000000000000228,-7.741287334029481215
0.383000000000000229,-7.685119611159040964
0.384000000000000230,-7.628812363061861390
0.385000000000000231,-7.572396253769973384
0.386000000000000232,-7.515901038157058345
0.387000000000000233,-7.459355567352271343
0.388000000000000234,-7.402787794884725159
0.389000000000000234,-7.346224783522991686
0.390000000000000235,-7.289692712773931937
0.391000000000000236,-7.233216887006089557
0.392000000000000237,-7.176821744162952044
0.393000000000000238,-7.120530865032361767
0.394000000000000239,-7.064366983038581793
0.395000000000000240,-7.008351994524479878
0.396000000000000241,-6.952506969491771827
0.397000000000000242,-6.896852162767993732
0.398000000000000242,-6.841407025569782085
0.399000000000000243,-6.786190217432496397
0.400000000000000244,-6.731219618477243039
0.401000000000000245,-6.676512341987117516
0.402000000000000246,-6.622084747265127191
0.403000000000000247,-6.567952452747245040
0.404000000000000248,-6.514130349344799065
0.405000000000000249,-6.460632613991260875
0.406000000000000250,-6.407472723369238565
0.407000000000000250,-6.354663467794464893
0.408000000000000251,-6.302216965234224588
0.409000000000000252,-6.250144675438709996
0.410000000000000253,-6.198457414164346702
0.411000000000000254,-6.147165367469240138
0.412000000000000255,-6.096278106061454594
0.413000000000000256,-6.045804599681851244
0.414000000000000257,-5.995753231503760716
0.415000000000000258,-5.946131812532858163
0.416000000000000258,-5.896947595991036906
0.417000000000000259,-5.848207291669128338
0.418000000000000260,-5.799917080233869981
0.419000000000000261,-5.752082627475298970
0.420000000000000262,-5.704709098481512086
0.421000000000000263,-5.657801171728406686
0.422000000000000264,-5.611363053072603968
0.423000000000000265,-5.565398489636522505
0.424000000000000266,-5.519910783575335600
0.425000000000000266,-5.474902805715784027
0.426000000000000267,-5.430377009057884230
0.427000000000000268,-5.386335442130896212
0.428000000000000269,-5.342779762195498883
0.429000000000000270,-5.299711248284893372
0.430000000000000271,-5.257130814077768832
0.431000000000000272,-5.215039020596924146
0.432000000000000273,-5.173436088727598303
0.433000000000000274,-5.132321911550191018
0.434000000000000274,-5.091696066482475302
0.435000000000000275,-5.051557827226864639
0.436000000000000276,-5.011906175518791251
0.437000000000000277,-4.972739812672516635
0.438000000000000278,-4.934057170921347435
0.439000000000000279,-4.895856424549416275
0.440000000000000280,-4.858135500812600149
0.441000000000000281,-4.820892090646596628
0.442000000000000282,-4.784123659160472997
0.443000000000000282,-4.747827455914217509
0.444000000000000283,-4.712000524979385041
0.445000000000000284,-4.676639714781976487
0.446000000000000285,-4.641741687727060750
0.447000000000000286,-4.607302929605102904
0.448000000000000287,-4.573319758779819999
0.449000000000000288,-4.539788335158098320
0.450000000000000289,-4.506704668942314918
0.451000000000000290,-4.474064629165933837
0.452000000000000290,-4.441863952013318517
0.453000000000000291,-4.410098248924842146
0.454000000000000292,-4.378763014488762373
0.455000000000000293,-4.347853634121227273
0.456000000000000294,-4.317365391536204910
0.457000000000000295,-4.287293476007118187
0.458000000000000296,-4.257632989422122094
0.459000000000000297,-4.228378953135186080
0.460000000000000298,-4.199526314615157574
0.461000000000000298,-4.171069953895158555
0.462000000000000299,-4.143004689824797637
0.463000000000000300,-4.115325286127641924
0.464000000000000301,-4.088026457266697555
0.465000000000000302,-4.061102874120543049
0.466000000000000303,-4.034549169472894548
0.467000000000000304,-4.008359943318490437
0.468000000000000305,-3.982529767988207681
0.469000000000000306,-3.957053193096327526
0.470000000000000306,-3.931924750313086747
0.471000000000000307,-3.907138957965373915
0.472000000000000308,-3.882690325468900916
0.473000000000000309,-3.858573357594768716
0.474000000000000310,-3.834782558573716749
0.475000000000000311,-3.811312436041126350
0.476000000000000312,-3.788157504826080046
0.477000000000000313,-3.765312290587539135
0.478000000000000314,-3.742771333300938696
0.479000000000000314,-3.720529190598406810
0.480000000000000315,-3.698580440965733462
0.481000000000000316,-3.676919686799426934
0.482000000000000317,-3.655541557326902335
0.483000000000000318,-3.634440711393107648
0.484000000000000319,-3.613611840116691898
0.485000000000000320,-3.593049669418908021
0.486000000000000321,-3.572748962428351938
0.487000000000000322,-3.552704521764697088
0.488000000000000322,-3.532911191704415810
0.489000000000000323,-3.513363860231712099
0.490000000000000324,-3.494057460977540330
0.491000000000000325,-3.474986975049811910
0.492000000000000326,-3.456147432757713744
0.493000000000000327,-3.437533915233100146
0.494000000000000328,-3.419141555951867417
0.495000000000000329,-3.400965542158156829
0.496000000000000330,-3.383001116194203739
0.497000000000000330,-3.365243576738708331
0.498000000000000331,-3.347688279956308577
0.499000000000000332,-3.330330640561073974
0.500000000000000333,-3.313166132796530494
0.501000000000000334,-3.296190291334882172
0.502000000000000335,-3.279398712098047675
0.503000000000000336,-3.262787053003020965
0.504000000000000337,-3.246351034634038513
0.505000000000000338,-3.230086440844031070
0.506000000000000338,-3.213989119287737228
0.507000000000000339,-3.198054981888863502
0.508000000000000340,-3.182280005243549148
0.509000000000000341,-3.166660230962519140
0.510000000000000342,-3.151191765953989865
0.511000000000000343,-3.135870782649649691
0.512000000000000344,-3.120693519175732789
0.513000000000000345,-3.105656279471337378
0.514000000000000346,-3.090755433356034310
0.515000000000000346,-3.075987416548696007
0.516000000000000347,-3.061348730639529947
0.517000000000000348,-3.046835943017287995
0.518000000000000349,-3.032445686753349356
0.519000000000000350,-3.018174660444678636
0.520000000000000351,-3.004019628017275956
0.521000000000000352,-2.989977418491961192
0.522000000000000353,-2.976044925714092848
0.523000000000000353,-2.962219108048896210
0.524000000000000354,-2.948496988044037259
0.525000000000000355,-2.934875652060928708
0.526000000000000356,-2.921352249876314477
0.527000000000000357,-2.907923994255662503
0.528000000000000358,-2.894588160499683482
0.529000000000000359,-2.881342085965505451
0.530000000000000360,-2.868183169563733426
0.531000000000000361,-2.855108871232828527
0.532000000000000361,-2.842116711391984740
0.533000000000000362,-2.829204270373831598
0.534000000000000363,-2.816369187838093424
0.535000000000000364,-2.803609162167437940
0.536000000000000365,-2.790921949846604910
0.537000000000000366,-2.778305364825945922
0.538000000000000367,-2.765757277870385167
0.539000000000000368,-2.753275615894937633
0.540000000000000369,-2.740858361287640488
0.541000000000000369,-2.728503551221007406
0.542000000000000370,-2.716209276952826546
0.543000000000000371,-2.703973683117259608
0.544000000000000372,-2.691794967007122619
0.545000000000000373,-2.679671377848162450
0.546000000000000374,-2.667601216066144865
0.547000000000000375,-2.655582832547545458
0.548000000000000376,-2.643614627894634417
0.549000000000000377,-2.631695051675615904
0.550000000000000377,-2.619822601670573903
0.551000000000000378,-2.607995823113886225
0.552000000000000379,-2.596213307933766590
0.553000000000000380,-2.584473693989548959
0.554000000000000381,-2.572775664307304311
0.555000000000000382,-2.561117946314425353
0.556000000000000383,-2.549499311073637919
0.557000000000000384,-2.537918572517082971
0.558000000000000385,-2.526374586680865786
0.559000000000000385,-2.514866250940672732
0.560000000000000386,-2.503392503248824230
0.561000000000000387,-2.491952321373289259
0.562000000000000388,-2.480544722139028657
0.563000000000000389,-2.469168760672130425
0.564000000000000390,-2.457823529647074512
0.565000000000000391,-2.446508158537546329
0.566000000000000392,-2.435221812871105840
0.567000000000000393,-2.423963693488111026
0.568000000000000393,-2.412733035805138204
0.569000000000000394,-2.401529109083260227
0.570000000000000395,-2.390351215701474352
0.571000000000000396,-2.379198690435480490
0.572000000000000397,-2.368070899742188651
0.573000000000000398,-2.356967241050055950
0.574000000000000399,-2.345887142055624430
0.575000000000000400,-2.334830060026354737
0.576000000000000401,-2.323795481110026984
0.577000000000000401,-2.312782919650918423
0.578000000000000402,-2.301791917512845398
0.579000000000000403,-2.290822043409316500
0.580000000000000404,-2.279872892240950133
0.581000000000000405,-2.268944084440228881
0.582000000000000406,-2.258035265323815821
0.583000000000000407,-2.247146104452472759
0.584000000000000408,-2.236276294998762015
0.585000000000000409,-2.225425553122578393
0.586000000000000409,-2.214593617354638333
0.587000000000000410,-2.203780247988012864
0.588000000000000411,-2.192985226477740746
0.589000000000000412,-2.182208354848651943
0.590000000000000413,-2.171449455111392091
0.591000000000000414,-2.160708368686750536
0.592000000000000415,-2.149984955838330158
0.593000000000000416,-2.139279095113553186
0.594000000000000417,-2.128590682793077171
0.595000000000000417,-2.117919632348669978
0.596000000000000418,-2.107265873909435872
0.597000000000000419,-2.096629353736594759
0.598000000000000420,-2.086010033706619637
0.599000000000000421,-2.075407890802897004
0.600000000000000422,-2.064822916615794757
0.601000000000000423,-2.054255116851176233
0.602000000000000424,-2.043704510847340394
0.603000000000000425,-2.033171131100365070
0.604000000000000425,-2.022655022797800406
0.605000000000000426,-2.012156243360723185
0.606000000000000427,-2.001674861994135579
0.607000000000000428,-1.991210959245541590
0.608000000000000429,-1.980764626571892340
0.609000000000000430,-1.970335965914574050
0.610000000000000431,-1.959925089282664290
0.611000000000000432,-1.949532118344194043
0.612000000000000433,-1.939157184025462000
0.613000000000000433,-1.928800426118354894
