# CaO001_BUTENE1-AC
# h[nm],U(h)[kJ/mol]
0.149999999999999994,97.077385363900958737
0.150999999999999995,94.796728237821497487
0.151999999999999996,92.994669396016305996
0.152999999999999997,91.297394058619431689
0.153999999999999998,89.582389545557333577
0.154999999999999999,87.837064858755226737
0.156000000000000000,86.086086039851139162
0.157000000000000001,84.357725651075696760
0.158000000000000002,82.671215693280458936
0.159000000000000002,81.034513311365714117
0.160000000000000003,79.446508066974288909
0.161000000000000004,77.900505823327577559
0.162000000000000005,76.387474740138657125
0.163000000000000006,74.898466618236511749
0.164000000000000007,73.426113701511070531
0.165000000000000008,71.965327694645083056
0.166000000000000009,70.513407829358285994
0.167000000000000010,69.069768084236670802
0.168000000000000010,67.635461606428137316
0.169000000000000011,66.212636535361497181
0.170000000000000012,64.804014221107678395
0.171000000000000013,63.412444027252909962
0.172000000000000014,62.040560442947835895
0.173000000000000015,60.690547976365792238
0.174000000000000016,59.364006158112808009
0.175000000000000017,58.061899494415534662
0.176000000000000018,56.784573918555295791
0.177000000000000018,55.531820904585039500
0.178000000000000019,54.302971873755268462
0.179000000000000020,53.097008027972890432
0.180000000000000021,51.912673693802005914
0.181000000000000022,50.748584248930328044
0.182000000000000023,49.603322472789294295
0.183000000000000024,48.475519568557530192
0.184000000000000025,47.363919080738618561
0.185000000000000026,46.267423472226575143
0.186000000000000026,45.185124254280815137
0.187000000000000027,44.116317329767824162
0.188000000000000028,43.060505671744145673
0.189000000000000029,42.017391675505159299
0.190000000000000030,40.986861549446622632
0.191000000000000031,39.968963999705898971
0.192000000000000032,38.963885259676338535
0.193000000000000033,37.971922254645200212
0.194000000000000034,36.993455403109756219
0.195000000000000034,36.028922262070288696
0.196000000000000035,35.078792940080930407
0.197000000000000036,34.143547940256816275
0.198000000000000037,33.223658862804313685
0.199000000000000038,32.319572196649517082
0.200000000000000039,31.431696263527832969
0.201000000000000040,30.560391244716679893
0.202000000000000041,29.705962118387663651
0.203000000000000042,28.868654261408977391
0.204000000000000042,28.048651419944171437
0.205000000000000043,27.246075724774463822
0.206000000000000044,26.460989416325588763
0.207000000000000045,25.693397947486950272
0.208000000000000046,24.943254146304649765
0.209000000000000047,24.210463142678332105
0.210000000000000048,23.494887790813443473
0.211000000000000049,22.796354350263886346
0.212000000000000050,22.114658221181937137
0.213000000000000050,21.449569562453540073
0.214000000000000051,20.800838653612604645
0.215000000000000052,20.168200891956267640
0.216000000000000053,19.551381344514165761
0.217000000000000054,18.950098800053673642
0.218000000000000055,18.364069288897230336
0.219000000000000056,17.793009057890987634
0.220000000000000057,17.236637004410834351
0.221000000000000058,16.694676586927336359
0.222000000000000058,16.166857240534387330
0.223000000000000059,15.652915334194187125
0.224000000000000060,15.152594712495869089
0.225000000000000061,14.665646868725918495
0.226000000000000062,14.191830798262529356
0.227000000000000063,13.730912581991390198
0.228000000000000064,13.282664748843979297
0.229000000000000065,12.846865464913680199
0.230000000000000066,12.423297594127262755
0.231000000000000066,12.011747672333852321
0.232000000000000067,11.612004833097397949
0.233000000000000068,11.223859719596219975
0.234000000000000069,10.847103412978331249
0.235000000000000070,10.481526403408585324
0.236000000000000071,10.126917625969486636
0.237000000000000072,9.783063579617994776
0.238000000000000073,9.449747543620919288
0.239000000000000073,9.126748902338047031
0.240000000000000074,8.813842585929295481
0.241000000000000075,8.510798631557168648
0.242000000000000076,8.217381866949917679
0.243000000000000077,7.933351715792132275
0.244000000000000078,7.658462122317159171
0.245000000000000079,7.392461590683067740
0.246000000000000080,7.135093333210647870
0.247000000000000081,6.886095520332910169
0.248000000000000081,6.645201624134827512
0.249000000000000082,6.412140846629894142
0.250000000000000111,6.186638623406316206
0.251000000000000112,5.968417192960306927
0.252000000000000113,5.757196221894440136
0.253000000000000114,5.552693476176947307
0.254000000000000115,5.354625528810180057
0.255000000000000115,5.162708494526234482
0.256000000000000116,4.976658782494871147
0.257000000000000117,4.796193858476659244
0.258000000000000118,4.621033008367161798
0.259000000000000119,4.450898095639930219
0.260000000000000120,4.285514305794640322
0.261000000000000121,4.124610871539853285
0.262000000000000122,3.967921773075667069
0.263000000000000123,3.815186408482078573
0.264000000000000123,3.666150229854044706
0.265000000000000124,3.520565341448727459
0.266000000000000125,3.378191056716342011
0.267000000000000126,3.238794411670126383
0.268000000000000127,3.102150632607291847
0.269000000000000128,2.968043556719869969
0.270000000000000129,2.836266004628404502
0.271000000000000130,2.706620104331022958
0.272000000000000131,2.578917566484897783
0.273000000000000131,2.452979911325007922
0.274000000000000132,2.328638647877109058
0.275000000000000133,2.205735406437518531
0.276000000000000134,2.084122025572971104
0.277000000000000135,1.963660595140087395
0.278000000000000136,1.844223457036776370
0.279000000000000137,1.725693165579355481
0.280000000000000138,1.607962409550207195
0.281000000000000139,1.490933898083226294
0.282000000000000139,1.374520212650250262
0.283000000000000140,1.258643627482414207
0.284000000000000141,1.143235900808308614
0.285000000000000142,1.028238039317290076
0.286000000000000143,0.913600038263635894
0.287000000000000144,0.799280599616992382
0.288000000000000145,0.685246830638253202
0.289000000000000146,0.571473925220345125
0.290000000000000147,0.457944830280369808
0.291000000000000147,0.344649899426720308
0.292000000000000148,0.231586536051649805
0.293000000000000149,0.118758827919552681
0.294000000000000150,0.006177175233835206
0.295000000000000151,-0.106142085927319968
0.296000000000000152,-0.218177063012684080
0.297000000000000153,-0.329900687543590809
0.298000000000000154,-0.441281095211964847
0.299000000000000155,-0.552282004042716768
0.300000000000000155,-0.662863089236452652
0.301000000000000156,-0.772980353412073606
0.302000000000000157,-0.882586491071896462
0.303000000000000158,-0.991631246213139250
0.304000000000000159,-1.100061762109299623
0.305000000000000160,-1.207822922381895925
0.306000000000000161,-1.314857682577476927
0.307000000000000162,-1.421107391556090338
0.308000000000000163,-1.526512102085177736
0.309000000000000163,-1.631010870117349132
0.310000000000000164,-1.734542042310982968
0.311000000000000165,-1.837043531429351617
0.312000000000000166,-1.938453079326727835
0.313000000000000167,-2.038708507298634842
0.314000000000000168,-2.137747953637993081
0.315000000000000169,-2.235510098299645421
0.316000000000000170,-2.331934374632165241
0.317000000000000171,-2.426961168188555007
0.318000000000000171,-2.520532002675832217
0.319000000000000172,-2.612589713148756765
0.320000000000000173,-2.703078606593451116
0.321000000000000174,-2.791944610084510003
0.322000000000000175,-2.879135406732892033
0.323000000000000176,-2.964600559672440738
0.324000000000000177,-3.048291624360155438
0.325000000000000178,-3.130162249489345960
0.326000000000000179,-3.210168266836247231
0.327000000000000179,-3.288267770378612287
0.328000000000000180,-3.364421185040805007
0.329000000000000181,-3.438591325432890589
0.330000000000000182,-3.510743444961870630
0.331000000000000183,-3.580845275701992847
0.332000000000000184,-3.648867059417157943
0.333000000000000185,-3.714781570133114830
0.334000000000000186,-3.778564128659739119
0.335000000000000187,-3.840192609464593509
0.336000000000000187,-3.899647440298550372
0.337000000000000188,-3.956911594971960433
0.338000000000000189,-4.011970579676933824
0.339000000000000190,-4.064812413246567502
0.340000000000000191,-4.115427601736355356
0.341000000000000192,-4.163809107706784474
0.342000000000000193,-4.209952314578441879
0.343000000000000194,-4.253854986423069917
0.344000000000000195,-4.295517223544897512
0.345000000000000195,-4.334941414197620801
0.346000000000000196,-4.372132182772025644
0.347000000000000197,-4.407096334779268432
0.348000000000000198,-4.439842798944048319
0.349000000000000199,-4.470382566710821237
0.350000000000000200,-4.498728629455288619
0.351000000000000201,-4.524895913681744375
0.352000000000000202,-4.548901214475585597
0.353000000000000203,-4.570763127468738141
0.354000000000000203,-4.590501979564177937
0.355000000000000204,-4.608139758654150597
0.356000000000000205,-4.623700042555375589
0.357000000000000206,-4.637207927373164118
0.358000000000000207,-4.648689955494893056
0.359000000000000208,-4.658174043402617315
0.360000000000000209,-4.665689409483446681
0.361000000000000210,-4.671266502005692267
0.362000000000000210,-4.674936927418420929
0.363000000000000211,-4.676733379121754908
0.364000000000000212,-4.676689566845452006
0.365000000000000213,-4.674840146763435733
0.366000000000000214,-4.671220652462769962
0.367000000000000215,-4.665867426876310731
0.368000000000000216,-4.658817555279631151
0.369000000000000217,-4.650108799444128138
0.370000000000000218,-4.639779533030308656
0.371000000000000218,-4.627868678297061500
0.372000000000000219,-4.614415644195474009
0.373000000000000220,-4.599460265908311918
0.374000000000000221,-4.583042745889428282
0.375000000000000222,-4.565203596450667867
0.376000000000000223,-4.545983583937688977
0.377000000000000224,-4.525423674529917228
0.378000000000000225,-4.503564981694228031
0.379000000000000226,-4.480448715316522446
0.380000000000000226,-4.456116132530319796
0.381000000000000227,-4.430608490256373599
0.382000000000000228,-4.403966999463131415
0.383000000000000229,-4.376232781153212237
0.384000000000000230,-4.347446824077190186
0.385000000000000231,-4.317649944172253562
0.386000000000000232,-4.286882745719559296
0.387000000000000233,-4.255185584211044869
0.388000000000000234,-4.222598530913139747
0.389000000000000234,-4.189161339112246196
0.390000000000000235,-4.154913412023941710
0.391000000000000236,-4.119893772345691652
0.392000000000000237,-4.084141033430412904
0.393000000000000238,-4.047693372056381911
0.394000000000000239,-4.010588502766966101
0.395000000000000240,-3.972863653752101154
0.396000000000000241,-3.934555544241907121
0.397000000000000242,-3.895700363381346953
0.398000000000000242,-3.856333750553912587
0.399000000000000243,-3.816490777120962186
0.400000000000000244,-3.776205929542597151
0.401000000000000245,-3.735513093845211241
0.402000000000000246,-3.694445541400004807
0.403000000000000247,-3.653035915976357906
0.404000000000000248,-3.611316222033510659
0.405000000000000249,-3.569317814213588402
0.406000000000000250,-3.527071387998819141
0.407000000000000250,-3.484606971495678884
0.408000000000000251,-3.441953918308541915
0.409000000000000252,-3.399140901465585785
0.410000000000000253,-3.356195908359615565
0.411000000000000254,-3.313146236666801858
0.412000000000000255,-3.270018491206426070
0.413000000000000256,-3.226838581705158138
0.414000000000000257,-3.183631721429507788
0.415000000000000258,-3.140422426650808507
0.416000000000000258,-3.097234516907195090
0.417000000000000259,-3.054091116027775055
0.418000000000000260,-3.011014653884596104
0.419000000000000261,-2.968026868838568699
0.420000000000000262,-2.925148810846146752
0.421000000000000263,-2.882400845194157402
0.422000000000000264,-2.839802656830792138
0.423000000000000265,-2.797373255261426106
0.424000000000000266,-2.755130979978767325
0.425000000000000266,-2.713093506397242116
0.426000000000000267,-2.671277852262561758
0.427000000000000268,-2.629700384507888788
0.428000000000000269,-2.588376826528901553
0.429000000000000270,-2.547322265850791911
0.430000000000000271,-2.506551162160834512
0.431000000000000272,-2.466077355681143501
0.432000000000000273,-2.425914075856787644
0.433000000000000274,-2.386073950335326099
0.434000000000000274,-2.346569014214460402
0.435000000000000275,-2.307410719535376131
0.436000000000000276,-2.268609945000005457
0.437000000000000277,-2.230177005891166964
0.438000000000000278,-2.192121664175379347
0.439000000000000279,-2.154453138768784193
0.440000000000000280,-2.117180115947321362
0.441000000000000281,-2.080310759883085225
0.442000000000000282,-2.043852723289470319
0.443000000000000282,-2.007813158158310074
0.444000000000000283,-1.972198726573054284
0.445000000000000284,-1.937015611582580732
0.446000000000000285,-1.902269528120851261
0.447000000000000286,-1.867965733958517616
0.448000000000000287,-1.834109040672803115
0.449000000000000288,-1.800703824623056004
0.450000000000000289,-1.767754037919560872
0.451000000000000290,-1.735263219374107990
0.452000000000000290,-1.703234505421197031
0.453000000000000291,-1.671670640999376234
0.454000000000000292,-1.640573990382804936
0.455000000000000293,-1.609946547953555296
0.456000000000000294,-1.579789948905821140
0.457000000000000295,-1.550105479873583381
0.458000000000000296,-1.520894089473839639
0.459000000000000297,-1.492156398757976010
0.460000000000000298,-1.463892711564269256
0.461000000000000298,-1.436103024765033931
0.462000000000000299,-1.408787038402294245
0.463000000000000300,-1.381944165706271432
0.464000000000000301,-1.355573542991472369
0.465000000000000302,-1.329674039425455145
0.466000000000000303,-1.304244266665744778
0.467000000000000304,-1.279282588360786566
0.468000000000000305,-1.254787129511130361
0.469000000000000306,-1.230755785687356108
0.470000000000000306,-1.207186232101675083
0.471000000000000307,-1.184075932530270325
0.472000000000000308,-1.161422148083977257
0.473000000000000309,-1.139221945824963722
0.474000000000000310,-1.117472207227511394
0.475000000000000311,-1.096169636481139298
0.476000000000000312,-1.075310768634733627
0.477000000000000313,-1.054891977580323159
0.478000000000000314,-1.034909483875656511
0.479000000000000314,-1.015359362404788524
0.480000000000000315,-0.996237549876092032
0.481000000000000316,-0.977539852157428557
0.482000000000000317,-0.959261951448254102
0.483000000000000318,-0.941399413288744547
0.484000000000000319,-0.923947693406096837
0.485000000000000320,-0.906902144398421428
0.486000000000000321,-0.890258022256696591
0.487000000000000322,-0.874010492725489696
0.488000000000000322,-0.858154637503194428
0.489000000000000323,-0.842685460282810994
0.490000000000000324,-0.827597892634217125
0.491000000000000325,-0.812886799729198750
0.492000000000000326,-0.798546985910428941
0.493000000000000327,-0.784573200105864954
0.494000000000000328,-0.770960141089977791
0.495000000000000329,-0.757702462593403236
0.496000000000000330,-0.744794778262649837
0.497000000000000330,-0.732231666471613973
0.498000000000000331,-0.720007674986635982
0.499000000000000332,-0.708117325487038984
0.500000000000000333,-0.696555117942994295
0.501000000000000334,-0.685315534852710462
0.502000000000000335,-0.674393045340996311
0.503000000000000336,-0.663782109121221264
0.504000000000000337,-0.653477180322803886
0.505000000000000338,-0.643472711186372170
0.506000000000000338,-0.633763155628772390
0.507000000000000339,-0.624342972680116404
0.508000000000000340,-0.615206629795108317
0.509000000000000341,-0.606348606040911897
0.510000000000000342,-0.597763395163796507
0.511000000000000343,-0.589445508536872165
0.512000000000000344,-0.581389477991179016
0.513000000000000345,-0.573589858532449037
0.514000000000000346,-0.566041230945858453
0.515000000000000346,-0.558738204291037710
0.516000000000000347,-0.551675418289678476
0.517000000000000348,-0.544847545608061479
0.518000000000000349,-0.538249294036739157
0.519000000000000350,-0.531875408569746577
0.520000000000000351,-0.525720673385568937
0.521000000000000352,-0.519779913732179799
0.522000000000000353,-0.514047997718374172
0.523000000000000353,-0.508519838013676395
0.524000000000000354,-0.503190393459044705
0.525000000000000355,-0.498054670590582726
0.526000000000000356,-0.493107725078447079
0.527000000000000357,-0.488344663083167485
0.528000000000000358,-0.483760642531464335
0.529000000000000359,-0.479350874313772657
0.530000000000000360,-0.475110623405520349
0.531000000000000361,-0.471035209914284381
0.532000000000000361,-0.467120010054860813
0.533000000000000362,-0.463360457054304953
0.534000000000000363,-0.459752041988917337
0.535000000000000364,-0.456290314555188925
0.536000000000000365,-0.452970883776626532
0.537000000000000366,-0.449789418648405825
0.538000000000000367,-0.446741648721713180
0.539000000000000368,-0.443823364629690242
0.540000000000000369,-0.441030418556748072
0.541000000000000369,-0.438358724653123422
0.542000000000000370,-0.435804259396390392
0.543000000000000371,-0.433363061901702540
0.544000000000000372,-0.431031234182476020
0.545000000000000373,-0.428804941363177428
0.546000000000000374,-0.426680411845869412
0.547000000000000375,-0.424653937432131756
0.548000000000000376,-0.422721873401962767
0.549000000000000377,-0.420880638551172581
0.550000000000000377,-0.419126715188828936
0.551000000000000378,-0.417456649096226040
0.552000000000000379,-0.415867049448848447
0.553000000000000380,-0.414354588702747884
0.554000000000000381,-0.412916002446729824
0.555000000000000382,-0.411548089221744462
0.556000000000000383,-0.410247710308759839
0.557000000000000384,-0.409011789486500632
0.558000000000000385,-0.407837312760247539
0.559000000000000385,-0.406721328063011534
0.560000000000000386,-0.405660944930251510
0.561000000000000387,-0.404653334149345068
0.562000000000000388,-0.403695727384967729
0.563000000000000389,-0.402785416781497152
0.564000000000000390,-0.401919754543556995
0.565000000000000391,-0.401096152495767022
0.566000000000000392,-0.400312081622730187
0.567000000000000393,-0.399565071590310517
0.568000000000000393,-0.398852710249133824
0.569000000000000394,-0.398172643121334879
0.570000000000000395,-0.397522572871446656
0.571000000000000396,-0.396900258762344138
0.572000000000000397,-0.396303516097171515
0.573000000000000398,-0.395730215648033234
0.574000000000000399,-0.395178283072376124
0.575000000000000400,-0.394645698317791505
0.576000000000000401,-0.394130495016070781
0.577000000000000401,-0.393630759867278801
0.578000000000000402,-0.393144632014559903
0.579000000000000403,-0.392670302410394023
0.580000000000000404,-0.392206013175041612
0.581000000000000405,-0.391750056947792580
0.582000000000000406,-0.391300776231705005
0.583000000000000407,-0.390856562732462276
0.584000000000000408,-0.390415856691942509
0.585000000000000409,-0.389977146217105997
0.586000000000000409,-0.389538966604757619
0.587000000000000410,-0.389099899662755988
0.588000000000000411,-0.388658573028160426
0.589000000000000412,-0.388213659482884499
0.590000000000000413,-0.387763876267291141
0.591000000000000414,-0.387307984392252558
0.592000000000000415,-0.386844787950111235
0.593000000000000416,-0.386373133424986637
0.594000000000000417,-0.385891909002853750
0.595000000000000417,-0.385400043881824250
0.596000000000000418,-0.384896507582966563
0.597000000000000419,-0.384380309262128461
0.598000000000000420,-0.383850497023026704
0.599000000000000421,-0.383306157232047084
0.600000000000000422,-0.382746413835015842
0.601000000000000423,-0.382170427676295943
0.602000000000000424,-0.381577395820514198
0.603000000000000425,-0.380966550877206045
0.604000000000000425,-0.380337160328646118
0.605000000000000426,-0.379688525861152426
0.606000000000000427,-0.379019982700125879
0.607000000000000428,-0.378330898948996630
0.608000000000000429,-0.377620674932447831
0.609000000000000430,-0.376888742543961486
0.610000000000000431,-0.376134564598061272
0.611000000000000432,-0.375357634187327593
0.612000000000000433,-0.374557474044433236
0.613000000000000433,-0.373733635909374196
0.614000000000000434,-0.372885699902042289
