# CaO001_CS-730-AC
# h[nm],U(h)[kJ/mol]
0.149999999999999994,114.365625924611578057
0.150999999999999995,112.247105494296576467
0.151999999999999996,110.235902136740378410
0.152999999999999997,108.251911935674158372
0.153999999999999998,106.274454953023109738
0.154999999999999999,104.306663071026221701
0.156000000000000000,102.358049041752053654
0.157000000000000001,100.437049662286426610
0.158000000000000002,98.548698567008187865
0.159000000000000002,96.694671464024949614
0.160000000000000003,94.874213292095603833
0.161000000000000004,93.085203137059195910
0.162000000000000005,91.325035304168963535
0.163000000000000006,89.591220632935076651
0.164000000000000007,87.881721759153748508
0.165000000000000008,86.195080059168816433
0.166000000000000009,84.530401265407874689
0.167000000000000010,82.887259446986348621
0.168000000000000010,81.265565526459539569
0.169000000000000011,79.665432222834539289
0.170000000000000012,78.087054852591464282
0.171000000000000013,76.530617719197692850
0.172000000000000014,74.996228933673066308
0.173000000000000015,73.483882073323840700
0.174000000000000016,71.993440590526091682
0.175000000000000017,70.524639808352418413
0.176000000000000018,69.077101226695788228
0.177000000000000018,67.650354341410292136
0.178000000000000019,66.243861970743381562
0.179000000000000020,64.857045990343209496
0.180000000000000021,63.489311270077692484
0.181000000000000022,62.140066404760389673
0.182000000000000023,60.808740497083682897
0.183000000000000024,59.494795771812576390
0.184000000000000025,58.197736180223401448
0.185000000000000026,56.917112407827538334
0.186000000000000026,55.652523846701470234
0.187000000000000027,54.403618157938140598
0.188000000000000028,53.170089050798026165
0.189000000000000029,51.951672861916527779
0.190000000000000030,50.748144446466298518
0.191000000000000031,49.559312806487874070
0.192000000000000032,48.385016789760825873
0.193000000000000033,47.225121102966696185
0.194000000000000034,46.079512800562561381
0.195000000000000034,44.948098338877613855
0.196000000000000035,43.830801225075767036
0.197000000000000036,42.727560243245235938
0.198000000000000037,41.638328204576183111
0.199000000000000038,40.563071144397653711
0.200000000000000039,39.501767874432673011
0.201000000000000040,38.454409792481115460
0.202000000000000041,37.421000852290909222
0.203000000000000042,36.401557602112404766
0.204000000000000042,35.396109209937684170
0.205000000000000043,34.404697405455479498
0.206000000000000044,33.427376282214744663
0.207000000000000045,32.464211917491041959
0.208000000000000046,31.515281781159792729
0.209000000000000047,30.580673917943975937
0.210000000000000048,29.660485899312526215
0.211000000000000049,28.754823551785669622
0.212000000000000050,27.863799477289528994
0.213000000000000050,26.987531388432472568
0.214000000000000051,26.126140287150754205
0.215000000000000052,25.279748519161710618
0.216000000000000053,24.448477739177480572
0.217000000000000054,23.632446823009853887
0.218000000000000055,22.831769762697440740
0.219000000000000056,22.046553579779153864
0.220000000000000057,21.276896289989942090
0.221000000000000058,20.522884950139960836
0.222000000000000058,19.784593814905488074
0.223000000000000059,19.062082627865816420
0.224000000000000060,18.355395067490846372
0.225000000000000061,17.664557365040522541
0.226000000000000062,16.989577107581794735
0.227000000000000063,16.330442235646902560
0.228000000000000064,15.687120241522563902
0.229000000000000065,15.059557570826674677
0.230000000000000066,14.447679226946551267
0.231000000000000066,13.851388575107463907
0.232000000000000067,13.270567340337644069
0.233000000000000068,12.705075791405011643
0.234000000000000069,12.154753100927088383
0.235000000000000070,11.619417870294608264
0.236000000000000071,11.098868806793340980
0.237000000000000072,10.592885539342287160
0.238000000000000073,10.101229558574907230
0.239000000000000073,9.623645266552866673
0.240000000000000074,9.159861121195167044
0.241000000000000075,8.709590860511184474
0.242000000000000076,8.272534791917008690
0.243000000000000077,7.848381132268492877
0.244000000000000078,7.436807384739990923
0.245000000000000079,7.037481739290619487
0.246000000000000080,6.650064484171288370
0.247000000000000081,6.274209416713190102
0.248000000000000081,5.909565242486317871
0.249000000000000082,5.555776952805958402
0.250000000000000111,5.212487171480892023
0.251000000000000112,4.879337462626386568
0.252000000000000113,4.555969592293427795
0.253000000000000114,4.242026737585994134
0.254000000000000115,3.937154637836077775
0.255000000000000115,3.641002683278761420
0.256000000000000116,3.353224937506534609
0.257000000000000117,3.073481090779632829
0.258000000000000118,2.801437342023383792
0.259000000000000119,2.536767208049606204
0.260000000000000120,2.279152259196096875
0.261000000000000121,2.028282781184637340
0.262000000000000122,1.783858363551744430
0.263000000000000123,1.545588415509524527
0.264000000000000123,1.313192610544772432
0.265000000000000124,1.086401261466015011
0.266000000000000125,0.864955627960068307
0.267000000000000126,0.648608159025259590
0.268000000000000127,0.437122672908118293
0.269000000000000128,0.230274477388164117
0.270000000000000129,0.027850433432197931
0.271000000000000130,-0.170351034621480046
0.272000000000000131,-0.364519979084331924
0.273000000000000131,-0.554835015808593957
0.274000000000000132,-0.741463454570700842
0.275000000000000133,-0.924561469555881033
0.276000000000000134,-1.104274306563211017
0.277000000000000135,-1.280736523582943764
0.278000000000000136,-1.454072261450920722
0.279000000000000137,-1.624395541354588968
0.280000000000000138,-1.791810586050247567
0.281000000000000139,-1.956412161749730316
0.282000000000000139,-2.118285937743769942
0.283000000000000140,-2.277508860948187053
0.284000000000000141,-2.434149542684918011
0.285000000000000142,-2.588268655142123897
0.286000000000000143,-2.739919335093934372
0.287000000000000144,-2.889147592599706993
0.288000000000000145,-3.035992722544465394
0.289000000000000146,-3.180487717023416927
0.290000000000000147,-3.322659676715927990
0.291000000000000147,-3.462530219534137643
0.292000000000000148,-3.600115884970455760
0.293000000000000149,-3.735428532703505056
0.294000000000000150,-3.868475734154880108
0.295000000000000151,-3.999261155817701585
0.296000000000000152,-4.127784933302346637
0.297000000000000153,-4.254044035164621818
0.298000000000000154,-4.378032615696572982
0.299000000000000155,-4.499742355969901020
0.300000000000000155,-4.619162792526516625
0.301000000000000156,-4.736281633209618924
0.302000000000000157,-4.851085059722628046
0.303000000000000158,-4.963558016590871702
0.304000000000000159,-5.073684486283879025
0.305000000000000160,-5.181447750332784707
0.306000000000000161,-5.286830636349245438
0.307000000000000162,-5.389815750918478088
0.308000000000000163,-5.490385698400091385
0.309000000000000163,-5.588523285726568091
0.310000000000000164,-5.684211713340356908
0.311000000000000165,-5.777434752457003775
0.312000000000000166,-5.868176908883683041
0.313000000000000167,-5.956423573659991533
0.314000000000000168,-6.042161160821280852
0.315000000000000169,-6.125377232614203749
0.316000000000000170,-6.206060612519913811
0.317000000000000171,-6.284201486462298369
0.318000000000000171,-6.359791492597464568
0.319000000000000172,-6.432823800096386435
0.320000000000000173,-6.503293177345115694
0.321000000000000174,-6.571196049996880895
0.322000000000000175,-6.636530549317849470
0.323000000000000176,-6.699296551273128841
0.324000000000000177,-6.759495706802427506
0.325000000000000178,-6.817131463735391250
0.326000000000000179,-6.872209080795810721
0.327000000000000179,-6.924735634140652962
0.328000000000000180,-6.974720016875872730
0.329000000000000181,-7.022172931985176447
0.330000000000000182,-7.067106879100643724
0.331000000000000183,-7.109536135536535184
0.332000000000000184,-7.149476731998047008
0.333000000000000185,-7.186946423367194470
0.334000000000000186,-7.221964654957131913
0.335000000000000187,-7.254552524615054843
0.336000000000000187,-7.284732741041858972
0.337000000000000188,-7.312529578684403120
0.338000000000000189,-7.337968829543700444
0.339000000000000190,-7.361077752229330251
0.340000000000000191,-7.381885018577037272
0.341000000000000192,-7.400420658133560536
0.342000000000000193,-7.416716000798961872
0.343000000000000194,-7.430803617903694480
0.344000000000000195,-7.442717261983842647
0.345000000000000195,-7.452491805505301770
0.346000000000000196,-7.460163178773856707
0.347000000000000197,-7.465768307255659764
0.348000000000000198,-7.469345048519490327
0.349000000000000199,-7.470932128999784538
0.350000000000000200,-7.470569080767093695
0.351000000000000201,-7.468296178480571257
0.352000000000000202,-7.464154376685354642
0.353000000000000203,-7.458185247606475166
0.354000000000000203,-7.450430919579642541
0.355000000000000204,-7.440934016248651695
0.356000000000000205,-7.429737596648789300
0.357000000000000206,-7.416885096285740886
0.358000000000000207,-7.402420269309506473
0.359000000000000208,-7.386387131874061929
0.360000000000000209,-7.368829906764318594
0.361000000000000210,-7.349792969363448947
0.362000000000000210,-7.329320795025701329
0.363000000000000211,-7.307457907911832251
0.364000000000000212,-7.284248831337197139
0.365000000000000213,-7.259738039675175614
0.366000000000000214,-7.233969911852311085
0.367000000000000215,-7.206988686464886662
0.368000000000000216,-7.178838418541076294
0.369000000000000217,-7.149562937966837062
0.370000000000000218,-7.119205809588694756
0.371000000000000218,-7.087810295001416350
0.372000000000000219,-7.055419316024043042
0.373000000000000220,-7.022075419863388568
0.374000000000000221,-6.987820745959967716
0.375000000000000222,-6.952696994507633121
0.376000000000000223,-6.916745396634707888
0.377000000000000224,-6.880006686231162405
0.378000000000000225,-6.842521073403325715
0.379000000000000226,-6.804328219535004330
0.380000000000000226,-6.765467213931431800
0.381000000000000227,-6.725976552019899302
0.382000000000000228,-6.685894115079316968
0.383000000000000229,-6.645257151468726420
0.384000000000000230,-6.604102259323217261
0.385000000000000231,-6.562465370684455124
0.386000000000000232,-6.520381737031368807
0.387000000000000233,-6.477885916175738501
0.388000000000000234,-6.435011760486196053
0.389000000000000234,-6.391792406403592253
0.390000000000000235,-6.348260265209709985
0.391000000000000236,-6.304447015011104050
0.392000000000000237,-6.260383593899012666
0.393000000000000238,-6.216100194246431343
0.394000000000000239,-6.171626258102817175
0.395000000000000240,-6.126990473647158097
0.396000000000000241,-6.082220772659916008
0.397000000000000242,-6.037344328974481478
0.398000000000000242,-5.992387557869113479
0.399000000000000243,-5.947376116360338472
0.400000000000000244,-5.902334904359268997
0.401000000000000245,-5.857288066652734493
0.402000000000000246,-5.812258995671355066
0.403000000000000247,-5.767270335007379956
0.404000000000000248,-5.722343983645609811
0.405000000000000249,-5.677501100871277906
0.406000000000000250,-5.632762111819435979
0.407000000000000250,-5.588146713631028106
0.408000000000000251,-5.543673882181605173
0.409000000000000252,-5.499361879349288884
0.410000000000000253,-5.455228260789366956
0.411000000000000254,-5.411289884183750232
0.412000000000000255,-5.367562917934153965
0.413000000000000256,-5.324062850268932223
0.414000000000000257,-5.280804498733963293
0.415000000000000258,-5.237802020039215911
0.416000000000000258,-5.195068920233112841
0.417000000000000259,-5.152618065177884787
0.418000000000000260,-5.110461691299829745
0.419000000000000261,-5.068611416589305030
0.420000000000000262,-5.027078251826061717
0.421000000000000263,-4.985872612006489568
0.422000000000000264,-4.945004327949985345
0.423000000000000265,-4.904482658062673472
0.424000000000000266,-4.864316300237513602
0.425000000000000266,-4.824513403870430039
0.426000000000000267,-4.785081581973253506
0.427000000000000268,-4.746027923364726675
0.428000000000000269,-4.707359004921832124
0.429000000000000270,-4.669080903874407440
0.430000000000000271,-4.631199210126646371
0.431000000000000272,-4.593719038590107218
0.432000000000000273,-4.556645041513229799
0.433000000000000274,-4.519981420793422799
0.434000000000000274,-4.483731940258159021
0.435000000000000275,-4.447899937902461076
0.436000000000000276,-4.412488338070696514
0.437000000000000277,-4.377499663571204458
0.438000000000000278,-4.342936047713054748
0.439000000000000279,-4.308799246254754856
0.440000000000000280,-4.275090649255295361
0.441000000000000281,-4.241811292818586487
0.442000000000000282,-4.208961870722898624
0.443000000000000282,-4.176542745927335432
0.444000000000000283,-4.144553961948100884
0.445000000000000284,-4.112995254097678632
0.446000000000000285,-4.081866060580543021
0.447000000000000286,-4.051165533439690769
0.448000000000000287,-4.020892549348409339
0.449000000000000288,-3.991045720242515138
0.450000000000000289,-3.961623403788412823
0.451000000000000290,-3.932623713682933619
0.452000000000000290,-3.904044529781286688
0.453000000000000291,-3.875883508049673853
0.454000000000000292,-3.848138090339781492
0.455000000000000293,-3.820805513982401092
0.456000000000000294,-3.793882821198012234
0.457000000000000295,-3.767366868322354012
0.458000000000000296,-3.741254334845328433
0.459000000000000297,-3.715541732261963936
0.460000000000000298,-3.690225412734329247
0.461000000000000298,-3.665301577563636393
0.462000000000000299,-3.640766285472031516
0.463000000000000300,-3.616615460693727524
0.464000000000000301,-3.592844900875484804
0.465000000000000302,-3.569450284786607419
0.466000000000000303,-3.546427179838784305
0.467000000000000304,-3.523771049416384304
0.468000000000000305,-3.501477260017984428
0.469000000000000306,-3.479541088210000854
0.470000000000000306,-3.457957727393638603
0.471000000000000307,-3.436722294386258536
0.472000000000000308,-3.415829835818745330
0.473000000000000309,-3.395275334350272178
0.474000000000000310,-3.375053714702215935
0.475000000000000311,-3.355159849512978187
0.476000000000000312,-3.335588565015653817
0.477000000000000313,-3.316334646540482822
0.478000000000000314,-3.297392843844252575
0.479000000000000314,-3.278757876268836746
0.480000000000000315,-3.260424437731060721
0.481000000000000316,-3.242387201546389264
0.482000000000000317,-3.224640825088679996
0.483000000000000318,-3.207179954288617463
0.484000000000000319,-3.189999227973276064
0.485000000000000320,-3.173093282049433750
0.486000000000000321,-3.156456753533242399
0.487000000000000322,-3.140084284428946937
0.488000000000000322,-3.123970525459282221
0.489000000000000323,-3.108110139650389403
0.490000000000000324,-3.092497805773897213
0.491000000000000325,-3.077128221649012563
0.492000000000000326,-3.061996107307347170
0.493000000000000327,-3.047096208023356123
0.494000000000000328,-3.032423297213127977
0.495000000000000329,-3.017972179204387206
0.496000000000000330,-3.003737691880491667
0.497000000000000330,-2.989714709201285014
0.498000000000000331,-2.975898143603525003
0.499000000000000332,-2.962282948283806228
0.500000000000000333,-2.948864119366681802
0.501000000000000334,-2.935636697960761321
0.502000000000000335,-2.922595772105610390
0.503000000000000336,-2.909736478612129584
0.504000000000000337,-2.897054004799174187
0.505000000000000338,-2.884543590129101442
0.506000000000000338,-2.872200527744930731
0.507000000000000339,-2.860020165911767887
0.508000000000000340,-2.847997909365096447
0.509000000000000341,-2.836129220568608389
0.510000000000000342,-2.824409620884025252
0.511000000000000343,-2.812834691655567987
0.512000000000000344,-2.801400075211478047
0.513000000000000345,-2.790101475785114360
0.514000000000000346,-2.778934660358095332
0.515000000000000346,-2.767895459427781368
0.516000000000000347,-2.756979767701563944
0.517000000000000348,-2.746183544720268266
0.518000000000000349,-2.735502815412899302
0.519000000000000350,-2.724933670585087064
0.520000000000000351,-2.714472267343341461
0.521000000000000352,-2.704114829457391789
0.522000000000000353,-2.693857647662665666
0.523000000000000353,-2.683697079905050131
0.524000000000000354,-2.673629551529999482
0.525000000000000355,-2.663651555417974048
0.526000000000000356,-2.653759652068212294
0.527000000000000357,-2.643950469632792455
0.528000000000000358,-2.634220703902825811
0.529000000000000359,-2.624567118248716469
0.530000000000000360,-2.614986543516232054
0.531000000000000361,-2.605475877880228719
0.532000000000000361,-2.596032086657722004
0.533000000000000362,-2.586652202082042606
0.534000000000000363,-2.577333323039696644
0.535000000000000364,-2.568072614771606421
0.536000000000000365,-2.558867308540250463
0.537000000000000366,-2.549714701264320205
0.538000000000000367,-2.540612155122317084
0.539000000000000368,-2.531557097126656775
0.540000000000000369,-2.522547018669611951
0.541000000000000369,-2.513579475042580391
0.542000000000000370,-2.504652084929962275
0.543000000000000371,-2.495762529879011815
0.544000000000000372,-2.486908553746947526
0.545000000000000373,-2.478087962126555688
0.546000000000000374,-2.469298621751509160
0.547000000000000375,-2.460538459882587681
0.548000000000000376,-2.451805463675964525
0.549000000000000377,-2.443097679534639077
0.550000000000000377,-2.434413212444125563
0.551000000000000378,-2.425750225293430429
0.552000000000000379,-2.417106938182372211
0.553000000000000380,-2.408481627716178686
0.554000000000000381,-2.399872626288352517
0.555000000000000382,-2.391278321352754865
0.556000000000000383,-2.382697154685716079
0.557000000000000384,-2.374127621639171348
0.558000000000000385,-2.365568270385533634
0.559000000000000385,-2.357017701155207146
0.560000000000000386,-2.348474565467480790
0.561000000000000387,-2.339937565355572069
0.562000000000000388,-2.331405452586548854
0.563000000000000389,-2.322877027876850242
0.564000000000000390,-2.314351140104061511
0.565000000000000391,-2.305826685515626195
0.566000000000000392,-2.297302606935093028
0.567000000000000393,-2.288777892966566085
0.568000000000000393,-2.280251577197864421
0.569000000000000394,-2.271722737403011561
0.570000000000000395,-2.263190494744602876
0.571000000000000396,-2.254654012976492261
0.572000000000000397,-2.246112497647418937
0.573000000000000398,-2.237565195305925236
0.574000000000000399,-2.229011392707132444
0.575000000000000400,-2.220450416021731321
0.576000000000000401,-2.211881630047647818
0.577000000000000401,-2.203304437424808082
0.578000000000000402,-2.194718277853320298
0.579000000000000403,-2.186122627315481459
0.580000000000000404,-2.177516997301988333
0.581000000000000405,-2.168900934042604423
0.582000000000000406,-2.160274017741682151
0.583000000000000407,-2.151635861818775641
0.584000000000000408,-2.142986112154680267
0.585000000000000409,-2.134324446343138781
0.586000000000000409,-2.125650572948463157
0.587000000000000410,-2.116964230769373678
0.588000000000000411,-2.108265188109181842
0.589000000000000412,-2.099553242052655477
0.590000000000000413,-2.090828217749647777
0.591000000000000414,-2.082089967705774036
0.592000000000000415,-2.073338371080276854
0.593000000000000416,-2.064573332991227694
0.594000000000000417,-2.055794783828249983
0.595000000000000417,-2.047002678572938272
0.596000000000000418,-2.038196996126987237
0.597000000000000419,-2.029377738648334706
0.598000000000000420,-2.020544930895247226
0.599000000000000421,-2.011698619578605296
0.600000000000000422,-2.002838872722383368
0.601000000000000423,-1.993965779032453423
0.602000000000000424,-1.985079447273793374
0.603000000000000425,-1.976180005656153371
0.604000000000000425,-1.967267601228240848
0.605000000000000426,-1.958342399280492030
0.606000000000000427,-1.949404582756493642
0.607000000000000428,-1.940454351672995958
0.608000000000000429,-1.931491922548738582
0.609000000000000430,-1.922517527841871354
0.610000000000000431,-1.913531415396235502
0.611000000000000432,-1.904533847896320298
0.612000000000000433,-1.895525102331005796
0.613000000000000433,-1.886505469466098761
