# CaO001_CS-3970-AC
# h[nm],U(h)[kJ/mol]
0.149999999999999994,86.887732284112146885
0.150999999999999995,85.232255518128056337
0.151999999999999996,83.816028594222686365
0.152999999999999997,82.432419605903930915
0.153999999999999998,81.024040829829587551
0.154999999999999999,79.594718693713303992
0.156000000000000000,78.165789337048934726
0.157000000000000001,76.757003355232981789
0.158000000000000002,75.380274908274444101
0.159000000000000002,74.039495160940234086
0.160000000000000003,72.732688467242041952
0.161000000000000004,71.454614932185293696
0.162000000000000005,70.198972257246325057
0.163000000000000006,68.959921349278005209
0.164000000000000007,67.732945892799236276
0.165000000000000008,66.515177273320063023
0.166000000000000009,65.305347978879197512
0.167000000000000010,64.103524072651978827
0.168000000000000010,62.910736662328602620
0.169000000000000011,61.728597770577323445
0.170000000000000012,60.558954719964219748
0.171000000000000013,59.403611968256328169
0.172000000000000014,58.264130828230520365
0.173000000000000015,57.141705073164473561
0.174000000000000016,56.037102970637178601
0.175000000000000017,54.950662603555613828
0.176000000000000018,53.882326321301185601
0.177000000000000018,52.831700887338399752
0.178000000000000019,51.798131626130917482
0.179000000000000020,50.780781086164409999
0.180000000000000021,49.778705055783731837
0.181000000000000022,48.790920955133557868
0.182000000000000023,47.816465542569332570
0.183000000000000024,46.854440452817129881
0.184000000000000025,45.904045312933845935
0.185000000000000026,44.964599079425205730
0.186000000000000026,44.035550843418775457
0.187000000000000027,43.116481707420149405
0.188000000000000028,42.207099496109968584
0.189000000000000029,41.307228071996121344
0.190000000000000030,40.416792926934178354
0.191000000000000031,39.535804548938827452
0.192000000000000032,38.664340850221861956
0.193000000000000033,37.802529710582554401
0.194000000000000034,36.950532457940141740
0.195000000000000034,36.108528887662501461
0.196000000000000035,35.276704222884049500
0.197000000000000036,34.455238244228681310
0.198000000000000037,33.644296671557796685
0.199000000000000038,32.844024762802767725
0.200000000000000039,32.054543004398126982
0.201000000000000040,31.275944702096317940
0.202000000000000041,30.508295237202936789
0.203000000000000042,29.751632728408559103
0.204000000000000042,29.005969830217544825
0.205000000000000043,28.271296402395460490
0.206000000000000044,27.547582797985359804
0.207000000000000045,26.834783537677338927
0.208000000000000046,26.132841163372290794
0.209000000000000047,25.441690091710285060
0.210000000000000048,24.761260317522733487
0.211000000000000049,24.091480846313345410
0.212000000000000050,23.432282762962152844
0.213000000000000050,22.783601870129011502
0.214000000000000051,22.145380853776231334
0.215000000000000052,21.517570954499959157
0.216000000000000053,20.900133141780049328
0.217000000000000054,20.293038803780930834
0.218000000000000055,19.696269978017106439
0.219000000000000056,19.109819158170360254
0.220000000000000057,18.533688719797673627
0.221000000000000058,17.967890012832548052
0.222000000000000058,17.412442171900650578
0.223000000000000059,16.867370696812052699
0.224000000000000060,16.332705855412573470
0.225000000000000061,15.808480959533218524
0.226000000000000062,15.294730562309291955
0.227000000000000063,14.791488621874600895
0.228000000000000064,14.298786672575610979
0.229000000000000065,13.816652040577073635
0.230000000000000066,13.345106136208702452
0.231000000000000066,12.884162850767594932
0.232000000000000067,12.433827080864558567
0.233000000000000068,11.994093398879687840
0.234000000000000069,11.564944883754503024
0.235000000000000070,11.146352122255830608
0.236000000000000071,10.738272387047723910
0.237000000000000072,10.340648994433987440
0.238000000000000073,9.953410841507704276
0.239000000000000073,9.576472119675999650
0.240000000000000074,9.209732199117913964
0.241000000000000075,8.853075676679470263
0.242000000000000076,8.506372577997776574
0.243000000000000077,8.169478703261486174
0.244000000000000078,7.842236104938551833
0.245000000000000079,7.524473685011163759
0.246000000000000080,7.216007898729611902
0.247000000000000081,6.916643551604906293
0.248000000000000081,6.626174676281396003
0.249000000000000082,6.344385476038643112
0.250000000000000111,6.071051321942311674
0.251000000000000112,5.805939791074122169
0.252000000000000113,5.548811733796456203
0.253000000000000114,5.299422358630094365
0.254000000000000115,5.057522324020082394
0.255000000000000115,4.822858827020715111
0.256000000000000116,4.595176679726635349
0.257000000000000117,4.374219365099839330
0.258000000000000118,4.159730064678532457
0.259000000000000119,3.951452651490824586
0.260000000000000120,3.749132642324732423
0.261000000000000121,3.552518104317341940
0.262000000000000122,3.361360511611826585
0.263000000000000123,3.175415548586594916
0.264000000000000123,2.994443856879870136
0.265000000000000124,2.818211724112663852
0.266000000000000125,2.646491712849690980
0.267000000000000126,2.479063228929854645
0.268000000000000127,2.315713028843386034
0.269000000000000128,2.156235666332222856
0.270000000000000129,2.000433878842329261
0.271000000000000130,1.848118914862843409
0.272000000000000131,1.699110803547976500
0.273000000000000131,1.553238568334497582
0.274000000000000132,1.410340386542374258
0.275000000000000133,1.270263697180317397
0.276000000000000134,1.132865259373792899
0.277000000000000135,0.998011163992959638
0.278000000000000136,0.865576801183432720
0.279000000000000137,0.735446786597243496
0.280000000000000138,0.607514849186508998
0.281000000000000139,0.481683683460562950
0.282000000000000139,0.357864769121462534
0.283000000000000140,0.235978160984653990
0.284000000000000141,0.115952252063838676
0.285000000000000142,-0.002276487346445721
0.286000000000000143,-0.118763791817945080
0.287000000000000144,-0.233557901467285722
0.288000000000000145,-0.346699878554334984
0.289000000000000146,-0.458223937484073862
0.290000000000000147,-0.568157785800529114
0.291000000000000147,-0.676522973871671929
0.292000000000000148,-0.783335251080760075
0.293000000000000149,-0.888604926459207634
0.294000000000000150,-0.992337231819040988
0.295000000000000151,-1.094532685567212171
0.296000000000000152,-1.195187455508949226
0.297000000000000153,-1.294293719071946125
0.298000000000000154,-1.391840019506771942
0.299000000000000155,-1.487811616740569942
0.300000000000000155,-1.582190831680519549
0.301000000000000156,-1.674957382879815437
0.302000000000000157,-1.766088714592102260
0.303000000000000158,-1.855560315349276790
0.304000000000000159,-1.943346026302889218
0.305000000000000160,-2.029418338669869204
0.306000000000000161,-2.113748679719618107
0.307000000000000162,-2.196307686830869521
0.308000000000000163,-2.277065469233229944
0.309000000000000163,-2.355991857130055323
0.310000000000000164,-2.433056637976084069
0.311000000000000165,-2.508229779754982847
0.312000000000000166,-2.581481641169026009
0.313000000000000167,-2.652783168715194595
0.314000000000000168,-2.722106080679382423
0.315000000000000169,-2.789423038133202137
0.316000000000000170,-2.854707803066236949
0.317000000000000171,-2.917935383830380758
0.318000000000000171,-2.979082168112719753
0.319000000000000172,-3.038126043689186595
0.320000000000000173,-3.095046507242821487
0.321000000000000174,-3.149824761558759345
0.322000000000000175,-3.202443801432584447
0.323000000000000176,-3.252888488649976928
0.324000000000000177,-3.301145616413620587
0.325000000000000178,-3.347203963608439636
0.326000000000000179,-3.391054339308725130
0.327000000000000179,-3.432689617940126059
0.328000000000000180,-3.472104765516971447
0.329000000000000181,-3.509296857380347578
0.330000000000000182,-3.544265087865057673
0.331000000000000183,-3.577010772324852095
0.332000000000000184,-3.607537341944184739
0.333000000000000185,-3.635850331762453980
0.334000000000000186,-3.661957362332737720
0.335000000000000187,-3.685868115431612857
0.336000000000000187,-3.707594304230378945
0.337000000000000188,-3.727149638330081949
0.338000000000000189,-3.744549784054553410
0.339000000000000190,-3.759812320386037410
0.340000000000000191,-3.772956690917853795
0.341000000000000192,-3.784004152187945724
0.342000000000000193,-3.792977718745580429
0.343000000000000194,-3.799902105292011889
0.344000000000000195,-3.804803666223347314
0.345000000000000195,-3.807710332891969696
0.346000000000000196,-3.808651548889680161
0.347000000000000197,-3.807658203643254247
0.348000000000000198,-3.804762564600134844
0.349000000000000199,-3.799998208268923428
0.350000000000000200,-3.793399950366640461
0.351000000000000201,-3.785003775311641672
0.352000000000000202,-3.774846765288475403
0.353000000000000203,-3.762967029098347016
0.354000000000000203,-3.749403630996410719
0.355000000000000204,-3.734196519704851447
0.356000000000000205,-3.717386457778865783
0.357000000000000206,-3.699014951490931846
0.358000000000000207,-3.679124181387129600
0.359000000000000208,-3.657756933658488752
0.360000000000000209,-3.634956532459280076
0.361000000000000210,-3.610766773293791143
0.362000000000000210,-3.585231857583000448
0.363000000000000211,-3.558396328512768214
0.364000000000000212,-3.530305008255780308
0.365000000000000213,-3.501002936650333019
0.366000000000000214,-3.470535311410449797
0.367000000000000215,-3.438947429933401079
0.368000000000000216,-3.406284632762828668
0.369000000000000217,-3.372592248757922739
0.370000000000000218,-3.337915542012061199
0.371000000000000218,-3.302299660557182825
0.372000000000000219,-3.265789586883856455
0.373000000000000220,-3.228430090300695277
0.374000000000000221,-3.190265681150948662
0.375000000000000222,-3.151340566898524376
0.376000000000000223,-3.111698610090662953
0.377000000000000224,-3.071383288199431405
0.378000000000000225,-3.030437655339732750
0.379000000000000226,-2.988904305857240651
0.380000000000000226,-2.946825339775765329
0.381000000000000227,-2.904242330089680912
0.382000000000000228,-2.861196291883871812
0.383000000000000229,-2.817727653260313048
0.384000000000000230,-2.773876228047523984
0.385000000000000231,-2.729681190266620483
0.386000000000000232,-2.685181050325038399
0.387000000000000233,-2.640413632906992270
0.388000000000000234,-2.595416056527608539
0.389000000000000234,-2.550224714716014418
0.390000000000000235,-2.504875258790936421
0.391000000000000236,-2.459402582191105857
0.392000000000000237,-2.413840806321377652
0.393000000000000238,-2.368223267874612681
0.394000000000000239,-2.322582507588236034
0.395000000000000240,-2.276950260393866277
0.396000000000000241,-2.231357446917643816
0.397000000000000242,-2.185834166288433966
0.398000000000000242,-2.140409690210859139
0.399000000000000243,-2.095112458259683397
0.400000000000000244,-2.049970074352068572
0.401000000000000245,-2.005009304354296695
0.402000000000000246,-1.960256074779380242
0.403000000000000247,-1.915735472532373418
0.404000000000000248,-1.871471745660389319
0.405000000000000249,-1.827488305064603136
0.406000000000000250,-1.783807727131971221
0.407000000000000250,-1.740451757244878550
0.408000000000000251,-1.697441314127378531
0.409000000000000252,-1.654796494987381461
0.410000000000000253,-1.612536581414649062
0.411000000000000254,-1.570680045995258345
0.412000000000000255,-1.529244559603799347
0.413000000000000256,-1.488246999335429255
0.414000000000000257,-1.447703457040562469
0.415000000000000258,-1.407629248425957824
0.416000000000000258,-1.368038922686616532
0.417000000000000259,-1.328946272633924064
0.418000000000000260,-1.290364345286234782
0.419000000000000261,-1.252305452889041160
0.420000000000000262,-1.214781184332769604
0.421000000000000263,-1.177802416937148822
0.422000000000000264,-1.141379328572015517
0.423000000000000265,-1.105521410085311462
0.424000000000000266,-1.070237478010091170
0.425000000000000266,-1.035535687523038373
0.426000000000000267,-1.001423545628187251
0.427000000000000268,-0.967907924540244879
0.428000000000000269,-0.934995075242942009
0.429000000000000270,-0.902690641198766186
0.430000000000000271,-0.870999672187182106
0.431000000000000272,-0.839926638249535173
0.432000000000000273,-0.809475443719550825
0.433000000000000274,-0.779649441319305803
0.434000000000000274,-0.750451446301333314
0.435000000000000275,-0.721883750618429798
0.436000000000000276,-0.693948137103524099
0.437000000000000277,-0.666645893642737297
0.438000000000000278,-0.639977827325656889
0.439000000000000279,-0.613944278557553291
0.440000000000000280,-0.588545135119015406
0.441000000000000281,-0.563779846159285003
0.442000000000000282,-0.539647436110294865
0.443000000000000282,-0.516146518509003061
0.444000000000000283,-0.493275309716527832
0.445000000000000284,-0.471031642523038308
0.446000000000000285,-0.449412979628093012
0.447000000000000286,-0.428416426986890642
0.448000000000000287,-0.408038747013206859
0.449000000000000288,-0.388276371630742967
0.450000000000000289,-0.369125415164885118
0.451000000000000290,-0.350581687067652914
0.452000000000000290,-0.332640704469040760
0.453000000000000291,-0.315297704548509916
0.454000000000000292,-0.298547656720923371
0.455000000000000293,-0.282385274631653249
0.456000000000000294,-0.266805027956110496
0.457000000000000295,-0.251801153999374860
0.458000000000000296,-0.237367669092040323
0.459000000000000297,-0.223498379778815703
0.460000000000000298,-0.210186893796833502
0.461000000000000298,-0.197426630840984330
0.462000000000000299,-0.185210833113995721
0.463000000000000300,-0.173532575659276850
0.464000000000000301,-0.162384776474975345
0.465000000000000302,-0.151760206407936804
0.466000000000000303,-0.141651498826592365
0.467000000000000304,-0.132051159072122420
0.468000000000000305,-0.122951573687507934
0.469000000000000306,-0.114345019424317004
0.470000000000000306,-0.106223672027413826
0.471000000000000307,-0.098579614797898937
0.472000000000000308,-0.091404846934952613
0.473000000000000309,-0.084691291657348372
0.474000000000000310,-0.078430804105703258
0.475000000000000311,-0.072615179026660343
0.476000000000000312,-0.067236158240444363
0.477000000000000313,-0.062285437893312881
0.478000000000000314,-0.057754675496683040
0.479000000000000314,-0.053635496754829558
0.480000000000000315,-0.049919502183133034
0.481000000000000316,-0.046598273519112443
0.482000000000000317,-0.043663379928463496
0.483000000000000318,-0.041106384008550781
0.484000000000000319,-0.038918847591823846
0.485000000000000320,-0.037092337351795998
0.486000000000000321,-0.035618430214247696
0.487000000000000322,-0.034488718576452970
0.488000000000000322,-0.033694815337247566
0.489000000000000323,-0.033228358740910083
0.490000000000000324,-0.033081017037775683
0.491000000000000325,-0.033244492964664682
0.492000000000000326,-0.033710528048164656
0.493000000000000327,-0.034470906733929760
0.494000000000000328,-0.035517460345145024
0.495000000000000329,-0.036842070873331759
0.496000000000000330,-0.038436674604740206
0.497000000000000330,-0.040293265585567783
0.498000000000000331,-0.042403898929230729
0.499000000000000332,-0.044760693969006893
0.500000000000000333,-0.047355837259300149
0.501000000000000334,-0.050181585428803556
0.502000000000000335,-0.053230267888877525
0.503000000000000336,-0.056494289400390044
0.504000000000000337,-0.059966132502312176
0.505000000000000338,-0.063638359805330696
0.506000000000000338,-0.067503616153728047
0.507000000000000339,-0.071554630658764565
0.508000000000000340,-0.075784218606778003
0.509000000000000341,-0.080185283245214095
0.510000000000000342,-0.084750817449731869
0.511000000000000343,-0.089473905275563564
0.512000000000000344,-0.094347723396223757
0.513000000000000345,-0.099365542432665294
0.514000000000000346,-0.104520728175966360
0.515000000000000346,-0.109806742706524990
0.516000000000000347,-0.115217145412790642
0.517000000000000348,-0.120745593912492427
0.518000000000000349,-0.126385844879242815
0.519000000000000350,-0.132131754777431942
0.520000000000000351,-0.137977280508243316
0.521000000000000352,-0.143916479969581068
0.522000000000000353,-0.149943512532670964
0.523000000000000353,-0.156052639438052559
0.524000000000000354,-0.162238224113626789
0.525000000000000355,-0.168494732417404036
0.526000000000000356,-0.174816732807495268
0.527000000000000357,-0.181198896441946922
0.528000000000000358,-0.187635997210850253
0.529000000000000359,-0.194122911703216383
0.530000000000000360,-0.200654619110989307
0.531000000000000361,-0.207226201072576000
0.532000000000000361,-0.213832841458185763
0.533000000000000362,-0.220469826099253613
0.534000000000000363,-0.227132542464150100
0.535000000000000364,-0.233816479282366652
0.536000000000000365,-0.240517226119280225
0.537000000000000366,-0.247230472903595594
0.538000000000000367,-0.253952009409467883
0.539000000000000368,-0.260677724695338564
0.540000000000000369,-0.267403606501366187
0.541000000000000369,-0.274125740607401469
0.542000000000000370,-0.280840310153317119
0.543000000000000371,-0.287543594923516999
0.544000000000000372,-0.294231970597390979
0.545000000000000373,-0.300901907967410343
0.546000000000000374,-0.307549972126561932
0.547000000000000375,-0.314172821626728715
0.548000000000000376,-0.320767207609636451
0.549000000000000377,-0.327329972911870382
0.550000000000000377,-0.333858051145503709
0.551000000000000378,-0.340348465755782204
0.552000000000000379,-0.346798329057287691
0.553000000000000380,-0.353204841249977308
0.554000000000000381,-0.359565289416415190
0.555000000000000382,-0.365877046501539738
0.556000000000000383,-0.372137570276184493
0.557000000000000384,-0.378344402285635373
0.558000000000000385,-0.384495166784355857
0.559000000000000385,-0.390587569658099987
0.560000000000000386,-0.396619397334468771
0.561000000000000387,-0.402588515683043990
0.562000000000000388,-0.408492868906113749
0.563000000000000389,-0.414330478421036819
0.564000000000000390,-0.420099441735189039
0.565000000000000391,-0.425797931314481404
0.566000000000000392,-0.431424193446330762
0.567000000000000393,-0.436976547098004153
0.568000000000000393,-0.442453382771149317
0.569000000000000394,-0.447853161353380602
0.570000000000000395,-0.453174412967680962
0.571000000000000396,-0.458415735820395742
0.572000000000000397,-0.463575795048577544
0.573000000000000398,-0.468653321567344794
0.574000000000000399,-0.473647110917991498
0.575000000000000400,-0.478556022117460511
0.576000000000000401,-0.483378976509826086
0.577000000000000401,-0.488114956620411378
0.578000000000000402,-0.492763005013085009
0.579000000000000403,-0.497322223151307252
0.580000000000000404,-0.501791770263480430
0.581000000000000405,-0.506170862213073169
0.582000000000000406,-0.510458770374040305
0.583000000000000407,-0.514654820511986522
0.584000000000000408,-0.518758391671519714
0.585000000000000409,-0.522768915070219720
0.586000000000000409,-0.526685872999628102
0.587000000000000410,-0.530508797733646786
0.588000000000000411,-0.534237270444683388
0.589000000000000412,-0.537870920127940244
0.590000000000000413,-0.541409422534115725
0.591000000000000414,-0.544852499110875521
0.592000000000000415,-0.548199915953365591
0.593000000000000416,-0.551451482764040102
0.594000000000000417,-0.554607051822080255
0.595000000000000417,-0.557666516962643799
0.596000000000000418,-0.560629812566154517
0.597000000000000419,-0.563496912557890917
0.598000000000000420,-0.566267829418025448
0.599000000000000421,-0.568942613202336744
0.600000000000000422,-0.571521350573758857
0.601000000000000423,-0.574004163844911819
0.602000000000000424,-0.576391210031788614
0.603000000000000425,-0.578682679918727461
0.604000000000000425,-0.580878797134763758
0.605000000000000426,-0.582979817241516485
0.606000000000000427,-0.584986026832705619
0.607000000000000428,-0.586897742645329457
0.608000000000000429,-0.588715310682708881
0.609000000000000430,-0.590439105349305882
0.610000000000000431,-0.592069528597543249
0.611000000000000432,-0.593607009086549842
0.612000000000000433,-0.595052001352935012
0.613000000000000433,-0.596404984993632037
0.614000000000000434,-0.597666463860808794
