# CaO001_CS-3970-AC
# h[nm],U(h)[kJ/mol]
0.149999999999999994,86.887736825404743968
0.150999999999999995,85.232260363530983227
0.151999999999999996,83.816033424880487246
0.152999999999999997,82.432424379151498783
0.153999999999999998,81.024045591703114155
0.154999999999999999,79.594723494594489921
0.156000000000000000,78.165794202134449620
0.157000000000000001,76.757008281522942639
0.158000000000000002,75.380279872249033701
0.159000000000000002,74.039500128669899937
0.160000000000000003,72.732693403119810682
0.161000000000000004,71.454619804945679107
0.162000000000000005,70.198977043211030491
0.163000000000000006,68.959926033337538342
0.164000000000000007,67.732950467811946282
0.165000000000000008,66.515181738579329362
0.166000000000000009,65.305352338178337845
0.167000000000000010,64.103528332331251249
0.168000000000000010,62.910740829550647391
0.169000000000000011,61.728601851963972535
0.170000000000000012,60.558958720641214768
0.171000000000000013,59.403615891293689799
0.172000000000000014,58.264134674429328697
0.173000000000000015,57.141708841121484852
0.174000000000000016,56.037106657013737276
0.175000000000000017,54.950666203478832017
0.176000000000000018,53.882329828834528485
0.177000000000000018,52.831704295969508678
0.178000000000000019,51.798134929236312018
0.179000000000000020,50.780784277422732487
0.180000000000000021,49.778708129519124270
0.181000000000000022,48.790923906580282221
0.182000000000000023,47.816468368055318194
0.183000000000000024,46.854443149870050433
0.184000000000000025,45.904047880316852570
0.185000000000000026,44.964601517112150475
0.186000000000000026,44.035553152519888442
0.187000000000000027,43.116483890069680740
0.188000000000000028,42.207101555326822506
0.189000000000000029,41.307230011527920510
0.190000000000000030,40.416794751093746640
0.191000000000000031,39.535806262441028025
0.192000000000000032,38.664342458027135763
0.193000000000000033,37.802531217752104453
0.194000000000000034,36.950533869506443807
0.195000000000000034,36.108530208517450433
0.196000000000000035,35.276705457686261980
0.197000000000000036,34.455239397330174711
0.198000000000000037,33.644297746949789030
0.199000000000000038,32.844025764079653129
0.200000000000000039,32.054543934738191524
0.201000000000000040,31.275945564257419562
0.202000000000000041,30.508296033531348002
0.203000000000000042,29.751633460858734281
0.204000000000000042,29.005970500380954036
0.205000000000000043,28.271297011536308474
0.206000000000000044,27.547583347081349814
0.207000000000000045,26.834784027463722822
0.208000000000000046,26.132841594387578255
0.209000000000000047,25.441690464342165967
0.210000000000000048,24.761260632053080144
0.211000000000000049,24.091481102961186167
0.212000000000000050,23.432282961923785791
0.213000000000000050,22.783602011614711103
0.214000000000000051,22.145380938042951158
0.215000000000000052,21.517570981879789116
0.216000000000000053,20.900133112704214255
0.217000000000000054,20.293038718799298437
0.218000000000000055,19.696269837813233039
0.219000000000000056,19.109818963572230643
0.220000000000000057,18.533688471784362406
0.221000000000000058,17.967889712537036928
0.222000000000000058,17.412441820609139143
0.223000000000000059,16.867370295960125048
0.224000000000000060,16.332705406578622132
0.225000000000000061,15.808480464429365497
0.226000000000000062,15.294730022770352207
0.227000000000000063,14.791488039845367197
0.228000000000000064,14.298786050096847333
0.229000000000000065,13.816651379770565455
0.230000000000000066,13.345105439261653046
0.231000000000000066,12.884162119916714673
0.232000000000000067,12.433826318380091891
0.233000000000000068,11.994092607049612553
0.234000000000000069,11.564944064869154161
0.235000000000000070,11.146351278593090939
0.236000000000000071,10.738271520858976515
0.237000000000000072,10.340648107930942246
0.238000000000000073,9.953409936850238893
0.239000000000000073,9.576471198961032272
0.240000000000000074,9.209731264369462878
0.241000000000000075,8.853074729839860879
0.242000000000000076,8.506371620920029741
0.243000000000000077,8.169477737702944609
0.244000000000000078,7.842235132555662069
0.245000000000000079,7.524472707355452705
0.246000000000000080,7.216006917244742525
0.247000000000000081,6.916642567624863958
0.248000000000000081,6.626173691029674906
0.249000000000000082,6.344384490628391049
0.250000000000000111,6.071050337377394079
0.251000000000000112,5.805938808250983740
0.252000000000000113,5.548810753506757898
0.253000000000000114,5.299421381564018318
0.254000000000000115,5.057521350770239010
0.255000000000000115,4.822857858086580407
0.256000000000000116,4.595175715519443926
0.257000000000000117,4.374218405947853050
0.258000000000000118,4.159729110832620869
0.259000000000000119,3.951451703130294479
0.260000000000000120,3.749131699563331033
0.261000000000000121,3.552517167209391147
0.262000000000000122,3.361359580158407745
0.263000000000000123,3.175414622741759452
0.264000000000000123,2.994442936556793722
0.265000000000000124,2.818210809189740651
0.266000000000000125,2.646490803176495099
0.267000000000000126,2.479062324332940825
0.268000000000000127,2.315712129131910935
0.269000000000000128,2.156234771303338960
0.270000000000000129,2.000432988286345193
0.271000000000000130,1.848118028568115134
0.272000000000000131,1.699109921305527182
0.273000000000000131,1.553237689942332356
0.274000000000000132,1.410339511809504787
0.275000000000000133,1.270262825930465578
0.276000000000000134,1.132864391448784813
0.277000000000000135,0.998010299255794764
0.278000000000000136,0.865575939521042281
0.279000000000000137,0.735445927922925735
0.280000000000000138,0.607513993442055034
0.281000000000000139,0.481682830618077928
0.282000000000000139,0.357863919184885915
0.283000000000000140,0.235977313990988868
0.284000000000000141,0.115951408084099900
0.285000000000000142,-0.002277328206549023
0.286000000000000143,-0.118764629417586656
0.287000000000000144,-0.233558735630346875
0.288000000000000145,-0.346700709069459490
0.289000000000000146,-0.458224764104942950
0.290000000000000147,-0.568158608246339347
0.291000000000000147,-0.676523791827804089
0.292000000000000148,-0.783336064199626314
0.293000000000000149,-0.888605734361262334
0.294000000000000150,-0.992338034093938282
0.295000000000000151,-1.094533481775095574
0.296000000000000152,-1.195188245181868725
0.297000000000000153,-1.294294501715376189
0.298000000000000154,-1.391840794601228115
0.299000000000000155,-1.487812383743305933
0.300000000000000155,-1.582191590027295147
0.301000000000000156,-1.674958131986717502
0.302000000000000157,-1.766089453857417668
0.303000000000000158,-1.855561044155398021
0.304000000000000159,-1.943346744018247252
0.305000000000000160,-2.029419044650874859
0.306000000000000161,-2.113749373312619362
0.307000000000000162,-2.196308367374101511
0.308000000000000163,-2.277066136058752299
0.309000000000000163,-2.355992509565674631
0.310000000000000164,-2.433057275347251469
0.311000000000000165,-2.508230401386655650
0.312000000000000166,-2.581482246387496904
0.313000000000000167,-2.652783756849875996
0.314000000000000168,-2.722106651064540639
0.315000000000000169,-2.789423590109642692
0.316000000000000170,-2.854708335982929057
0.317000000000000171,-2.917935897046029847
0.318000000000000171,-2.979082660997268928
0.319000000000000172,-3.038126515625254598
0.320000000000000173,-3.095046957627080708
0.321000000000000174,-3.149825189803225900
0.322000000000000175,-3.202444206965866957
0.323000000000000176,-3.252888870918419606
0.324000000000000177,-3.301145974882401468
0.325000000000000178,-3.347204297762574665
0.326000000000000179,-3.391054648654017178
0.327000000000000179,-3.432689902004025129
0.328000000000000180,-3.472105023849371808
0.329000000000000181,-3.509297089554306748
0.330000000000000182,-3.544265293477447898
0.331000000000000183,-3.577010950996939442
0.332000000000000184,-3.607537493322134026
0.333000000000000185,-3.635850455517780855
0.334000000000000186,-3.661957458162669266
0.335000000000000187,-3.685868183059410885
0.336000000000000187,-3.707594343405576698
0.337000000000000188,-3.727149648828673723
0.338000000000000189,-3.744549765679114905
0.339000000000000190,-3.759812272965800783
0.340000000000000191,-3.772956614308716095
0.341000000000000192,-3.784004046272426702
0.342000000000000193,-3.792977583432732391
0.343000000000000194,-3.799901940517273147
0.344000000000000195,-3.804803471948359661
0.345000000000000195,-3.807710109104345264
0.346000000000000196,-3.808651295602723419
0.347000000000000197,-3.807657920895649362
0.348000000000000198,-3.804762252455589078
0.349000000000000199,-3.799997866815781666
0.350000000000000200,-3.793399579717463777
0.351000000000000201,-3.785003375602751241
0.352000000000000202,-3.774846336679474668
0.353000000000000203,-3.762966571771607871
0.354000000000000203,-3.749403145156544603
0.355000000000000204,-3.734196005578146238
0.356000000000000205,-3.717385915612713809
0.357000000000000206,-3.699014381553234365
0.358000000000000207,-3.679123583965677735
0.359000000000000208,-3.657756309060341771
0.360000000000000209,-3.634955881010120127
0.361000000000000210,-3.610766095337269554
0.362000000000000210,-3.585231153480076927
0.363000000000000211,-3.558395598641038937
0.364000000000000212,-3.530304253008802018
0.365000000000000213,-3.501002156436931134
0.366000000000000214,-3.470534506654043838
0.367000000000000215,-3.438946601071305675
0.368000000000000216,-3.406283780245566106
0.369000000000000217,-3.372591373048534624
0.370000000000000218,-3.337914643585417451
0.371000000000000218,-3.302298739899293345
0.372000000000000219,-3.265788644491191661
0.373000000000000220,-3.228429126679503103
0.374000000000000221,-3.190264696816586643
0.375000000000000222,-3.151339562374787739
0.376000000000000223,-3.111697585909130481
0.377000000000000224,-3.071382244898812175
0.378000000000000225,-3.030436593465220430
0.379000000000000226,-2.988903225959883336
0.380000000000000226,-2.946824242411846928
0.381000000000000227,-2.904241215820099864
0.382000000000000228,-2.861195161273546894
0.383000000000000229,-2.817726506877593184
0.384000000000000230,-2.773875066463609151
0.385000000000000231,-2.729680014055001713
0.386000000000000232,-2.685179860060939117
0.387000000000000233,-2.640412429166838493
0.388000000000000234,-2.595414839888497305
0.389000000000000234,-2.550223485755210184
0.390000000000000235,-2.504874018085369247
0.391000000000000236,-2.459401330316890899
0.392000000000000237,-2.413839543853347980
0.393000000000000238,-2.368221995385864975
0.394000000000000239,-2.322581225649694048
0.395000000000000240,-2.276948969573852288
0.396000000000000241,-2.231356147781474952
0.397000000000000242,-2.185832859398024741
0.398000000000000242,-2.140408376124339984
0.399000000000000243,-2.095111137531037393
0.400000000000000244,-2.049968747530782398
0.401000000000000245,-2.005007971985021342
0.402000000000000246,-1.960254737401612157
0.403000000000000247,-1.915734130680144975
0.404000000000000248,-1.871470399861977496
0.405000000000000249,-1.827486955842248406
0.406000000000000250,-1.783806375001614430
0.407000000000000250,-1.740450402715909561
0.408000000000000251,-1.697439957702395530
0.409000000000000252,-1.654795137161967578
0.410000000000000253,-1.612535222677161428
0.411000000000000254,-1.570678686826628701
0.412000000000000255,-1.529243200477349074
0.413000000000000256,-1.488245640716693519
0.414000000000000257,-1.447702099387130126
0.415000000000000258,-1.407627892187320651
0.416000000000000258,-1.368037568304034224
0.417000000000000259,-1.328944920540293229
0.418000000000000260,-1.290362995905977250
0.419000000000000261,-1.252304106637996073
0.420000000000000262,-1.214779841618101930
0.421000000000000263,-1.177801078157265202
0.422000000000000264,-1.141377994116491656
0.423000000000000265,-1.105520080334823740
0.424000000000000266,-1.070236153336366236
0.425000000000000266,-1.035534368288807849
0.426000000000000267,-1.001422232187149763
0.427000000000000268,-0.967906617237038747
0.428000000000000269,-0.934993774413126699
0.429000000000000270,-0.902689347168810441
0.430000000000000271,-0.870998385274460718
0.431000000000000272,-0.839925358762333429
0.432000000000000273,-0.809474171957075272
0.433000000000000274,-0.779648177571702794
0.434000000000000274,-0.750450190849714316
0.435000000000000275,-0.721882503734903813
0.436000000000000276,-0.693946899051233190
0.437000000000000277,-0.666644664675903442
0.438000000000000278,-0.639976607689629384
0.439000000000000279,-0.613943068488863930
0.440000000000000280,-0.588543934845439987
0.441000000000000281,-0.563778655899906722
0.442000000000000282,-0.539646256075575481
0.443000000000000282,-0.516145348900857392
0.444000000000000283,-0.493274150728401417
0.445000000000000284,-0.471030494339991279
0.446000000000000285,-0.449411842426886365
0.447000000000000286,-0.428415300936076160
0.448000000000000287,-0.408037632273221984
0.449000000000000288,-0.388275268354005665
0.450000000000000289,-0.369124323495895967
0.451000000000000290,-0.350580607143096579
0.452000000000000290,-0.332639636417892237
0.453000000000000291,-0.315296648492142118
0.454000000000000292,-0.298546612773217424
0.455000000000000293,-0.282384242899109850
0.456000000000000294,-0.266804008537965820
0.457000000000000295,-0.251800146987714690
0.458000000000000296,-0.237366674571918956
0.459000000000000297,-0.223497397828375549
0.460000000000000298,-0.210185924487424458
0.461000000000000298,-0.197425674237284909
0.462000000000000299,-0.185209889274136175
0.463000000000000300,-0.173531644634963594
0.464000000000000301,-0.162383858311613255
0.465000000000000302,-0.151759301144755748
0.466000000000000303,-0.141650606496773357
0.467000000000000304,-0.132050279702919215
0.468000000000000305,-0.122950707300377271
0.469000000000000306,-0.114344166035043465
0.470000000000000306,-0.106222831646236096
0.471000000000000307,-0.098578787429636147
0.472000000000000308,-0.091404032579129435
0.473000000000000309,-0.084690490308321098
0.474000000000000310,-0.078430015752787546
0.475000000000000311,-0.072614403654253729
0.476000000000000312,-0.067235395828152522
0.477000000000000313,-0.062284688416072508
0.478000000000000314,-0.057753938924885562
0.479000000000000314,-0.053634773054445438
0.480000000000000315,-0.049918791315831081
0.481000000000000316,-0.046597575442382654
0.482000000000000317,-0.043662694595737725
0.483000000000000318,-0.041105711369320286
0.484000000000000319,-0.038918187591758510
0.485000000000000320,-0.037091689932862180
0.486000000000000321,-0.035617795314822252
0.487000000000000322,-0.034488096131439619
0.488000000000000322,-0.033694205278191489
0.489000000000000323,-0.033227760996107844
0.490000000000000324,-0.033080431532388668
0.491000000000000325,-0.033243919620827511
0.492000000000000326,-0.033709966785094261
0.493000000000000327,-0.034470357468032689
0.494000000000000328,-0.035516922990122012
0.495000000000000329,-0.036841545340282944
0.496000000000000330,-0.038436160802268457
0.497000000000000330,-0.040292763419878599
0.498000000000000331,-0.042403408304233045
0.499000000000000332,-0.044760214786410346
0.500000000000000333,-0.047355369418713031
0.501000000000000334,-0.050181128827827437
0.502000000000000335,-0.053229822423200734
0.503000000000000336,-0.056493854963879861
0.504000000000000337,-0.059965708987105536
0.505000000000000338,-0.063637947101922249
0.506000000000000338,-0.067503214151058505
0.507000000000000339,-0.071554239244305637
0.508000000000000340,-0.075783837666616935
0.509000000000000341,-0.080184912664135577
0.510000000000000342,-0.084750457111299665
0.511000000000000343,-0.089473555062199811
0.512000000000000344,-0.094347383189284859
0.513000000000000345,-0.099365212112520473
0.514000000000000346,-0.104520407622070266
0.515000000000000346,-0.109806431797491527
0.516000000000000347,-0.115216844026463899
0.517000000000000348,-0.120745301926016443
0.518000000000000349,-0.126385562169130022
0.519000000000000350,-0.132131481219629421
0.520000000000000351,-0.137977015978197171
0.521000000000000352,-0.143916224342301585
0.522000000000000353,-0.149943265682792759
0.523000000000000353,-0.156052401239896721
0.524000000000000354,-0.162237994441258471
0.525000000000000355,-0.168494511144690134
0.526000000000000356,-0.174816519808161319
0.527000000000000357,-0.181198691589630340
0.528000000000000358,-0.187635800379154949
0.529000000000000359,-0.194122722765762090
0.530000000000000360,-0.200654437941463815
0.531000000000000361,-0.207226027544783614
0.532000000000000361,-0.213832675446093662
0.533000000000000362,-0.220469667477039361
0.534000000000000363,-0.227132391106244697
0.535000000000000364,-0.233816335063499720
0.536000000000000365,-0.240517088914520005
0.537000000000000366,-0.247230342588391855
0.538000000000000367,-0.253951885859689475
0.539000000000000368,-0.260677607787313192
0.540000000000000369,-0.267403496111915884
0.541000000000000369,-0.274125636613879176
0.542000000000000370,-0.280840212433641656
0.543000000000000371,-0.287543503356205377
0.544000000000000372,-0.294231885061590204
0.545000000000000373,-0.300901828342930777
0.546000000000000374,-0.307549898293903889
0.547000000000000375,-0.314172753467114263
0.548000000000000376,-0.320767145005035004
0.549000000000000377,-0.327329915745026068
0.550000000000000377,-0.333857999299960517
0.551000000000000378,-0.340348419115909406
0.552000000000000379,-0.346798287508302550
0.553000000000000380,-0.353204804677967388
0.554000000000000381,-0.359565257708360619
0.555000000000000382,-0.365877019545332416
0.556000000000000383,-0.372137547960650183
0.557000000000000384,-0.378344384500548858
0.558000000000000385,-0.384495153420462032
0.559000000000000385,-0.390587560607128625
0.560000000000000386,-0.396619392489151179
0.561000000000000387,-0.402588514937129216
0.562000000000000388,-0.408492872154381015
0.563000000000000389,-0.414330485559309847
0.564000000000000390,-0.420099452660349537
0.565000000000000391,-0.425797945924479837
0.566000000000000392,-0.431424211640199229
0.567000000000000393,-0.436976568775864382
0.568000000000000393,-0.442453407834223877
0.569000000000000394,-0.447853189704002896
0.570000000000000395,-0.453174444509301555
0.571000000000000396,-0.458415770457590632
0.572000000000000397,-0.463575832687056100
0.573000000000000398,-0.468653362113955141
0.574000000000000399,-0.473647154280726734
0.575000000000000400,-0.478556068205463425
0.576000000000000401,-0.483379025233394377
0.577000000000000401,-0.488115007891000208
0.578000000000000402,-0.492763058743312332
0.579000000000000403,-0.497322279254955035
0.580000000000000404,-0.501791828655497651
0.581000000000000405,-0.506170922809577761
0.582000000000000406,-0.510458833092320208
0.583000000000000407,-0.514654885270500406
0.584000000000000408,-0.518758458389897426
0.585000000000000409,-0.522768983669261722
0.586000000000000409,-0.526685943401306589
0.587000000000000410,-0.530508869861101795
0.588000000000000411,-0.534237344222223909
0.589000000000000412,-0.537870995481041447
0.590000000000000413,-0.541409499389416071
0.591000000000000414,-0.544852577396174875
0.592000000000000415,-0.548199995597622558
0.593000000000000416,-0.551451563697368474
0.594000000000000417,-0.554607133975745015
0.595000000000000417,-0.557666600269056234
0.596000000000000418,-0.560629896958869667
0.597000000000000419,-0.563496997971602021
0.598000000000000420,-0.566267915788558396
0.599000000000000421,-0.568942700466646079
0.600000000000000422,-0.571521438669921555
0.601000000000000423,-0.574004252712121188
0.602000000000000424,-0.576391299610349073
0.603000000000000425,-0.578682770150046988
0.604000000000000425,-0.580878887961349122
0.605000000000000426,-0.582979908606964914
0.606000000000000427,-0.584986118681698475
0.607000000000000428,-0.586897834923624795
0.608000000000000429,-0.588715403337134457
0.609000000000000430,-0.590439198327750936
0.610000000000000431,-0.592069621848951066
0.611000000000000432,-0.593607102560910316
0.612000000000000433,-0.595052095001275427
0.613000000000000433,-0.596405078768009744
0.614000000000000434,-0.597666557714301994
