# CaO001_CS-6332-AC
# h[nm],U(h)[kJ/mol]
0.200000000000000011,57.451159030684856077
0.201000000000000012,56.747144326889952026
0.202000000000000013,55.638013949554405713
0.203000000000000014,54.357649990776266691
0.204000000000000015,53.032414726746026190
0.205000000000000016,51.722969970673645435
0.206000000000000016,50.451918241355507178
0.207000000000000017,49.221569645905091761
0.208000000000000018,48.024941815194004846
0.209000000000000019,46.852214061435233816
0.210000000000000020,45.694204883459249800
0.211000000000000021,44.543965727831121626
0.212000000000000022,43.397239092974871255
0.213000000000000023,42.252281891581731088
0.214000000000000024,41.109379926081274448
0.215000000000000024,39.970257138070351743
0.216000000000000025,38.837499530615787080
0.217000000000000026,37.714057562698016568
0.218000000000000027,36.602854391095974051
0.219000000000000028,35.506504704953975704
0.220000000000000029,34.427135765330874051
0.221000000000000030,33.366295517038899732
0.222000000000000031,32.324930058680777734
0.223000000000000032,31.303412769583218278
0.224000000000000032,30.301608911032708704
0.225000000000000033,29.318961805899554918
0.226000000000000034,28.354589269818024633
0.227000000000000035,27.407381512501494569
0.228000000000000036,26.476094069051889335
0.229000000000000037,25.559431363946590210
0.230000000000000038,24.656118217887858179
0.231000000000000039,23.764957979897157969
0.232000000000000040,22.884877026286666535
0.233000000000000040,22.014956149026744470
0.234000000000000041,21.154449898511828110
0.235000000000000042,20.302795290650998083
0.236000000000000043,19.459611474483082816
0.237000000000000044,18.624692019498219508
0.238000000000000045,17.797991452530048662
0.239000000000000046,16.979607578847790705
0.240000000000000047,16.169760982776004710
0.241000000000000048,15.368772937460288830
0.242000000000000048,14.577042775151591414
0.243000000000000049,13.795025589187668302
0.244000000000000050,13.023210964500719911
0.245000000000000051,12.262103270426212731
0.246000000000000052,11.512203901402717321
0.247000000000000053,10.773995719881559907
0.248000000000000054,10.047929842291299707
0.249000000000000055,9.334414813215929030
0.250000000000000056,8.633808134390333677
0.251000000000000056,7.946410052585333617
0.252000000000000057,7.272459462548182429
0.253000000000000058,6.612131746320055292
0.254000000000000059,5.965538346833660910
0.255000000000000060,5.332727860077026705
0.256000000000000061,4.713688424721366843
0.257000000000000062,4.108351189479263255
0.258000000000000063,3.516594645229362381
0.259000000000000064,2.938249619895454412
0.260000000000000064,2.373104748120536733
0.261000000000000065,1.820912243991147594
0.262000000000000066,1.281393822636164526
0.263000000000000067,0.754246634774437985
0.264000000000000068,0.239149096655541238
0.265000000000000069,-0.264233484121836060
0.266000000000000070,-0.756243569071510913
0.267000000000000071,-1.237226401315351776
0.268000000000000071,-1.707525420608895006
0.269000000000000072,-2.167478117415359229
0.270000000000000073,-2.617412349924958637
0.271000000000000074,-3.057643136685253449
0.272000000000000075,-3.488469927665325709
0.273000000000000076,-3.910174348088363949
0.274000000000000077,-4.323018402181500797
0.275000000000000078,-4.727243118035584502
0.276000000000000079,-5.123067609958192214
0.277000000000000079,-5.510688530950323738
0.278000000000000080,-5.890279885142151173
0.279000000000000081,-6.261993168091912310
0.280000000000000082,-6.625957801683949988
0.281000000000000083,-6.982281829864680489
0.282000000000000084,-7.331052841536118692
0.283000000000000085,-7.672339087500096078
0.284000000000000086,-8.006190759332389106
0.285000000000000087,-8.332641399387593850
0.286000000000000087,-8.651709412727521809
0.287000000000000088,-8.963399653563858038
0.288000000000000089,-9.267705060755082158
0.289000000000000090,-9.564608318949733956
0.290000000000000091,-9.854083524077685396
0.291000000000000092,-10.136097834023578557
0.292000000000000093,-10.410613087436926705
0.293000000000000094,-10.677587375716189655
0.294000000000000095,-10.936976555226248564
0.295000000000000095,-11.188735688752164066
0.296000000000000096,-11.432820407041267785
0.297000000000000097,-11.669188183030906103
0.298000000000000098,-11.897799512990875570
0.299000000000000099,-12.118619000323583634
0.300000000000000100,-12.331616339156783013
0.301000000000000101,-12.536767196133908442
0.302000000000000102,-12.734053989953817876
0.303000000000000103,-12.923466569240270374
0.304000000000000103,-13.105002790231418786
0.305000000000000104,-13.278668996578153028
0.306000000000000105,-13.444480404230919390
0.307000000000000106,-13.602461394982508835
0.308000000000000107,-13.752645722727461219
0.309000000000000108,-13.895076636900679290
0.310000000000000109,-14.029806927877947587
0.311000000000000110,-14.156898899362564848
0.312000000000000111,-14.276424272955836159
0.313000000000000111,-14.388464030216521650
0.314000000000000112,-14.493108197566055395
0.315000000000000113,-14.590455579395349872
0.316000000000000114,-14.680613444683292101
0.317000000000000115,-14.763697172350413567
0.318000000000000116,-14.839829860450615584
0.319000000000000117,-14.909141904152681590
0.320000000000000118,-14.971770547287471587
0.321000000000000119,-15.027859412039806131
0.322000000000000119,-15.077558011149928774
0.323000000000000120,-15.121021246762401447
0.324000000000000121,-15.158408899823367477
0.325000000000000122,-15.189885113682672468
0.326000000000000123,-15.215617875309467522
0.327000000000000124,-15.235778497279573784
0.328000000000000125,-15.250541103443534752
0.329000000000000126,-15.260082120936743877
0.330000000000000127,-15.264579780949716792
0.331000000000000127,-15.264213630438712599
0.332000000000000128,-15.259164056725392555
0.333000000000000129,-15.249611826710875562
0.334000000000000130,-15.235737642213816656
0.335000000000000131,-15.217721712737116491
0.336000000000000132,-15.195743346770631987
0.337000000000000133,-15.169980562552151326
0.338000000000000134,-15.140609719032799063
0.339000000000000135,-15.107805167628086451
0.340000000000000135,-15.071738925181808355
0.341000000000000136,-15.032580368425893624
0.342000000000000137,-14.990495950086696553
0.343000000000000138,-14.945648936665046236
0.344000000000000139,-14.898199167805296739
0.345000000000000140,-14.848302837065904924
0.346000000000000141,-14.796112293811072291
0.347000000000000142,-14.741775865859306549
0.348000000000000143,-14.685437702450329311
0.349000000000000143,-14.627237637025141126
0.350000000000000144,-14.567311069256334122
0.351000000000000145,-14.505788865715160796
0.352000000000000146,-14.442797278518895610
0.353000000000000147,-14.378457881265905627
0.354000000000000148,-14.312887521535955671
0.355000000000000149,-14.246198289209527132
0.356000000000000150,-14.178497499842020346
0.357000000000000151,-14.109887692315506769
0.358000000000000151,-14.040466639982721375
0.359000000000000152,-13.970327374514127428
0.360000000000000153,-13.899558221659384927
0.361000000000000154,-13.828242848138293297
0.362000000000000155,-13.756460318883728888
0.363000000000000156,-13.684285163869414959
0.364000000000000157,-13.611787453768064537
0.365000000000000158,-13.539032883701281662
0.366000000000000159,-13.466082864359512072
0.367000000000000159,-13.392994619789917010
0.368000000000000160,-13.319821291170878652
0.369000000000000161,-13.246612045913888522
0.370000000000000162,-13.173412191456870701
0.371000000000000163,-13.100263293137459186
0.372000000000000164,-13.027203295559157681
0.373000000000000165,-12.954266646889445624
0.374000000000000166,-12.881484425554017292
0.375000000000000167,-12.808884468818073188
0.376000000000000167,-12.736491502771277951
0.377000000000000168,-12.664327273259427642
0.378000000000000169,-12.592410677331631774
0.379000000000000170,-12.520757894797885257
0.380000000000000171,-12.449382519516964507
0.381000000000000172,-12.378295690059882617
0.382000000000000173,-12.307506219418421267
0.383000000000000174,-12.237020723452442184
0.384000000000000175,-12.166843747792887243
0.385000000000000175,-12.096977892940051547
0.386000000000000176,-12.027423937319003500
0.387000000000000177,-11.958180958074834166
0.388000000000000178,-11.889246449411585260
0.389000000000000179,-11.820616438297809836
0.390000000000000180,-11.752285597381259663
0.391000000000000181,-11.684247354973013699
0.392000000000000182,-11.616494001978907136
0.393000000000000183,-11.549016795672631730
0.394000000000000183,-11.481806060220623777
0.395000000000000184,-11.414851283883862720
0.396000000000000185,-11.348141212835832548
0.397000000000000186,-11.281663941549215480
0.398000000000000187,-11.215406999716650560
0.399000000000000188,-11.149357435682510697
0.400000000000000189,-11.083501896373956441
0.401000000000000190,-11.017826703729713955
0.402000000000000191,-10.952317927634972250
0.403000000000000191,-10.886961455379303487
0.404000000000000192,-10.821743057663420373
0.405000000000000193,-10.756648451187746929
0.406000000000000194,-10.691663357863117056
0.407000000000000195,-10.626773560690381260
0.408000000000000196,-10.561964956361348911
0.409000000000000197,-10.497223604639117411
0.410000000000000198,-10.432535774580538046
0.411000000000000199,-10.367887987667735672
0.412000000000000199,-10.303267057919692107
0.413000000000000200,-10.238660129058047232
0.414000000000000201,-10.174054708804384006
0.415000000000000202,-10.109438700388604815
0.416000000000000203,-10.044800431350372705
0.417000000000000204,-9.980128679717157780
0.418000000000000205,-9.915412697643997575
0.419000000000000206,-9.850642232601163784
0.420000000000000207,-9.785807546196574336
0.421000000000000207,-9.720899430720697509
0.422000000000000208,-9.655909223501353722
0.423000000000000209,-9.590828819156454799
0.424000000000000210,-9.525650679832088130
0.425000000000000211,-9.460367843512946351
0.426000000000000212,-9.394973930491781644
0.427000000000000213,-9.329463148083261714
0.428000000000000214,-9.263830293667163929
0.429000000000000214,-9.198070756144229421
0.430000000000000215,-9.132180515887071692
0.431000000000000216,-9.066156143267082967
0.432000000000000217,-8.999994795836565586
0.433000000000000218,-8.933694214244026099
0.434000000000000219,-8.867252716958720526
0.435000000000000220,-8.800669193878768226
0.436000000000000221,-8.733943098895394996
0.437000000000000222,-8.667074441483872960
0.438000000000000222,-8.600063777389969744
0.439000000000000223,-8.532912198478529220
0.440000000000000224,-8.465621321808953326
0.441000000000000225,-8.398193278000242401
0.442000000000000226,-8.330630698946260182
0.443000000000000227,-8.262936704939752630
0.444000000000000228,-8.195114891261670920
0.445000000000000229,-8.127169314290210167
0.446000000000000230,-8.059104477181895376
0.447000000000000230,-7.990925315175118726
0.448000000000000231,-7.922637180564400694
0.449000000000000232,-7.854245827391491908
0.450000000000000233,-7.785757395897856092
0.451000000000000234,-7.717178396780512983
0.452000000000000235,-7.648515695291891348
0.453000000000000236,-7.579776495221840271
0.454000000000000237,-7.510968322798648344
0.455000000000000238,-7.442099010543506310
0.456000000000000238,-7.373176681111566211
0.457000000000000239,-7.304209731150517193
0.458000000000000240,-7.235206815206348452
0.459000000000000241,-7.166176829703729823
0.460000000000000242,-7.097128897027429772
0.461000000000000243,-7.028072349728961221
0.462000000000000244,-6.959016714881731680
0.463000000000000245,-6.889971698605757311
0.464000000000000246,-6.820947170782313052
0.465000000000000246,-6.751953149976816171
0.466000000000000247,-6.682999788587265400
0.467000000000000248,-6.614097358234071855
0.468000000000000249,-6.545256235405967793
0.469000000000000250,-6.476486887375239476
0.470000000000000251,-6.407799858394632508
0.471000000000000252,-6.339205756186816032
0.472000000000000253,-6.270715238736558561
0.473000000000000254,-6.202339001394337359
0.474000000000000254,-6.134087764299453127
0.475000000000000255,-6.065972260129457005
0.476000000000000256,-5.998003222181997884
0.477000000000000257,-5.930191372794225479
0.478000000000000258,-5.862547412103991107
0.479000000000000259,-5.795082007156411308
0.480000000000000260,-5.727805781358550341
0.481000000000000261,-5.660729304284127572
0.482000000000000262,-5.593863081829729467
0.483000000000000262,-5.527217546723145247
0.484000000000000263,-5.460803049383856411
0.485000000000000264,-5.394629849135262667
0.486000000000000265,-5.328708105767510972
0.487000000000000266,-5.263047871449400006
0.488000000000000267,-5.197659082987270196
0.489000000000000268,-5.132551554428461671
0.490000000000000269,-5.067734970006243067
0.491000000000000270,-5.003218877423108779
0.492000000000000270,-4.939012681468519794
0.493000000000000271,-4.875125637967238745
0.494000000000000272,-4.811566848053835166
0.495000000000000273,-4.748345252768625180
0.496000000000000274,-4.685469627970379136
0.497000000000000275,-4.622948579560334892
0.498000000000000276,-4.560790539012391065
0.499000000000000277,-4.499003759203762165
0.500000000000000222,-4.437596310540333988
0.501000000000000334,-4.376576077370850193
0.502000000000000224,-4.315950754683831825
0.503000000000000336,-4.255727845080920169
0.504000000000000226,-4.195914656020567790
0.505000000000000338,-4.136518297325324056
0.506000000000000227,-4.077545678946616015
0.507000000000000339,-4.019003508980061312
0.508000000000000229,-3.960898291925077253
0.509000000000000341,-3.903236327181762277
0.510000000000000231,-3.846023707778797096
0.511000000000000343,-3.789266319325185428
0.512000000000000233,-3.732969839179593130
0.513000000000000345,-3.677139735830180278
0.514000000000000234,-3.621781268478676985
0.515000000000000346,-3.566899486821536236
0.516000000000000236,-3.512499231022077062
0.517000000000000348,-3.458585131866549034
0.518000000000000238,-3.405161611098005636
0.519000000000000350,-3.352232881921107577
0.520000000000000240,-3.299802949671803098
0.521000000000000352,-3.247875612645253707
0.522000000000000242,-3.196454463075929731
0.523000000000000353,-3.145542888263494596
0.524000000000000243,-3.095144071838555000
0.525000000000000355,-3.045260995162058837
0.526000000000000245,-2.995896438852612587
0.527000000000000357,-2.947052984435620804
0.528000000000000247,-2.898733016108816507
0.529000000000000359,-2.850938722618221899
0.530000000000000249,-2.803672099239291615
0.531000000000000361,-2.756934949857567041
0.532000000000000250,-2.710728889143758646
0.533000000000000362,-2.665055344817789162
0.534000000000000252,-2.619915559996966792
0.535000000000000364,-2.575310595623047316
0.536000000000000254,-2.531241332963595436
0.537000000000000366,-2.487708476182546313
0.538000000000000256,-2.444712554975742691
0.539000000000000368,-2.402253927266484013
0.540000000000000258,-2.360332781957120041
0.541000000000000369,-2.318949141731973640
0.542000000000000259,-2.278102865907826846
0.543000000000000371,-2.237793653327558641
0.544000000000000261,-2.198021045293255149
0.545000000000000373,-2.158784428534797684
0.546000000000000263,-2.120083038210372361
0.547000000000000375,-2.081915960935055487
0.548000000000000265,-2.044282137834366075
0.549000000000000377,-2.007180367618973005
0.550000000000000266,-1.970609309677692211
0.551000000000000378,-1.934567487185320234
0.552000000000000268,-1.899053290222465051
0.553000000000000380,-1.864064978904273362
0.554000000000000270,-1.829600686515388430
0.555000000000000382,-1.795658422648201080
0.556000000000000272,-1.762236076342017288
0.557000000000000384,-1.729331419220323296
0.558000000000000274,-1.696942108624030165
0.559000000000000385,-1.665065690738056547
0.560000000000000275,-1.633699603709295900
0.561000000000000387,-1.602841180753594275
0.562000000000000277,-1.572487653249841966
0.563000000000000389,-1.542636153819118450
0.564000000000000279,-1.513283719387105375
0.565000000000000391,-1.484427294227880667
0.566000000000000281,-1.456063732987487480
0.567000000000000393,-1.428189803685552706
0.568000000000000282,-1.400802190693565041
0.569000000000000394,-1.373897497688135294
0.570000000000000284,-1.347472250578099162
0.571000000000000396,-1.321522900403920620
0.572000000000000286,-1.296045826208377161
0.573000000000000398,-1.271037337877134688
0.574000000000000288,-1.246493678948314754
0.575000000000000400,-1.222411029389906867
0.576000000000000290,-1.198785508344095474
0.577000000000000401,-1.175613176837593921
0.578000000000000291,-1.152890040457177578
0.579000000000000403,-1.130612051989559053
0.580000000000000293,-1.108775114025001507
0.581000000000000405,-1.087375081523872522
0.582000000000000295,-1.066407764345659981
0.583000000000000407,-1.045868929739767639
0.584000000000000297,-1.025754304797697136
0.585000000000000409,-1.006059578866068671
0.586000000000000298,-0.986780405920147152
0.587000000000000410,-0.967912406897445399
0.588000000000000300,-0.949451171991154474
0.589000000000000412,-0.931392262903046664
0.590000000000000302,-0.913731215055699542
0.591000000000000414,-0.896463539763806994
0.592000000000000304,-0.879584726364422531
0.593000000000000416,-0.863090244306013554
0.594000000000000306,-0.846975545196293034
0.595000000000000417,-0.831236064808713926
0.596000000000000307,-0.815867225047654188
0.597000000000000419,-0.800864435872304825
0.598000000000000309,-0.786223097179325037
0.599000000000000421,-0.771938600644271888
0.600000000000000311,-0.758006331522028454
0.601000000000000423,-0.744421670406226754
0.602000000000000313,-0.731179994947970702
0.603000000000000425,-0.718276681533853156
0.604000000000000314,-0.705707106923708194
0.605000000000000426,-0.693466649848069605
0.606000000000000316,-0.681550692565815908
0.607000000000000428,-0.669954622382072484
0.608000000000000318,-0.658673833126823594
0.609000000000000430,-0.647703726594396789
0.610000000000000320,-0.637039713944254737
0.611000000000000432,-0.626677217063344338
0.612000000000000322,-0.616611669890412717
0.613000000000000433,-0.606838519702619261
0.614000000000000323,-0.597353228364850941
0.615000000000000435,-0.588151273542108388
0.616000000000000325,-0.579228149875380738
0.617000000000000437,-0.570579370121413909
0.618000000000000327,-0.562200466256811970
0.619000000000000439,-0.554086990546871716
0.620000000000000329,-0.546234516579636287
0.621000000000000441,-0.538638640265584834
0.622000000000000330,-0.531294980803429184
0.623000000000000442,-0.524199181612472698
0.624000000000000332,-0.517346911232013706
0.625000000000000444,-0.510733864188261388
0.626000000000000334,-0.504355761829237137
0.627000000000000446,-0.498208353128165915
0.628000000000000336,-0.492287415455823663
0.629000000000000448,-0.486588755322339916
0.630000000000000338,-0.481108209088972505
0.631000000000000449,-0.475841643650302681
0.632000000000000339,-0.470784957087400979
0.633000000000000451,-0.465934079292422809
0.634000000000000341,-0.461284972565164153
0.635000000000000453,-0.456833632182068849
0.636000000000000343,-0.452576086938158872
0.637000000000000455,-0.448508399662463586
0.638000000000000345,-0.444626667707363588
0.639000000000000457,-0.440927023412402364
0.640000000000000346,-0.437405634543052702
0.641000000000000458,-0.434058704704930132
0.642000000000000348,-0.430882473733949278
0.643000000000000460,-0.427873218062918670
0.644000000000000350,-0.425027251065073775
0.645000000000000462,-0.422340923375017607
0.646000000000000352,-0.419810623187573451
0.647000000000000464,-0.417432776535015038
0.648000000000000353,-0.415203847543174187
0.649000000000000465,-0.413120338666877973
0.650000000000000355,-0.411178790905215918
0.651000000000000467,-0.409375783997064424
0.652000000000000357,-0.407707936597384357
0.653000000000000469,-0.406171906434704078
0.654000000000000359,-0.404764390450283895
0.655000000000000471,-0.403482124919365526
0.656000000000000361,-0.402321885555010195
0.657000000000000473,-0.401280487594920632
0.658000000000000362,-0.400354785871707086
0.659000000000000474,-0.399541674867013696
0.660000000000000364,-0.398838088749958852
