# CaO001_CS-6334-AC
# h[nm],U(h)[kJ/mol]
0.200000000000000011,50.605779307420206692
0.201000000000000012,50.121746331241304517
0.202000000000000013,49.041527108892772446
0.203000000000000014,47.710572386171769210
0.204000000000000015,46.317771203878514541
0.205000000000000016,44.955025815804233957
0.206000000000000016,43.657078350162223046
0.207000000000000017,42.427460820034163191
0.208000000000000018,41.254837400505529388
0.209000000000000019,40.122814334649568480
0.210000000000000020,39.015409269528866787
0.211000000000000021,37.919722193335523741
0.212000000000000022,36.826876248495111099
0.213000000000000023,35.731954142893734172
0.214000000000000024,34.633410929531109446
0.215000000000000024,33.532271022381515024
0.216000000000000025,32.431297197103930330
0.217000000000000026,31.334237532822431405
0.218000000000000027,30.245201996802450140
0.219000000000000028,29.168185656393507799
0.220000000000000029,28.106734431051183520
0.221000000000000030,27.063737570584276426
0.222000000000000031,26.041325555053880692
0.223000000000000032,25.040850636552242747
0.224000000000000032,24.062928220807926039
0.225000000000000033,23.107519637834592174
0.226000000000000034,22.174039848012490950
0.227000000000000035,21.261476798595889903
0.228000000000000036,20.368512190992341004
0.229000000000000037,19.493636172114076288
0.230000000000000038,18.635250840256823324
0.231000000000000039,17.791759430777052131
0.232000000000000040,16.961639628927422052
0.233000000000000040,16.143500677691587697
0.234000000000000041,15.336124849821633376
0.235000000000000042,14.538494482520926354
0.236000000000000043,13.749806177361204362
0.237000000000000044,12.969473991374391275
0.238000000000000045,12.197123527803649168
0.239000000000000046,11.432578811679739772
0.240000000000000047,10.675843735901143106
0.241000000000000048,9.927079712467861583
0.242000000000000048,9.186580980868551904
0.243000000000000049,8.454748827068456762
0.244000000000000050,7.732065764154721244
0.245000000000000051,7.019070528398261288
0.246000000000000052,6.316334558641720776
0.247000000000000053,5.624440456733869276
0.248000000000000054,4.943962774732667320
0.249000000000000055,4.275451341987738019
0.250000000000000056,3.619417232175784704
0.251000000000000056,2.976321376340480551
0.252000000000000057,2.346565751896041441
0.253000000000000058,1.730487017956849671
0.254000000000000059,1.128352422607849403
0.255000000000000060,0.540357776091867081
0.256000000000000061,-0.033372736399600457
0.257000000000000062,-0.592785139296309826
0.258000000000000063,-1.137892888177778117
0.259000000000000064,-1.668772963976045798
0.260000000000000064,-2.185561066534523533
0.261000000000000065,-2.688446121235839925
0.262000000000000066,-3.177664296579591152
0.263000000000000067,-3.653492712816343246
0.264000000000000068,-4.116243002815815899
0.265000000000000069,-4.566254866920145261
0.266000000000000070,-5.003889744144186302
0.267000000000000071,-5.429524703167150079
0.268000000000000071,-5.843546638446508901
0.269000000000000072,-6.246346839730302136
0.270000000000000073,-6.638315987426535614
0.271000000000000074,-7.019839611826929726
0.272000000000000075,-7.391294041144197635
0.273000000000000076,-7.753042851729658125
0.274000000000000077,-8.105433823682016481
0.275000000000000078,-8.448796396298657641
0.276000000000000079,-8.783439610398186659
0.277000000000000079,-9.109650518382290230
0.278000000000000080,-9.427693037916686336
0.279000000000000081,-9.737807221203791386
0.280000000000000082,-10.040208908892129358
0.281000000000000083,-10.335089735622052132
0.282000000000000084,-10.622617452943378780
0.283000000000000085,-10.902936534762821097
0.284000000000000086,-11.176169030495479717
0.285000000000000087,-11.442415631616132288
0.286000000000000087,-11.701756918253392925
0.287000000000000088,-11.954254753765374275
0.288000000000000089,-12.199953796810879325
0.289000000000000090,-12.438883102223323718
0.290000000000000091,-12.671057783947240694
0.291000000000000092,-12.896480715362262259
0.292000000000000093,-13.115144244449783884
0.293000000000000094,-13.327031903417189795
0.294000000000000095,-13.532120094548995226
0.295000000000000095,-13.730379736177246386
0.296000000000000096,-13.921777854729754154
0.297000000000000097,-14.106279110806895005
0.298000000000000098,-14.283847249139649094
0.299000000000000099,-14.454446464081481594
0.300000000000000100,-14.618042673975878643
0.301000000000000101,-14.774604699314338063
0.302000000000000102,-14.924105341051168594
0.303000000000000103,-15.066522356772216185
0.304000000000000103,-15.201839333621986583
0.305000000000000104,-15.330046457981509889
0.306000000000000105,-15.451141182859373657
0.307000000000000106,-15.565128794814004465
0.308000000000000107,-15.672022882972665769
0.309000000000000108,-15.771845713355412855
0.310000000000000109,-15.864628512257354487
0.311000000000000110,-15.950411662895120912
0.312000000000000111,-16.029244819890866580
0.313000000000000111,-16.101186946454628668
0.314000000000000112,-16.166306279340794561
0.315000000000000113,-16.224680226802426830
0.316000000000000114,-16.276395204855585774
0.317000000000000115,-16.321546417198774748
0.318000000000000116,-16.360237584118451082
0.319000000000000117,-16.392580625653476289
0.320000000000000118,-16.418695304196418761
0.321000000000000119,-16.438708831582040659
0.322000000000000119,-16.452755445557592395
0.323000000000000120,-16.460975960350861413
0.324000000000000121,-16.463517295853716149
0.325000000000000122,-16.460531989724909607
0.326000000000000123,-16.452177696490217329
0.327000000000000124,-16.438616677482780659
0.328000000000000125,-16.420015285225801449
0.329000000000000126,-16.396543445614732093
0.330000000000000127,-16.368374141010242795
0.331000000000000127,-16.335682897108259937
0.332000000000000128,-16.298647276210161294
0.333000000000000129,-16.257446379278221116
0.334000000000000130,-16.212260358927586879
0.335000000000000131,-16.163269945280070772
0.336000000000000132,-16.110655986385545191
0.337000000000000133,-16.054599004706297194
0.338000000000000134,-15.995278770957977343
0.339000000000000135,-15.932873896408557002
0.340000000000000135,-15.867561444554407757
0.341000000000000136,-15.799516562920493001
0.342000000000000137,-15.728912135569732555
0.343000000000000138,-15.655918456754998047
0.344000000000000139,-15.580702926006148701
0.345000000000000140,-15.503429764813461134
0.346000000000000141,-15.424259754947934553
0.347000000000000142,-15.343349998347894925
0.348000000000000143,-15.260853698400197231
0.349000000000000143,-15.176919962352002358
0.350000000000000144,-15.091693624506314464
0.351000000000000145,-15.005315089780040694
0.352000000000000146,-14.917920197137240379
0.353000000000000147,-14.829640102352247055
0.354000000000000148,-14.740601179506546359
0.355000000000000149,-14.650924940579878708
0.356000000000000150,-14.560727972459252655
0.357000000000000151,-14.470121890658962371
0.358000000000000151,-14.379213309020178357
0.359000000000000152,-14.288103824639497574
0.360000000000000153,-14.196890017261859285
0.361000000000000154,-14.105663462363960292
0.362000000000000155,-14.014510757149347242
0.363000000000000156,-13.923513558675399082
0.364000000000000157,-13.832748633335080868
0.365000000000000158,-13.742287916922530044
0.366000000000000159,-13.652198584520244040
0.367000000000000159,-13.562543129457456104
0.368000000000000160,-13.473379450603548690
0.369000000000000161,-13.384760947276060250
0.370000000000000162,-13.296736621061290506
0.371000000000000163,-13.209351183865098989
0.372000000000000164,-13.122645171532166586
0.373000000000000165,-13.036655062394832072
0.374000000000000166,-12.951413400134992315
0.375000000000000167,-12.866948920367192954
0.376000000000000167,-12.783286680375073985
0.377000000000000168,-12.700448191458644231
0.378000000000000169,-12.618451553374821827
0.379000000000000170,-12.537311590379443871
0.380000000000000171,-12.457039988404115860
0.381000000000000172,-12.377645432926913216
0.382000000000000173,-12.299133747120871263
0.383000000000000174,-12.221508029889520230
0.384000000000000175,-12.144768793422935360
0.385000000000000175,-12.068914099932163353
0.386000000000000176,-11.993939697243572340
0.387000000000000177,-11.919839152957546702
0.388000000000000178,-11.846603986898950112
0.389000000000000179,-11.774223801608100004
0.390000000000000180,-11.702686410642767711
0.391000000000000181,-11.631977964481841070
0.392000000000000182,-11.562083073841346703
0.393000000000000183,-11.492984930232410079
0.394000000000000183,-11.424665423609145165
0.395000000000000184,-11.357105256971975038
0.396000000000000185,-11.290284057808587903
0.397000000000000186,-11.224180486270771695
0.398000000000000187,-11.158772340000634671
0.399000000000000188,-11.094036655534061708
0.400000000000000189,-11.029949806222978381
0.401000000000000190,-10.966487596630999590
0.402000000000000191,-10.903625353369225337
0.403000000000000191,-10.841338012350295372
0.404000000000000192,-10.779600202449769242
0.405000000000000193,-10.718386325573858286
0.406000000000000194,-10.657670633141929528
0.407000000000000195,-10.597427299001086709
0.408000000000000196,-10.537630488798068740
0.409000000000000197,-10.478254425841253550
0.410000000000000198,-10.419273453492619907
0.411000000000000199,-10.360662094135621558
0.412000000000000199,-10.302395104770811329
0.413000000000000200,-10.244447529296424548
0.414000000000000201,-10.186794747535682149
0.415000000000000202,-10.129412521076947229
0.416000000000000203,-10.072277035996773265
0.417000000000000204,-10.015364942538994342
0.418000000000000205,-9.958653391826292278
0.419000000000000206,-9.902120069682950998
0.420000000000000207,-9.845743227649796481
0.421000000000000207,-9.789501711274311901
0.422000000000000208,-9.733374985760004705
0.423000000000000209,-9.677343159060786348
0.424000000000000210,-9.621387002506615715
0.425000000000000211,-9.565487969047413941
0.426000000000000212,-9.509628209202706017
0.427000000000000213,-9.453790584804270480
0.428000000000000214,-9.397958680619353800
0.429000000000000214,-9.342116813941235165
0.430000000000000215,-9.286250042233799462
0.431000000000000216,-9.230344168915886272
0.432000000000000217,-9.174385747370234157
0.433000000000000218,-9.118362083261079221
0.434000000000000219,-9.062261235243083135
0.435000000000000220,-9.006072014143162718
0.436000000000000221,-8.949783980695265484
0.437000000000000222,-8.893387441906728696
0.438000000000000222,-8.836873446133333587
0.439000000000000223,-8.780233776938354495
0.440000000000000224,-8.723460945809360823
0.441000000000000225,-8.666548183804559713
0.442000000000000226,-8.609489432198834891
0.443000000000000227,-8.552279332197517903
0.444000000000000228,-8.494913213784233363
0.445000000000000229,-8.437387083767077911
0.446000000000000230,-8.379697613085395957
0.447000000000000230,-8.321842123437612315
0.448000000000000231,-8.263818573288371994
0.449000000000000232,-8.205625543311297676
0.450000000000000233,-8.147262221321856401
0.451000000000000234,-8.088728386752492838
0.452000000000000235,-8.030024394720566505
0.453000000000000236,-7.971151159737291714
0.454000000000000237,-7.912110139104366446
0.455000000000000238,-7.852903316042512571
0.456000000000000238,-7.793533182594780229
0.457000000000000239,-7.734002722345112879
0.458000000000000240,-7.674315392991253759
0.459000000000000241,-7.614475108808766990
0.460000000000000242,-7.554486223041712023
0.461000000000000243,-7.494353510253215056
0.462000000000000244,-7.434082148667951806
0.463000000000000245,-7.373677702536376444
0.464000000000000246,-7.313146104549471893
0.465000000000000246,-7.252493638330646419
0.466000000000000247,-7.191726921030218378
0.467000000000000248,-7.130852886046208816
0.468000000000000249,-7.069878765893898631
0.469000000000000250,-7.008812075244895468
0.470000000000000251,-6.947660594155365743
0.471000000000000252,-6.886432351501445837
0.472000000000000253,-6.825135608638944973
0.473000000000000254,-6.763778843302697297
0.474000000000000254,-6.702370733760183441
0.475000000000000255,-6.640920143232536432
0.476000000000000256,-6.579436104595089319
0.477000000000000257,-6.517927805368559646
0.478000000000000258,-6.456404573010696701
0.479000000000000259,-6.394875860517581501
0.480000000000000260,-6.333351232342479875
0.481000000000000261,-6.271840350639346084
0.482000000000000262,-6.210352961837316776
0.483000000000000262,-6.148898883551480843
0.484000000000000263,-6.087487991834535705
0.485000000000000264,-6.026130208773162522
0.486000000000000265,-5.964835490432202292
0.487000000000000266,-5.903613815148984756
0.488000000000000267,-5.842475172179570464
0.489000000000000268,-5.781429550698025999
0.490000000000000269,-5.720486929149164013
0.491000000000000270,-5.659657264954807587
0.492000000000000270,-5.598950484572831954
0.493000000000000271,-5.538376473908060760
0.494000000000000272,-5.477945069073373752
0.495000000000000273,-5.417666047498940429
0.496000000000000274,-5.357549119387376102
0.497000000000000275,-5.297603919511765902
0.498000000000000276,-5.237839999353541387
0.499000000000000277,-5.178266819576661462
0.500000000000000222,-5.118893742834194960
0.501000000000000334,-5.059730026903281441
0.502000000000000224,-5.000784818144057731
0.503000000000000336,-4.942067145277782458
0.504000000000000226,-4.883585913479554286
0.505000000000000338,-4.825349898780173952
0.506000000000000227,-4.767367742772321115
0.507000000000000339,-4.709647947615144048
0.508000000000000229,-4.652198871332096530
0.509000000000000341,-4.595028723395876646
0.510000000000000231,-4.538145560595078898
0.511000000000000343,-4.481557283176074158
0.512000000000000233,-4.425271631254551252
0.513000000000000345,-4.369296181490169850
0.514000000000000234,-4.313638344018547954
0.515000000000000346,-4.258305359633845377
0.516000000000000236,-4.203304297216153174
0.517000000000000348,-4.148642051396921104
0.518000000000000238,-4.094325340456457241
0.519000000000000350,-4.040360704446804618
0.520000000000000240,-3.986754503533947336
0.521000000000000352,-3.933512916552760252
0.522000000000000242,-3.880641939768576520
0.523000000000000353,-3.828147385838862160
0.524000000000000243,-3.776034882968955397
0.525000000000000355,-3.724309874255420372
0.526000000000000245,-3.672977617211068857
0.527000000000000357,-3.622043183465240013
0.528000000000000247,-3.571511458633572111
0.529000000000000359,-3.521387142350973054
0.530000000000000249,-3.471674748462095117
0.531000000000000361,-3.422378605363205928
0.532000000000000250,-3.373502856489947188
0.533000000000000362,-3.325051460944941084
0.534000000000000252,-3.277028194259945959
0.535000000000000364,-3.229436649286727690
0.536000000000000254,-3.182280237211497109
0.537000000000000366,-3.135562188687187835
0.538000000000000256,-3.089285555078766343
0.539000000000000368,-3.043453209815917493
0.540000000000000258,-2.998067849848534916
0.541000000000000369,-2.953131997199563763
0.542000000000000259,-2.908648000610795314
0.543000000000000371,-2.864618037276460250
0.544000000000000261,-2.821044114660254731
0.545000000000000373,-2.777928072391039116
0.546000000000000263,-2.735271584232973563
0.547000000000000375,-2.693076160125438712
0.548000000000000265,-2.651343148288946683
0.549000000000000377,-2.610073737392414550
0.550000000000000266,-2.569268958778226697
0.551000000000000378,-2.528929688740817028
0.552000000000000268,-2.489056650855227648
0.553000000000000380,-2.449650418351691172
0.554000000000000270,-2.410711416532902440
0.555000000000000382,-2.372239925230165802
0.556000000000000272,-2.334236081295357312
0.557000000000000384,-2.296699881125060294
0.558000000000000274,-2.259631183214020567
0.559000000000000385,-2.223029710734491182
0.560000000000000275,-2.186895054138780381
0.561000000000000387,-2.151226673781838628
0.562000000000000277,-2.116023902561271708
0.563000000000000389,-2.081285948571939493
0.564000000000000279,-2.047011897772630817
0.565000000000000391,-2.013200716662193024
0.566000000000000281,-1.979851254962766705
0.567000000000000393,-1.946962248307686050
0.568000000000000282,-1.914532320931948473
0.569000000000000394,-1.882559988362834336
0.570000000000000284,-1.851043660108887767
0.571000000000000396,-1.819981642344970396
0.572000000000000286,-1.789372140591726890
0.573000000000000398,-1.759213262387362420
0.574000000000000288,-1.729503019950205500
0.575000000000000400,-1.700239332830197680
0.576000000000000290,-1.671420030547803304
0.577000000000000401,-1.643042855218710185
0.578000000000000291,-1.615105464162962079
0.579000000000000403,-1.587605432496986824
0.580000000000000293,-1.560540255707354884
0.581000000000000405,-1.533907352204815222
0.582000000000000295,-1.507704065857611742
0.583000000000000407,-1.481927668502746931
0.584000000000000297,-1.456575362434290088
0.585000000000000409,-1.431644282867569062
0.586000000000000298,-1.407131500378433930
0.587000000000000410,-1.383034023316536132
0.588000000000000300,-1.359348800191940043
0.589000000000000412,-1.336072722034113980
0.590000000000000302,-1.313202624722708878
0.591000000000000414,-1.290735291289335063
0.592000000000000304,-1.268667454189755794
0.593000000000000416,-1.246995797545835671
0.594000000000000306,-1.225716959356815350
0.595000000000000417,-1.204827533679270646
0.596000000000000307,-1.184324072775410741
0.597000000000000419,-1.164203089229222998
0.598000000000000309,-1.144461058030161071
0.599000000000000421,-1.125094418623933334
0.600000000000000311,-1.106099576930229533
0.601000000000000423,-1.087472907326963334
0.602000000000000313,-1.069210754600993907
0.603000000000000425,-1.051309435864881126
0.604000000000000314,-1.033765242439817600
0.605000000000000426,-1.016574441704289011
0.606000000000000316,-0.999733278908651046
0.607000000000000428,-0.983237978955297742
0.608000000000000318,-0.967084748144599771
0.609000000000000430,-0.951269775886412816
0.610000000000000320,-0.935789236377300049
0.611000000000000432,-0.920639290243399522
0.612000000000000322,-0.905816086149080490
0.613000000000000433,-0.891315762371389098
0.614000000000000323,-0.877134448340449402
0.615000000000000435,-0.863268266145894914
0.616000000000000325,-0.849713332009500943
0.617000000000000437,-0.836465757724152326
0.618000000000000327,-0.823521652059359122
0.619000000000000439,-0.810877122133459638
0.620000000000000329,-0.798528274752791090
0.621000000000000441,-0.786471217717991222
0.622000000000000330,-0.774702061097720884
0.623000000000000442,-0.763216918470004724
0.624000000000000332,-0.752011908131531293
0.625000000000000444,-0.741083154275122169
0.626000000000000334,-0.730426788135704275
0.627000000000000446,-0.720038949105073267
0.628000000000000336,-0.709915785815757983
0.629000000000000448,-0.700053457194302897
0.630000000000000338,-0.690448133484336646
0.631000000000000449,-0.681095997239689943
0.632000000000000339,-0.671993244288001113
0.633000000000000451,-0.663136084665081227
0.634000000000000341,-0.654520743520462633
0.635000000000000453,-0.646143461994456048
0.636000000000000343,-0.638000498067095911
0.637000000000000455,-0.630088127379381024
0.638000000000000345,-0.622402644027152507
0.639000000000000457,-0.614940361328009333
0.640000000000000346,-0.607697612561665323
0.641000000000000458,-0.600670751684122539
0.642000000000000348,-0.593856154016064508
0.643000000000000460,-0.587250216905855660
0.644000000000000350,-0.580849360367585388
0.645000000000000462,-0.574650027694497245
0.646000000000000352,-0.568648686048270346
0.647000000000000464,-0.562841827024496366
0.648000000000000353,-0.557225967194829974
0.649000000000000465,-0.551797648626125681
0.650000000000000355,-0.546553439377071792
0.651000000000000467,-0.541489933972624682
0.652000000000000357,-0.536603753856729204
0.653000000000000469,-0.531891547823677979
0.654000000000000359,-0.527349992428548631
0.655000000000000471,-0.522975792377076476
0.656000000000000361,-0.518765680895421744
0.657000000000000473,-0.514716420080172155
0.658000000000000362,-0.510824801229023517
0.659000000000000474,-0.507087645152491051
0.660000000000000364,-0.503501802467100079
