# CaO001_CS-7720-AC
# h[nm],U(h)[kJ/mol]
0.200000000000000011,68.585268074223193935
0.201000000000000012,67.830947978870213433
0.202000000000000013,66.634986546944304564
0.203000000000000014,65.259065971076154256
0.204000000000000015,63.843457096695303221
0.205000000000000016,62.454228729540204768
0.206000000000000016,61.114518313947542083
0.207000000000000017,59.824675861123203902
0.208000000000000018,58.574762679791149367
0.209000000000000019,57.351899424614757095
0.210000000000000020,56.144230277534987295
0.211000000000000021,54.942737456381436800
0.212000000000000022,53.741753666097949349
0.213000000000000023,52.538742269625700487
0.214000000000000024,51.333717587203167909
0.215000000000000024,50.128539494727860415
0.216000000000000025,48.926221348872864780
0.217000000000000026,47.730326231839924844
0.218000000000000027,46.544484673316517842
0.219000000000000028,45.372040794977657185
0.220000000000000029,44.215818416689103287
0.221000000000000030,43.077990567263192645
0.222000000000000031,41.960032546272557852
0.223000000000000032,40.862738408894649922
0.224000000000000032,39.786282253934373898
0.225000000000000033,38.730308140618845414
0.226000000000000034,37.694035281667993331
0.227000000000000035,36.676368000976012240
0.228000000000000036,35.676002589419553601
0.229000000000000037,34.691525525922877193
0.230000000000000038,33.721499503388983499
0.231000000000000039,32.764535303965246271
0.232000000000000040,31.819348825410941117
0.233000000000000040,30.884803505117162103
0.234000000000000041,29.959939062728032866
0.235000000000000042,29.043987930309164369
0.236000000000000043,28.136381003107004517
0.237000000000000044,27.236744463200658117
0.238000000000000045,26.344889437333950610
0.239000000000000046,25.460796178633579245
0.240000000000000047,24.584594334602492438
0.241000000000000048,23.716540701001015634
0.242000000000000048,22.856995679109182618
0.243000000000000049,22.006399464876896133
0.244000000000000050,21.165248811968332632
0.245000000000000051,20.334075033406151078
0.246000000000000052,19.513423742997069610
0.247000000000000053,18.703836690795089481
0.248000000000000054,17.905835918002779295
0.249000000000000055,17.119910346341885798
0.250000000000000056,16.346504824681009183
0.251000000000000056,15.586011580673357457
0.252000000000000057,14.838763966038083453
0.253000000000000058,14.105032339390856322
0.254000000000000059,13.385021898547773134
0.255000000000000060,12.678872253318676400
0.256000000000000061,11.986658518327621081
0.257000000000000062,11.308393701785647067
0.258000000000000063,10.644032168939572713
0.259000000000000064,9.993473966805069608
0.260000000000000064,9.356569808575608604
0.261000000000000065,8.733126530739030002
0.262000000000000066,8.122912852523427318
0.263000000000000067,7.525665285068906307
0.264000000000000068,6.941094056034101456
0.265000000000000069,6.368888933670122654
0.266000000000000070,5.808724852307059372
0.267000000000000071,5.260267258366585708
0.268000000000000071,4.723177112192895599
0.269000000000000072,4.197115496002593815
0.270000000000000073,3.681747791976377471
0.271000000000000074,3.176747406883970282
0.272000000000000075,2.681799030623309044
0.273000000000000076,2.196601425676168340
0.274000000000000077,1.720869752769601746
0.275000000000000078,1.254337445044578558
0.276000000000000079,0.796757648842178923
0.277000000000000079,0.347904253906356931
0.278000000000000080,-0.092427460535552800
0.279000000000000081,-0.524420534627014101
0.280000000000000082,-0.948236360592881744
0.281000000000000083,-1.364015007081173181
0.282000000000000084,-1.771875802412556933
0.283000000000000085,-2.171918144077236157
0.284000000000000086,-2.564222502360080203
0.285000000000000087,-2.948851586913066036
0.286000000000000087,-3.325851646360773906
0.287000000000000088,-3.695253872550452456
0.288000000000000089,-4.057075882784769050
0.289000000000000090,-4.411323255249388176
0.290000000000000091,-4.757991094819526978
0.291000000000000092,-5.097065608461076813
0.292000000000000093,-5.428525671493076743
0.293000000000000094,-5.752344368020871457
0.294000000000000095,-6.068490490855411146
0.295000000000000095,-6.376929988183659859
0.296000000000000096,-6.677627346128002905
0.297000000000000097,-6.970546898117383705
0.298000000000000098,-7.255654053676735771
0.299000000000000099,-7.532916440817890802
0.300000000000000100,-7.802304957677590025
0.301000000000000101,-8.063794730395546395
0.302000000000000102,-8.317365975453775206
0.303000000000000103,-8.563004765811600194
0.304000000000000103,-8.800703701166899151
0.305000000000000104,-9.030462483559865916
0.306000000000000105,-9.252288400312396632
0.307000000000000106,-9.466196716969795588
0.308000000000000107,-9.672210983487449454
0.309000000000000108,-9.870363257388142131
0.310000000000000109,-10.060694248013309249
0.311000000000000110,-10.243253386307520358
0.312000000000000111,-10.418098824819656656
0.313000000000000111,-10.585297372778658342
0.314000000000000112,-10.744924371216050929
0.315000000000000113,-10.897063513165694104
0.316000000000000114,-11.041806613979957774
0.317000000000000115,-11.179253336765814453
0.318000000000000116,-11.309510877870458501
0.319000000000000117,-11.432693617237827510
0.320000000000000118,-11.548922738320435144
0.321000000000000119,-11.658325822069661726
0.322000000000000119,-11.761036419345405335
0.323000000000000120,-11.857193605887406562
0.324000000000000121,-11.946941523779152305
0.325000000000000122,-12.030428913113365041
0.326000000000000123,-12.107808637339514846
0.327000000000000124,-12.179237205540776046
0.328000000000000125,-12.244874294652813518
0.329000000000000126,-12.304882274401695241
0.330000000000000127,-12.359425737504928122
0.331000000000000127,-12.408671037450224262
0.332000000000000128,-12.452785835941424963
0.333000000000000129,-12.491938661882638684
0.334000000000000130,-12.526298483559562769
0.335000000000000131,-12.556034295473718743
0.336000000000000132,-12.581314721089572828
0.337000000000000133,-12.602307632568832574
0.338000000000000134,-12.619179788389589092
0.339000000000000135,-12.632096489580934673
0.340000000000000135,-12.641221255147289781
0.341000000000000136,-12.646715517109480942
0.342000000000000137,-12.648738335453261428
0.343000000000000138,-12.647446133148902092
0.344000000000000139,-12.642992451288810329
0.345000000000000140,-12.635527724282685114
0.346000000000000141,-12.625199074951952483
0.347000000000000142,-12.612150129276198385
0.348000000000000143,-12.596520850464759889
0.349000000000000143,-12.578447391954584944
0.350000000000000144,-12.558061968872484826
0.351000000000000145,-12.535492747443850448
0.352000000000000146,-12.510863751781682751
0.353000000000000147,-12.484294787448254382
0.354000000000000148,-12.455901381146739837
0.355000000000000149,-12.425794735871372509
0.356000000000000150,-12.394081700821550029
0.357000000000000151,-12.360864755367568790
0.358000000000000151,-12.326242006342834401
0.359000000000000152,-12.290307197929090322
0.360000000000000153,-12.253149733397322052
0.361000000000000154,-12.214854707966571468
0.362000000000000155,-12.175502952046384664
0.363000000000000156,-12.135171084135011554
0.364000000000000157,-12.093931572654708972
0.365000000000000158,-12.051852806017780750
0.366000000000000159,-12.008999170230591602
0.367000000000000159,-11.965431133359496485
0.368000000000000160,-11.921205336200271674
0.369000000000000161,-11.876374688512157718
0.370000000000000162,-11.830988470198311902
0.371000000000000163,-11.785092436836414720
0.372000000000000164,-11.738728928985581845
0.373000000000000165,-11.691936984719463410
0.374000000000000166,-11.644752454859061075
0.375000000000000167,-11.597208120403090348
0.376000000000000167,-11.549333811678465622
0.377000000000000168,-11.501156528757828568
0.378000000000000169,-11.452700562715740773
0.379000000000000170,-11.403987617319796044
0.380000000000000171,-11.355036930776817528
0.381000000000000172,-11.305865397178667564
0.382000000000000173,-11.256487687315303248
0.383000000000000174,-11.206916368546327334
0.384000000000000175,-11.157162023444353594
0.385000000000000175,-11.107233366945921560
0.386000000000000176,-11.057137361766971040
0.387000000000000177,-11.006879331860414339
0.388000000000000178,-10.956463073714022727
0.389000000000000179,-10.905890965305399476
0.390000000000000180,-10.855164072550202548
0.391000000000000181,-10.804282253097159838
0.392000000000000182,-10.753244257340819345
0.393000000000000183,-10.702047826539265785
0.394000000000000183,-10.650689787939651154
0.395000000000000184,-10.599166146829249513
0.396000000000000185,-10.547472175443850517
0.397000000000000186,-10.495602498678579195
0.398000000000000187,-10.443551176558916183
0.399000000000000188,-10.391311783441487648
0.400000000000000189,-10.338877483925308809
0.401000000000000190,-10.286241105464700496
0.402000000000000191,-10.233395207684830908
0.403000000000000191,-10.180332148409723558
0.404000000000000192,-10.127044146421393833
0.405000000000000193,-10.073523340976128893
0.406000000000000194,-10.019761848111526703
0.407000000000000195,-9.965751813784224922
0.408000000000000196,-9.911485463884476488
0.409000000000000197,-9.856955151179080943
0.410000000000000198,-9.802153399239378118
0.411000000000000199,-9.747072943415203028
0.412000000000000199,-9.691706768919930326
0.413000000000000200,-9.636048146095243183
0.414000000000000201,-9.580090662927332801
0.415000000000000202,-9.523828254888922373
0.416000000000000203,-9.467255232183955371
0.417000000000000204,-9.410366304473594568
0.418000000000000205,-9.353156603163929717
0.419000000000000206,-9.295621701336965970
0.420000000000000207,-9.237757631407415460
0.421000000000000207,-9.179560900588747074
0.422000000000000208,-9.121028504251963653
0.423000000000000209,-9.062157937261149598
0.424000000000000210,-9.002947203369538798
0.425000000000000211,-8.943394822759561436
0.426000000000000212,-8.883499837810056476
0.427000000000000213,-8.823261817172863175
0.428000000000000214,-8.762680858240523563
0.429000000000000214,-8.701757588085495598
0.430000000000000215,-8.640493162950422246
0.431000000000000216,-8.578889266367616173
0.432000000000000217,-8.516948105984523565
0.433000000000000218,-8.454672409170537861
0.434000000000000219,-8.392065417478892897
0.435000000000000220,-8.329130880035837237
0.436000000000000221,-8.265873045927346396
0.437000000000000222,-8.202296655652073554
0.438000000000000222,-8.138406931707285352
0.439000000000000223,-8.074209568372658907
0.440000000000000224,-8.009710720754968705
0.441000000000000225,-7.944916993154542695
0.442000000000000226,-7.879835426812782373
0.443000000000000227,-7.814473487097545856
0.444000000000000228,-7.748839050181695498
0.445000000000000229,-7.682940389267804093
0.446000000000000230,-7.616786160410027762
0.447000000000000230,-7.550385387982435859
0.448000000000000231,-7.483747449840755905
0.449000000000000232,-7.416882062222700078
0.450000000000000233,-7.349799264430269652
0.451000000000000234,-7.282509403335049925
0.452000000000000235,-7.215023117746196313
0.453000000000000236,-7.147351322678349383
0.454000000000000237,-7.079505193555492681
0.455000000000000238,-7.011496150384346038
0.456000000000000238,-6.943335841929678232
0.457000000000000239,-6.875036129921741512
0.458000000000000240,-6.806609073324743520
0.459000000000000241,-6.738066912693154720
0.460000000000000242,-6.669422054641628961
0.461000000000000243,-6.600687056452076540
0.462000000000000244,-6.531874610840620043
0.463000000000000245,-6.462997530904902810
0.464000000000000246,-6.394068735271607906
0.465000000000000246,-6.325101233461948524
0.466000000000000247,-6.256108111491982982
0.467000000000000248,-6.187102517723093165
0.468000000000000249,-6.118097648976871916
0.469000000000000250,-6.049106736927241101
0.470000000000000251,-5.980143034781697509
0.471000000000000252,-5.911219804262181299
0.472000000000000253,-5.842350302895361835
0.473000000000000254,-5.773547771620637370
0.474000000000000254,-5.704825422723589057
0.475000000000000255,-5.636196428101324152
0.476000000000000256,-5.567673907865519745
0.477000000000000257,-5.499270919287908121
0.478000000000000258,-5.431000446092187239
0.479000000000000259,-5.362875388095592832
0.480000000000000260,-5.294908551202560432
0.481000000000000261,-5.227112637752151514
0.482000000000000262,-5.159500237220388641
0.483000000000000262,-5.092083817277872626
0.484000000000000263,-5.024875715202417048
0.485000000000000264,-4.957888129646073949
0.486000000000000265,-4.891133112755110091
0.487000000000000266,-4.824622562641181389
0.488000000000000267,-4.758368216201385614
0.489000000000000268,-4.692381642284511045
0.490000000000000269,-4.626674235200200158
0.491000000000000270,-4.561257208567643495
0.492000000000000270,-4.496141589499726088
0.493000000000000271,-4.431338213118502622
0.494000000000000272,-4.366857717397404137
0.495000000000000273,-4.302710538325243306
0.496000000000000274,-4.238906905387102242
0.497000000000000275,-4.175456837356534834
0.498000000000000276,-4.112370138393655061
0.499000000000000277,-4.049656394443326590
0.500000000000000222,-3.987324969927399820
0.501000000000000334,-3.925385004725034044
0.502000000000000224,-3.863845411434789323
0.503000000000000336,-3.802714872912026145
0.504000000000000226,-3.742001840075363184
0.505000000000000338,-3.681714529975268935
0.506000000000000227,-3.621860924118583291
0.507000000000000339,-3.562448767041767717
0.508000000000000229,-3.503485565126584156
0.509000000000000341,-3.444978585650951608
0.510000000000000231,-3.386934856068669397
0.511000000000000343,-3.329361163510621058
0.512000000000000233,-3.272264054501110131
0.513000000000000345,-3.215649834882097657
0.514000000000000234,-3.159524569938954475
0.515000000000000346,-3.103894084720439484
0.516000000000000236,-3.048763964546695071
0.517000000000000348,-2.994139555698082766
0.518000000000000238,-2.940025966278622338
0.519000000000000350,-2.886428067247063467
0.520000000000000240,-2.833350493609400278
0.521000000000000352,-2.780797645766132309
0.522000000000000242,-2.728773691008070212
0.523000000000000353,-2.677282565154222915
0.524000000000000243,-2.626327974325739056
0.525000000000000355,-2.575913396849613068
0.526000000000000245,-2.526042085286336114
0.527000000000000357,-2.476717068575292391
0.528000000000000247,-2.427941154292425630
0.529000000000000359,-2.379716931014118408
0.530000000000000249,-2.332046770781968537
0.531000000000000361,-2.284932831662717323
0.532000000000000250,-2.238377060398196061
0.533000000000000362,-2.192381195139745387
0.534000000000000252,-2.146946768262218974
0.535000000000000364,-2.102075109252297569
0.536000000000000254,-2.057767347666428215
0.537000000000000366,-2.014024416153282093
0.538000000000000256,-1.970847053536429971
0.539000000000000368,-1.928235807952239700
0.540000000000000258,-1.886191040038998068
0.541000000000000369,-1.844712926172467515
0.542000000000000259,-1.803801461744121371
0.543000000000000371,-1.763456464477579200
0.544000000000000261,-1.723677577779552994
0.545000000000000373,-1.684464274121268090
0.546000000000000263,-1.645815858446791680
0.547000000000000375,-1.607731471604384010
0.548000000000000265,-1.570210093797766104
0.549000000000000377,-1.533250548053455287
0.550000000000000266,-1.496851503701298602
0.551000000000000378,-1.461011479864732898
0.552000000000000268,-1.425728848957936057
0.553000000000000380,-1.391001840186735894
0.554000000000000270,-1.356828543050637936
0.555000000000000382,-1.323206910843003126
0.556000000000000272,-1.290134764147012003
0.557000000000000384,-1.257609794324599850
0.558000000000000274,-1.225629566996238040
0.559000000000000385,-1.194191525508933704
0.560000000000000275,-1.163292994390498603
0.561000000000000387,-1.132931182787722646
0.562000000000000277,-1.103103187886566916
0.563000000000000389,-1.073805998312324927
0.564000000000000279,-1.045036497507988216
0.565000000000000391,-1.016791467088942857
0.566000000000000281,-0.989067590172397759
0.567000000000000393,-0.961861454679865835
0.568000000000000282,-0.935169556611295527
0.569000000000000394,-0.908988303289225086
0.570000000000000284,-0.883314016571828065
0.571000000000000396,-0.858142936033340575
0.572000000000000286,-0.833471222110881427
0.573000000000000398,-0.809294959216284249
0.574000000000000288,-0.785610158812096726
0.575000000000000400,-0.762412762450614956
0.576000000000000290,-0.739698644775062086
0.577000000000000401,-0.717463616482023059
0.578000000000000291,-0.695703427244380279
0.579000000000000403,-0.674413768593918328
0.580000000000000293,-0.653590276763025058
0.581000000000000405,-0.633228535484735344
0.582000000000000295,-0.613324078750679069
0.583000000000000407,-0.593872393526282183
0.584000000000000297,-0.574868922422864137
0.585000000000000409,-0.556309066326142632
0.586000000000000298,-0.538188186980832040
0.587000000000000410,-0.520501609530955811
0.588000000000000300,-0.503244625015676350
0.589000000000000412,-0.486412492820309184
0.590000000000000302,-0.470000443082432384
0.591000000000000414,-0.454003679052898346
0.592000000000000304,-0.438417379411616182
0.593000000000000416,-0.423236700538062838
0.594000000000000306,-0.408456778736511150
0.595000000000000417,-0.394072732415907345
0.596000000000000307,-0.380079664224481029
0.597000000000000419,-0.366472663139141508
0.598000000000000309,-0.353246806509770583
0.599000000000000421,-0.340397162058468705
0.600000000000000311,-0.327918789834019064
0.601000000000000423,-0.315806744121628014
0.602000000000000313,-0.304056075308276053
0.603000000000000425,-0.292661831703731889
0.604000000000000314,-0.281619061317724351
0.605000000000000426,-0.270922813593274803
0.606000000000000316,-0.260568141096729267
0.607000000000000428,-0.250550101164614403
0.608000000000000318,-0.240863757507797371
0.609000000000000430,-0.231504181773190570
0.610000000000000320,-0.222466455063451113
0.611000000000000432,-0.213745669415001865
0.612000000000000322,-0.205336929234813559
0.613000000000000433,-0.197235352696331828
0.614000000000000323,-0.189436073095002711
0.615000000000000435,-0.181934240163815542
0.616000000000000325,-0.174725021349321830
0.617000000000000437,-0.167803603048586020
0.618000000000000327,-0.161165191807560781
0.619000000000000439,-0.154805015481319808
0.620000000000000329,-0.148718324356695020
0.621000000000000441,-0.142900392237776841
0.622000000000000330,-0.137346517494788989
0.623000000000000442,-0.132052024076849045
0.624000000000000332,-0.127012262489133859
0.625000000000000444,-0.122222610734975048
0.626000000000000334,-0.117678475223383788
0.627000000000000446,-0.113375291642580533
0.628000000000000336,-0.109308525800010908
0.629000000000000448,-0.105473674429422279
0.630000000000000338,-0.101866265965528030
0.631000000000000449,-0.098481861286789193
0.632000000000000339,-0.095316054426868718
0.633000000000000451,-0.092364473255295523
0.634000000000000341,-0.089622780127879678
0.635000000000000453,-0.087086672507442536
0.636000000000000343,-0.084751883555347379
0.637000000000000455,-0.082614182694467492
0.638000000000000345,-0.080669376144041460
0.639000000000000457,-0.078913307427005891
0.640000000000000346,-0.077341857850340825
0.641000000000000458,-0.075950946958953297
0.642000000000000348,-0.074736532963634333
0.643000000000000460,-0.073694613143635596
0.644000000000000350,-0.072821224224376951
0.645000000000000462,-0.072112442730832477
0.646000000000000352,-0.071564385317092902
0.647000000000000464,-0.071173209072644045
0.648000000000000353,-0.070935111805877055
0.649000000000000465,-0.070846332305324652
0.650000000000000355,-0.070903150579155041
0.651000000000000467,-0.071101888073405659
0.652000000000000357,-0.071438907869471671
0.653000000000000469,-0.071910614861336680
0.654000000000000359,-0.072513455913040953
0.655000000000000471,-0.073243919996850912
0.656000000000000361,-0.074098538312648773
0.657000000000000473,-0.075073884388976553
0.658000000000000362,-0.076166574166233472
0.659000000000000474,-0.077373266062459284
0.660000000000000364,-0.078690661022206759
0.661000000000000476,-0.080115502548911477
