# CaO001_CS-7683-AC
# h[nm],U(h)[kJ/mol]
0.149999999999999994,130.723932915044031233
0.150999999999999995,128.443166080129060447
0.151999999999999996,125.767351633793623478
0.152999999999999997,123.047611506726894959
0.153999999999999998,120.412645676581675502
0.154999999999999999,117.885725957914246464
0.156000000000000000,115.448352495709059440
0.157000000000000001,113.072301661913300563
0.158000000000000002,110.733695916999266728
0.159000000000000002,108.417440836336822940
0.160000000000000003,106.116977846329561430
0.161000000000000004,103.832159769849880604
0.162000000000000005,101.566738820449728564
0.163000000000000006,99.326172094752877229
0.164000000000000007,97.116003271782972206
0.165000000000000008,94.940842535020607329
0.166000000000000009,92.803855906870950321
0.167000000000000010,90.706636599020740164
0.168000000000000010,88.649331076379723982
0.169000000000000011,86.630910927590022652
0.170000000000000012,84.649506468499779999
0.171000000000000013,82.702742803209588374
0.172000000000000014,80.788040675350799802
0.173000000000000015,78.902861671662677168
0.174000000000000016,77.044890102737966231
0.175000000000000017,75.212152653299710892
0.176000000000000018,73.403082369881119007
0.177000000000000018,71.616536484340002744
0.178000000000000019,69.851778647764575680
0.179000000000000020,68.108435959148309280
0.180000000000000021,66.386440188851196353
0.181000000000000022,64.685961178662793714
0.182000000000000023,63.007338810006082497
0.183000000000000024,61.351018349298065857
0.184000000000000025,59.717492519544762786
0.185000000000000026,58.107252375272878453
0.186000000000000026,56.520748003187541997
0.187000000000000027,54.958359237690714849
0.188000000000000028,53.420375956356132008
0.189000000000000029,51.906987083577767805
0.190000000000000030,50.418277153869240692
0.191000000000000031,48.954229141148303484
0.192000000000000032,47.514732219050252127
0.193000000000000033,46.099593154352156432
0.194000000000000034,44.708550128496376885
0.195000000000000034,43.341287911885842732
0.196000000000000035,41.997453466421461599
0.197000000000000036,40.676671211234470604
0.198000000000000037,39.378557345229197040
0.199000000000000038,38.102732770962198572
0.200000000000000039,36.848834302776261040
0.201000000000000040,35.616523965005249863
0.202000000000000041,34.405496291928223229
0.203000000000000042,33.215483629544195310
0.204000000000000042,32.046259510559750083
0.205000000000000043,30.897640229224435870
0.206000000000000044,29.769484783195274247
0.207000000000000045,28.661693377091303603
0.208000000000000046,27.574204698542672531
0.209000000000000047,26.506992184101999754
0.210000000000000048,25.460059491063010029
0.211000000000000049,24.433435383619936943
0.212000000000000050,23.427168229354101925
0.213000000000000050,22.441320286058378031
0.214000000000000051,21.475961940539502137
0.215000000000000052,20.531166041250301646
0.216000000000000053,19.607002446213844138
0.217000000000000054,18.703532887376525196
0.218000000000000055,17.820806232798993562
0.219000000000000056,16.958854209372354660
0.220000000000000057,16.117687631328784903
0.221000000000000058,15.297293163916569014
0.222000000000000058,14.497630637345476856
0.223000000000000059,13.718630913553706563
0.224000000000000060,12.960194297499526783
0.225000000000000061,12.222189475509626533
0.226000000000000062,11.504452955650020129
0.227000000000000063,10.806788979030711673
0.228000000000000064,10.128969866301261504
0.229000000000000065,9.470736760214345296
0.230000000000000066,8.831800722904310064
0.231000000000000066,8.211844145309708409
0.232000000000000067,7.610522425838240679
0.233000000000000068,7.027465875799158823
0.234000000000000069,6.462281810194602016
0.235000000000000070,5.914556784053337068
0.236000000000000071,5.383858936505458104
0.237000000000000072,4.869740407137329363
0.238000000000000073,4.371739791749707393
0.239000000000000073,3.889384607391350279
0.240000000000000074,3.422193739386189204
0.241000000000000075,2.969679845960784270
0.242000000000000076,2.531351698956964213
0.243000000000000077,2.106716441941343998
0.244000000000000078,1.695281749765497281
0.245000000000000079,1.296557876258543018
0.246000000000000080,0.910059579227217030
0.247000000000000081,0.535307914278977059
0.248000000000000081,0.171831891161647654
0.249000000000000082,-0.180830011680251090
0.250000000000000111,-0.523128476801424602
0.251000000000000112,-0.855502122516645480
0.252000000000000113,-1.178376422059078665
0.253000000000000114,-1.492162765155908843
0.254000000000000115,-1.797257658896400656
0.255000000000000115,-2.094042063777437068
0.256000000000000116,-2.382880859973059096
0.257000000000000117,-2.664122438175765328
0.258000000000000118,-2.938098408789289628
0.259000000000000119,-3.205123422806872124
0.260000000000000120,-3.465495097374367894
0.261000000000000121,-3.719494038803824232
0.262000000000000122,-3.967383955662479256
0.263000000000000123,-4.209411854502175920
0.264000000000000123,-4.445808310808871511
0.265000000000000124,-4.676787807829381194
0.266000000000000125,-4.902549136067168689
0.267000000000000126,-5.123275846420507484
0.268000000000000127,-5.339136750159967804
0.269000000000000128,-5.550286459198138012
0.270000000000000129,-5.756865960389253800
0.271000000000000130,-5.959003217902589356
0.272000000000000131,-6.156813798035948082
0.273000000000000131,-6.350401511170343127
0.274000000000000132,-6.539859065908785851
0.275000000000000133,-6.725268730788272364
0.276000000000000134,-6.906702999300097012
0.277000000000000135,-7.084225254297104257
0.278000000000000136,-7.257890428205387323
0.279000000000000137,-7.427745655789043333
0.280000000000000138,-7.593830916538434117
0.281000000000000139,-7.756179664064111634
0.282000000000000139,-7.914819440177609522
0.283000000000000140,-8.069772471626851740
0.284000000000000141,-8.221056247726338029
0.285000000000000142,-8.368684077380629915
0.286000000000000143,-8.512665624243149765
0.287000000000000144,-8.653007418980610765
0.288000000000000145,-8.789713347827563084
0.289000000000000146,-8.922785116813289008
0.290000000000000147,-9.052222691228083207
0.291000000000000147,-9.178024710064393688
0.292000000000000148,-9.300188875324323590
0.293000000000000149,-9.418712316225775538
0.294000000000000150,-9.533591928468185372
0.295000000000000151,-9.644824688834017223
0.296000000000000152,-9.752407945505595421
0.297000000000000153,-9.856339684568435899
0.298000000000000154,-9.956618773252895238
0.299000000000000155,-10.053245180536302783
0.300000000000000155,-10.146220175788121409
0.301000000000000156,-10.235546506191875338
0.302000000000000157,-10.321228553720558807
0.303000000000000158,-10.403272472476686517
0.304000000000000159,-10.481686307235744238
0.305000000000000160,-10.556480094052119512
0.306000000000000161,-10.627665943801066106
0.307000000000000162,-10.695258109538773539
0.308000000000000163,-10.759273038565789093
0.309000000000000163,-10.819729410077910003
0.310000000000000164,-10.876648159282828132
0.311000000000000165,-10.930052488851481840
0.312000000000000166,-10.979967868560130739
0.313000000000000167,-11.026422023963494468
0.314000000000000168,-11.069444914920586243
0.315000000000000169,-11.109068704774298197
0.316000000000000170,-11.145327720963253526
0.317000000000000171,-11.178258407819711806
0.318000000000000171,-11.207899272281894198
0.319000000000000172,-11.234290823222366384
0.320000000000000173,-11.257475505066125265
0.321000000000000174,-11.277497626343929937
0.322000000000000175,-11.294403283797617377
0.323000000000000176,-11.308240282625053652
0.324000000000000177,-11.319058053423182386
0.325000000000000178,-11.326907566358627832
0.326000000000000179,-11.331841243066293146
0.327000000000000179,-11.333912866747899884
0.328000000000000180,-11.333177490913856289
0.329000000000000181,-11.329691347184770223
0.330000000000000182,-11.323511752540884601
0.331000000000000183,-11.314697016382138983
0.332000000000000184,-11.303306347735041726
0.333000000000000185,-11.289399762917891934
0.334000000000000186,-11.273037993951652069
0.335000000000000187,-11.254282397980139407
0.336000000000000187,-11.233194867941056927
0.337000000000000188,-11.209837744707231266
0.338000000000000189,-11.184273730897229981
0.339000000000000190,-11.156565806534331387
0.340000000000000191,-11.126777146713717315
0.341000000000000192,-11.094971041420460978
0.342000000000000193,-11.061210817622658453
0.343000000000000194,-11.025559763748981723
0.344000000000000195,-10.988081056643419942
0.345000000000000195,-10.948837691076510836
0.346000000000000196,-10.907892411877957883
0.347000000000000197,-10.865307648743065982
0.348000000000000198,-10.821145453753356236
0.349000000000000199,-10.775467441640397936
0.350000000000000200,-10.728334732811569907
0.351000000000000201,-10.679807899146599226
0.352000000000000202,-10.629946912564692596
0.353000000000000203,-10.578811096353929244
0.354000000000000203,-10.526459079246667017
0.355000000000000204,-10.472948752217709156
0.356000000000000205,-10.418337227975669634
0.357000000000000206,-10.362680803112070294
0.358000000000000207,-10.306034922867050696
0.359000000000000208,-10.248454148466365154
0.360000000000000209,-10.189992126979561249
0.361000000000000210,-10.130701563645517993
0.362000000000000210,-10.070634196608333255
0.363000000000000211,-10.009840774003299302
0.364000000000000212,-9.948371033330413837
0.365000000000000213,-9.886273683050436745
0.366000000000000214,-9.823596386336902242
0.367000000000000215,-9.760385746915744676
0.368000000000000216,-9.696687296923274246
0.369000000000000217,-9.632545486712015048
0.370000000000000218,-9.568003676533589186
0.371000000000000218,-9.503104130027120178
0.372000000000000219,-9.437888009441730119
0.373000000000000220,-9.372395372521589607
0.374000000000000221,-9.306665170982297397
0.375000000000000222,-9.240735250507658094
0.376000000000000223,-9.174642352196753947
0.377000000000000224,-9.108422115391705987
0.378000000000000225,-9.042109081817461202
0.379000000000000226,-8.975736700965969206
0.380000000000000226,-8.909337336658333939
0.381000000000000227,-8.842942274719280960
0.382000000000000228,-8.776581731700252575
0.383000000000000229,-8.710284864588185627
0.384000000000000230,-8.644079781438751553
0.385000000000000231,-8.577993552874469074
0.386000000000000232,-8.512052224389222488
0.387000000000000233,-8.446280829402791568
0.388000000000000234,-8.380703403010135943
0.389000000000000234,-8.315342996372363515
0.390000000000000235,-8.250221691697342763
0.391000000000000236,-8.185360617760272461
0.392000000000000237,-8.120779965915607690
0.393000000000000238,-8.056499006553904607
0.394000000000000239,-7.992536105958495618
0.395000000000000240,-7.928908743518837454
0.396000000000000241,-7.865633529258937884
0.397000000000000242,-7.802726221640869042
0.398000000000000242,-7.740201745605235217
0.399000000000000243,-7.678074210811859146
0.400000000000000244,-7.616356930045623308
0.401000000000000245,-7.555062437754202165
0.402000000000000246,-7.494202508685563480
0.403000000000000247,-7.433788176594990027
0.404000000000000248,-7.373829752992755004
0.405000000000000249,-7.314336845905015316
0.406000000000000250,-7.255318378621881337
0.407000000000000250,-7.196782608408210713
0.408000000000000251,-7.138737145153749353
0.409000000000000252,-7.081188969940848565
0.410000000000000253,-7.024144453509016728
0.411000000000000254,-6.967609374597055982
0.412000000000000255,-6.911588938144530125
0.413000000000000256,-6.856087793335669645
0.414000000000000257,-6.801110051469756002
0.415000000000000258,-6.746659303643390615
0.416000000000000258,-6.692738638230801840
0.417000000000000259,-6.639350658149662188
0.418000000000000260,-6.586497497900670517
0.419000000000000261,-6.534180840370160226
0.420000000000000262,-6.482401933385976811
0.421000000000000263,-6.431161606017684385
0.422000000000000264,-6.380460284612937016
0.423000000000000265,-6.330298008562762035
0.424000000000000266,-6.280674445789349747
0.425000000000000266,-6.231588907950375678
0.426000000000000267,-6.183040365354931289
0.427000000000000268,-6.135027461586642694
0.428000000000000269,-6.087548527830152878
0.429000000000000270,-6.040601596897948511
0.430000000000000271,-5.994184416954833949
0.431000000000000272,-5.948294464938161497
0.432000000000000273,-5.902928959672257392
0.433000000000000274,-5.858084874676101172
0.434000000000000274,-5.813758950663709513
0.435000000000000275,-5.769947707737170361
0.436000000000000276,-5.726647457272706632
0.437000000000000277,-5.683854313500401823
0.438000000000000278,-5.641564204778813263
0.439000000000000279,-5.599772884565906494
0.440000000000000280,-5.558475942088032085
0.441000000000000281,-5.517668812709091597
0.442000000000000282,-5.477346788002297906
0.443000000000000282,-5.437505025527054059
0.444000000000000283,-5.398138558313994473
0.445000000000000284,-5.359242304061170969
0.446000000000000285,-5.320811074044721423
0.447000000000000286,-5.282839581747686530
0.448000000000000287,-5.245322451210429726
0.449000000000000288,-5.208254225106763613
0.450000000000000289,-5.171629372549586989
0.451000000000000290,-5.135442296630307268
0.452000000000000290,-5.099687341696268916
0.453000000000000291,-5.064358800370517777
0.454000000000000292,-5.029450920318441653
0.455000000000000293,-4.994957910765750242
0.456000000000000294,-4.960873948772487552
0.457000000000000295,-4.927193185267729980
0.458000000000000296,-4.893909750849686269
0.459000000000000297,-4.861017761356023037
0.460000000000000298,-4.828511323209179196
0.461000000000000298,-4.796384538541555109
0.462000000000000299,-4.764631510105409973
0.463000000000000300,-4.733246345972300873
0.464000000000000301,-4.702223164027000912
0.465000000000000302,-4.671556096260713886
0.466000000000000303,-4.641239292868456268
0.467000000000000304,-4.611266926155413337
0.468000000000000305,-4.581633194257169528
0.469000000000000306,-4.552332324678480369
0.470000000000000306,-4.523358577655510082
0.471000000000000307,-4.494706249346043236
0.472000000000000308,-4.466369674852595395
0.473000000000000309,-4.438343231082857443
0.474000000000000310,-4.410621339452196921
0.475000000000000311,-4.383198468432665251
0.476000000000000312,-4.356069135953124061
0.477000000000000313,-4.329227911654761840
0.478000000000000314,-4.302669419006468488
0.479000000000000314,-4.276388337284435792
0.480000000000000315,-4.250379403420028623
0.481000000000000316,-4.224637413720379264
0.482000000000000317,-4.199157225465558696
0.483000000000000318,-4.173933758386564996
0.484000000000000319,-4.148961996027979104
0.485000000000000320,-4.124236986999290089
0.486000000000000321,-4.099753846118636247
0.487000000000000322,-4.075507755452797198
0.488000000000000322,-4.051493965257028762
0.489000000000000323,-4.027707794818486953
0.490000000000000324,-4.004144633206653481
0.491000000000000325,-3.980799939934315468
0.492000000000000326,-3.957669245532405178
0.493000000000000327,-3.934748152042109037
0.494000000000000328,-3.912032333427404751
0.495000000000000329,-3.889517535911250601
0.496000000000000330,-3.867199578238457836
0.497000000000000330,-3.845074351868343676
0.498000000000000331,-3.823137821099991562
0.499000000000000332,-3.801386023133131342
0.500000000000000333,-3.779815068067320816
0.501000000000000334,-3.758421138842193976
0.502000000000000335,-3.737200491121440482
0.503000000000000336,-3.716149453123088087
0.504000000000000337,-3.695264425398609998
0.505000000000000338,-3.674541880563273910
0.506000000000000338,-3.653978362980150330
0.507000000000000339,-3.633570488400053478
0.508000000000000340,-3.613314943559653436
0.509000000000000341,-3.593208485740006175
0.510000000000000342,-3.573247942287493650
0.511000000000000343,-3.553430210099341569
0.512000000000000344,-3.533752255075607529
0.513000000000000345,-3.514211111539621069
0.514000000000000346,-3.494803881628745668
0.515000000000000346,-3.475527734657205770
0.516000000000000347,-3.456379906452768047
0.517000000000000348,-3.437357698669019523
0.518000000000000349,-3.418458478074736462
0.519000000000000350,-3.399679675822079084
0.520000000000000351,-3.381018786695007883
0.521000000000000352,-3.362473368339511381
0.522000000000000353,-3.344041040476948723
0.523000000000000353,-3.325719484101958834
0.524000000000000354,-3.307506440666258207
0.525000000000000355,-3.289399711249534786
0.526000000000000356,-3.271397155718714256
0.527000000000000357,-3.253496691876817781
0.528000000000000358,-3.235696294602415257
0.529000000000000359,-3.217993994980935746
0.530000000000000360,-3.200387879428730376
0.531000000000000361,-3.182876088811004589
0.532000000000000361,-3.165456817554527014
0.533000000000000362,-3.148128312756060865
0.534000000000000363,-3.130888873287409613
0.535000000000000364,-3.113736848897919351
0.536000000000000365,-3.096670639315262985
0.537000000000000366,-3.079688693345280726
0.538000000000000367,-3.062789507971596326
0.539000000000000368,-3.045971627455802633
0.540000000000000369,-3.029233642438759588
0.541000000000000369,-3.012574189043813355
0.542000000000000370,-2.995991947982403314
0.543000000000000371,-2.979485643662743044
0.544000000000000372,-2.963054043302096208
0.545000000000000373,-2.946695956043189568
0.546000000000000374,-2.930410232075236543
0.547000000000000375,-2.914195761760074443
0.548000000000000376,-2.898051474763892355
0.549000000000000377,-2.881976339194905812
0.550000000000000377,-2.865969360747434358
0.551000000000000378,-2.850029581852743465
0.552000000000000379,-2.834156080837025193
0.553000000000000380,-2.818347971086817783
0.554000000000000381,-2.802604400222193703
0.555000000000000382,-2.786924549278060770
0.556000000000000383,-2.771307631893734857
0.557000000000000384,-2.755752893511182133
0.558000000000000385,-2.740259610582038707
0.559000000000000385,-2.724827089783727452
0.560000000000000386,-2.709454667244813209
0.561000000000000387,-2.694141707779806882
0.562000000000000388,-2.678887604133592060
0.563000000000000389,-2.663691776235631359
0.564000000000000390,-2.648553670464071974
0.565000000000000391,-2.633472758919912504
0.566000000000000392,-2.618448538711313667
0.567000000000000393,-2.603480531248197671
0.568000000000000393,-2.588568281547160677
0.569000000000000394,-2.573711357546827561
0.570000000000000395,-2.558909349433729385
0.571000000000000396,-2.544161868978670249
0.572000000000000397,-2.529468548883754941
0.573000000000000398,-2.514829042139986370
0.574000000000000399,-2.500243021395568199
0.575000000000000400,-2.485710178334838094
0.576000000000000401,-2.471230223067886644
0.577000000000000401,-2.456802883530890824
0.578000000000000402,-2.442427904897061630
0.579000000000000403,-2.428105048998264071
0.580000000000000404,-2.413834093757293964
0.581000000000000405,-2.399614832630700967
0.582000000000000406,-2.385447074062218675
0.583000000000000407,-2.371330640946674784
0.584000000000000408,-2.357265370104404845
0.585000000000000409,-2.343251111766044836
0.586000000000000409,-2.329287729067697210
0.587000000000000410,-2.315375097556395367
0.588000000000000411,-2.301513104705752433
0.589000000000000412,-2.287701649441800544
0.590000000000000413,-2.273940641678850128
0.591000000000000414,-2.260230001865364269
0.592000000000000415,-2.246569660539733615
0.593000000000000416,-2.232959557895833225
0.594000000000000417,-2.219399643358308971
0.595000000000000417,-2.205889875167518444
0.596000000000000418,-2.192430219973911854
0.597000000000000419,-2.179020652441944428
0.598000000000000420,-2.165661154863195215
0.599000000000000421,-2.152351716778783786
0.600000000000000422,-2.139092334610839252
0.601000000000000423,-2.125883011302988734
0.602000000000000424,-2.112723755969716954
0.603000000000000425,-2.099614583554513469
0.604000000000000425,-2.086555514496642783
0.605000000000000426,-2.073546574406484488
0.606000000000000427,-2.060587793749314223
0.607000000000000428,-2.047679207537300705
0.608000000000000429,-2.034820855029834341
0.609000000000000430,-2.022012779441770824
0.610000000000000431,-2.009255027659748727
0.611000000000000432,-1.996547649966264881
