# CaO001_CS-29107-AC
# h[nm],U(h)[kJ/mol]
0.200000000000000011,65.967088667426722282
0.201000000000000012,65.694750790935970031
0.202000000000000013,64.525300678282889066
0.203000000000000014,62.970426056717577978
0.204000000000000015,61.313209634443843754
0.205000000000000016,59.693654429956552576
0.206000000000000016,58.166345329165004330
0.207000000000000017,56.738395905503594463
0.208000000000000018,55.393638746911300075
0.209000000000000019,54.107378359167434212
0.210000000000000020,52.854806138397734117
0.211000000000000021,51.615275295581717785
0.212000000000000022,50.373971939045375734
0.213000000000000023,49.122037034735775762
0.214000000000000024,47.855847075849730743
0.215000000000000024,46.575914332582769362
0.216000000000000025,45.285694259203808087
0.217000000000000026,43.990468208178981513
0.218000000000000027,42.696389184100596026
0.219000000000000028,41.409725882603176217
0.220000000000000029,40.136307490058058534
0.221000000000000030,38.881152630621699018
0.222000000000000031,37.648256038058590889
0.223000000000000032,36.440502828470314967
0.224000000000000032,35.259680399392138384
0.225000000000000033,34.106560400362873509
0.226000000000000034,32.981026826462176871
0.227000000000000035,31.882230356792934600
0.228000000000000036,30.808753130963545175
0.229000000000000037,29.758771948167879628
0.230000000000000038,28.730211232697534740
0.231000000000000039,27.720879970210972942
0.232000000000000040,26.728589170962948174
0.233000000000000040,25.751248284899777019
0.234000000000000041,24.786940424782663683
0.235000000000000042,23.833977303013611504
0.236000000000000043,22.890935514328056399
0.237000000000000044,21.956676257272725650
0.238000000000000045,21.030350835529404208
0.239000000000000046,20.111394363179098121
0.240000000000000047,19.199510057153627685
0.241000000000000048,18.294646370307980021
0.242000000000000048,17.396969028628110010
0.243000000000000049,16.506829809397629560
0.244000000000000050,15.624733652094125347
0.245000000000000051,14.751305444492007979
0.246000000000000052,13.887257583424275964
0.247000000000000053,13.033359180362060314
0.248000000000000054,12.190407571414898058
0.249000000000000055,11.359202602552764816
0.250000000000000056,10.540523995270721258
0.251000000000000056,9.735111955837652431
0.252000000000000057,8.943651072091368448
0.253000000000000058,8.166757444237829233
0.254000000000000059,7.404968918631075425
0.255000000000000060,6.658738234151615920
0.256000000000000061,5.928428847529287893
0.257000000000000062,5.214313174711850962
0.258000000000000063,4.516572968143597322
0.259000000000000064,3.835301542667864716
0.260000000000000064,3.170507563913354865
0.261000000000000065,2.522120120832830992
0.262000000000000066,1.889994817061651178
0.263000000000000067,1.273920632658374741
0.264000000000000068,0.673627327445399215
0.265000000000000069,0.088793178615079432
0.266000000000000070,-0.480947132310871051
0.267000000000000071,-1.035994645366250078
0.268000000000000071,-1.576778400608847663
0.269000000000000072,-2.103747987151416421
0.270000000000000073,-2.617366460008009987
0.271000000000000074,-3.118103702568085112
0.272000000000000075,-3.606430294532005032
0.273000000000000076,-4.082811928734248141
0.274000000000000077,-4.547704405504384262
0.275000000000000078,-5.001549220083188807
0.276000000000000079,-5.444769747100196788
0.277000000000000079,-5.877768016181041943
0.278000000000000080,-6.300922064312926452
0.279000000000000081,-6.714583843571023003
0.280000000000000082,-7.119077657094517342
0.281000000000000083,-7.514699091695382194
0.282000000000000084,-7.901714412073720162
0.283000000000000085,-8.280360379191337827
0.284000000000000086,-8.650844453811188828
0.285000000000000087,-9.013345345435574529
0.286000000000000087,-9.368013866772738396
0.287000000000000088,-9.714974054330035358
0.288000000000000089,-10.054324516684060242
0.289000000000000090,-10.386139973330715591
0.290000000000000091,-10.710472948692999040
0.291000000000000092,-11.027355587795192093
0.292000000000000093,-11.336801562233171481
0.293000000000000094,-11.638808037328573164
0.294000000000000095,-11.933357673699459767
0.295000000000000095,-12.220420638869594399
0.296000000000000096,-12.499956606934185643
0.297000000000000097,-12.771916726672447595
0.298000000000000098,-13.036245540817372301
0.299000000000000099,-13.292882841441542752
0.300000000000000100,-13.541765448573894304
0.301000000000000101,-13.782828901215063766
0.302000000000000102,-14.016009051854121381
0.303000000000000103,-14.241243557403858944
0.304000000000000103,-14.458473261155077694
0.305000000000000104,-14.667643461904594560
0.306000000000000105,-14.868705067833044353
0.307000000000000106,-15.061615633998567176
0.308000000000000107,-15.246340283474797417
0.309000000000000108,-15.422852513197010893
0.310000000000000109,-15.591134886496888612
0.311000000000000110,-15.751179615104456744
0.312000000000000111,-15.902989034087388731
0.313000000000000111,-16.046575973782427837
0.314000000000000112,-16.181964033263273706
0.315000000000000113,-16.309187760287446878
0.316000000000000114,-16.428292742979067498
0.317000000000000115,-16.539335618741993983
0.318000000000000116,-16.642384006064805391
0.319000000000000117,-16.737516364982457873
0.320000000000000118,-16.824821792004705401
0.321000000000000119,-16.904399755316259046
0.322000000000000119,-16.976359776001430646
0.323000000000000120,-17.040821060954904453
0.324000000000000121,-17.097912093013754031
0.325000000000000122,-17.147770183689125645
0.326000000000000123,-17.190540993694348515
0.327000000000000124,-17.226378026262779031
0.328000000000000125,-17.255442098028812126
0.329000000000000126,-17.277900792010910891
0.330000000000000127,-17.293927896991583282
0.331000000000000127,-17.303702837337095133
0.332000000000000128,-17.307410097043543828
0.333000000000000129,-17.305238641537023625
0.334000000000000130,-17.297381340496720270
0.335000000000000131,-17.284034394713248872
0.336000000000000132,-17.265396769740270599
0.337000000000000133,-17.241669638849575819
0.338000000000000134,-17.213055837557035943
0.339000000000000135,-17.179759331751721874
0.340000000000000135,-17.141984701233724309
0.341000000000000136,-17.099936640247797470
0.342000000000000137,-17.053819476391545606
0.343000000000000138,-17.003836709077848610
0.344000000000000139,-16.950190568542840452
0.345000000000000140,-16.893081596212606854
0.346000000000000141,-16.832708247074059216
0.347000000000000142,-16.769266514538589519
0.348000000000000143,-16.702949578140700027
0.349000000000000143,-16.633947474277544387
0.350000000000000144,-16.562446790069962788
0.351000000000000145,-16.488630380309366785
0.352000000000000146,-16.412677107349438188
0.353000000000000147,-16.334761603704663457
0.354000000000000148,-16.255054057030772441
0.355000000000000149,-16.173720017083354605
0.356000000000000150,-16.090920224181047615
0.357000000000000151,-16.006810458637513506
0.358000000000000151,-15.921541410572022102
0.359000000000000152,-15.835258569461242217
0.360000000000000153,-15.748102132754690174
0.361000000000000154,-15.660206932842097416
0.362000000000000155,-15.571702381633269141
0.363000000000000156,-15.482712431988790769
0.364000000000000157,-15.393355555222651532
0.365000000000000158,-15.303744733886205154
0.366000000000000159,-15.213987469034748301
0.367000000000000159,-15.124185801174794719
0.368000000000000160,-15.034436344090380544
0.369000000000000161,-14.944830330750360048
0.370000000000000162,-14.855453670505568198
0.371000000000000163,-14.766387016794604747
0.372000000000000164,-14.677705844588952999
0.373000000000000165,-14.589480536822946988
0.374000000000000166,-14.501776479070443315
0.375000000000000167,-14.414654161748339689
0.376000000000000167,-14.328169289147089316
0.377000000000000168,-14.242372894609189871
0.378000000000000169,-14.157311461198897717
0.379000000000000170,-14.073027047229889064
0.380000000000000171,-13.989557416040796056
0.381000000000000172,-13.906936169433731010
0.382000000000000173,-13.825192884215004696
0.383000000000000174,-13.744353251303030206
0.384000000000000175,-13.664439216893317308
0.385000000000000175,-13.585469125195718476
0.386000000000000176,-13.507457862284720562
0.387000000000000177,-13.430417000628136037
0.388000000000000178,-13.354354943884832352
0.389000000000000179,-13.279277071586232495
0.390000000000000180,-13.205185883340703867
0.391000000000000181,-13.132081142223333003
0.392000000000000182,-13.059960017036834401
0.393000000000000183,-12.988817223151798430
0.394000000000000183,-12.918645161656275633
0.395000000000000184,-12.849434056566362727
0.396000000000000185,-12.781172089869505371
0.397000000000000186,-12.713845534192614650
0.398000000000000187,-12.647438882906049784
0.399000000000000188,-12.581934977493085981
0.400000000000000189,-12.517315132032109659
0.401000000000000190,-12.453559254655957034
0.402000000000000191,-12.390645965868932521
0.403000000000000191,-12.328552713617527914
0.404000000000000192,-12.267255885025750928
0.405000000000000193,-12.206730914719901904
0.406000000000000194,-12.146952389680949480
0.407000000000000195,-12.087894150575326790
0.408000000000000196,-12.029529389526750549
0.409000000000000197,-11.971830744302881300
0.410000000000000198,-11.914770388901306575
0.411000000000000199,-11.858320120528919261
0.412000000000000199,-11.802451442978219021
0.413000000000000200,-11.747135646412603549
0.414000000000000201,-11.692343883580663899
0.415000000000000202,-11.638047242486878829
0.416000000000000203,-11.584216815553123325
0.417000000000000204,-11.530823765311509987
0.418000000000000205,-11.477839386674942190
0.419000000000000206,-11.425235165837158036
0.420000000000000207,-11.372982835858504558
0.421000000000000207,-11.321054428998531094
0.422000000000000208,-11.269422325859782319
0.423000000000000209,-11.218059301411241080
0.424000000000000210,-11.166938567962494844
0.425000000000000211,-11.116033815162561282
0.426000000000000212,-11.065319247099843381
0.427000000000000213,-11.014769616581221001
0.428000000000000214,-10.964360256670468985
0.429000000000000214,-10.914067109567163527
0.430000000000000215,-10.863866752908529989
0.431000000000000216,-10.813736423577507750
0.432000000000000217,-10.763654039100726933
0.433000000000000218,-10.713598216720480849
0.434000000000000219,-10.663548290225012494
0.435000000000000220,-10.613484324621147437
0.436000000000000221,-10.563387128733065623
0.437000000000000222,-10.513238265810613825
0.438000000000000222,-10.463020062229848151
0.439000000000000223,-10.412715614367751726
0.440000000000000224,-10.362308793732138312
0.441000000000000225,-10.311784250426677900
0.442000000000000226,-10.261127415029971388
0.443000000000000227,-10.210324498966024009
0.444000000000000228,-10.159362493442516850
0.445000000000000229,-10.108229167031534956
0.446000000000000230,-10.056913061965868650
0.447000000000000230,-10.005403489222784330
0.448000000000000231,-9.953690522465102219
0.449000000000000232,-9.901764990907876651
0.450000000000000233,-9.849618471177475243
0.451000000000000234,-9.797243278227636409
0.452000000000000235,-9.744632455375720426
0.453000000000000236,-9.691779763520232294
0.454000000000000237,-9.638679669599181210
0.455000000000000238,-9.585327334346542827
0.456000000000000238,-9.531718599402765335
0.457000000000000239,-9.477849973832956465
0.458000000000000240,-9.423718620104903465
0.459000000000000241,-9.369322339576800829
0.460000000000000242,-9.314659557543288670
0.461000000000000243,-9.259729307885990579
0.462000000000000244,-9.204531217373480345
0.463000000000000245,-9.149065489653240846
0.464000000000000246,-9.093332888977107231
0.465000000000000246,-9.037334723699263606
0.466000000000000247,-8.981072829584642037
0.467000000000000248,-8.924549552963600973
0.468000000000000249,-8.867767733767372818
0.469000000000000250,-8.810730688476779093
0.470000000000000251,-8.753442193015564143
0.471000000000000252,-8.695906465617698089
0.472000000000000253,-8.638128149696965963
0.473000000000000254,-8.580112296745163292
0.474000000000000254,-8.521864349284241413
0.475000000000000255,-8.463390123895957018
0.476000000000000256,-8.404695794351555449
0.477000000000000257,-8.345787874862388378
0.478000000000000258,-8.286673203471274007
0.479000000000000259,-8.227358925603065032
0.480000000000000260,-8.167852477791761601
0.481000000000000261,-8.108161571600129847
0.482000000000000262,-8.048294177746976530
0.483000000000000262,-7.988258510455843009
0.484000000000000263,-7.928063012037929624
0.485000000000000264,-7.867716337721097020
0.486000000000000265,-7.807227340735731325
0.487000000000000266,-7.746605057667311556
0.488000000000000267,-7.685858694084660492
0.489000000000000268,-7.624997610451987207
0.490000000000000269,-7.564031308331872872
0.491000000000000270,-7.502969416885770571
0.492000000000000270,-7.441821679677535606
0.493000000000000271,-7.380597941785053351
0.494000000000000272,-7.319308137224159516
0.495000000000000273,-7.257962276688282088
0.496000000000000274,-7.196570435606976623
0.497000000000000275,-7.135142742525414583
0.498000000000000276,-7.073689367806700545
0.499000000000000277,-7.012220512658176474
0.500000000000000222,-6.950746398482280597
0.501000000000000334,-6.889277256552263751
0.502000000000000224,-6.827823318012375076
0.503000000000000336,-6.766394804201683044
0.504000000000000226,-6.705001917300634773
0.505000000000000338,-6.643654831298396957
0.506000000000000227,-6.582363683279505828
0.507000000000000339,-6.521138565027105649
0.508000000000000229,-6.459989514940555289
0.509000000000000341,-6.398926510264163703
0.510000000000000231,-6.337959459624250336
0.511000000000000343,-6.277098195870634001
0.512000000000000233,-6.216352469219307508
0.513000000000000345,-6.155731940691939741
0.514000000000000234,-6.095246175848593850
0.515000000000000346,-6.034904638808734845
0.516000000000000236,-5.974716686556635459
0.517000000000000348,-5.914691563526048412
0.518000000000000238,-5.854838396459738803
0.519000000000000350,-5.795166189538583978
0.520000000000000240,-5.735683819775550418
0.521000000000000352,-5.676400032669135953
0.522000000000000242,-5.617323438111261780
0.523000000000000353,-5.558462506544062265
0.524000000000000243,-5.499825565360461965
0.525000000000000355,-5.441420795542886601
0.526000000000000245,-5.383256228534800236
0.527000000000000357,-5.325339743339368326
0.528000000000000247,-5.267679063839942444
0.529000000000000359,-5.210281756336550885
0.530000000000000249,-5.153155227293075846
0.531000000000000361,-5.096306721289288966
0.532000000000000250,-5.039743319172489855
0.533000000000000362,-4.983471936402853686
0.534000000000000252,-4.927499321587279546
0.535000000000000364,-4.871832055195955746
0.536000000000000254,-4.816476548456462226
0.537000000000000366,-4.761439042419592482
0.538000000000000256,-4.706725607191984295
0.539000000000000368,-4.652342141329676828
0.540000000000000258,-4.598294371387861901
0.541000000000000369,-4.544587851620995878
0.542000000000000259,-4.491227963828698044
0.543000000000000371,-4.438219917341778675
0.544000000000000261,-4.385568749143745393
0.545000000000000373,-4.333279324122551124
0.546000000000000263,-4.281356335447901174
0.547000000000000375,-4.229804305068926240
0.548000000000000265,-4.178627584328029165
0.549000000000000377,-4.127830354685544378
0.550000000000000266,-4.077416628551239874
0.551000000000000378,-4.027390250217695034
0.552000000000000268,-3.977754896891386949
0.553000000000000380,-3.928514079816969762
0.554000000000000270,-3.879671145490676487
0.555000000000000382,-3.831229276958381114
0.556000000000000272,-3.783191495194624387
0.557000000000000384,-3.735560660558144175
0.558000000000000274,-3.688339474320479816
0.559000000000000385,-3.641530480263361458
0.560000000000000275,-3.595136066341600323
0.561000000000000387,-3.549158466407418278
0.562000000000000277,-3.503599761993005046
0.563000000000000389,-3.458461884147585153
0.564000000000000279,-3.413746615325803813
0.565000000000000391,-3.369455591323987420
0.566000000000000281,-3.325590303261214409
0.567000000000000393,-3.282152099601918671
0.568000000000000282,-3.239142188217233986
0.569000000000000394,-3.196561638481801637
0.570000000000000284,-3.154411383403580516
0.571000000000000396,-3.112692221783480928
0.572000000000000286,-3.071404820402511504
0.573000000000000398,-3.030549716233462032
0.574000000000000288,-2.990127318674927093
0.575000000000000400,-2.950137911804977087
0.576000000000000290,-2.910581656652256655
0.577000000000000401,-2.871458593482112853
0.578000000000000291,-2.832768644095655652
0.579000000000000403,-2.794511614139458811
0.580000000000000293,-2.756687195424031955
0.581000000000000405,-2.719294968248829214
0.582000000000000295,-2.682334403732169470
0.583000000000000407,-2.645804866143896206
0.584000000000000297,-2.609705615239290122
0.585000000000000409,-2.574035808592291197
0.586000000000000298,-2.538794503926590895
0.587000000000000410,-2.503980661442787969
0.588000000000000300,-2.469593146140346640
0.589000000000000412,-2.435630730132630983
0.590000000000000302,-2.402092094953879542
0.591000000000000414,-2.368975833856605817
0.592000000000000304,-2.336280454098257575
0.593000000000000416,-2.304004379215815135
0.594000000000000306,-2.272145951287319665
0.595000000000000417,-2.240703433179050741
0.596000000000000307,-2.209675010777451654
0.597000000000000419,-2.179058795204682042
0.598000000000000309,-2.148852825016961177
0.599000000000000421,-2.119055068384672946
0.600000000000000311,-2.089663425253527329
0.601000000000000423,-2.060675729485797358
0.602000000000000313,-2.032089750981096454
0.603000000000000425,-2.003903197775677381
0.604000000000000314,-1.976113718119956841
0.605000000000000426,-1.948718902533219666
0.606000000000000316,-1.921716285835309179
0.607000000000000428,-1.895103349154403372
0.608000000000000318,-1.868877521910663919
0.609000000000000430,-1.843036183775006664
0.610000000000000320,-1.817576666602818136
0.611000000000000432,-1.792496256341956196
0.612000000000000322,-1.767792194914892479
0.613000000000000433,-1.743461682074465058
0.614000000000000323,-1.719501877233088338
0.615000000000000435,-1.695909901265012509
0.616000000000000325,-1.672682838281499995
0.617000000000000437,-1.649817737378581839
0.618000000000000327,-1.627311614357331182
0.619000000000000439,-1.605161453416342310
0.620000000000000329,-1.583364208816415930
0.621000000000000441,-1.561916806517225087
0.622000000000000330,-1.540816145785948388
0.623000000000000442,-1.520059100777715111
0.624000000000000332,-1.499642522087924368
0.625000000000000444,-1.479563238276296211
0.626000000000000334,-1.459818057362749943
0.627000000000000446,-1.440403768295029252
0.628000000000000336,-1.421317142388193844
0.629000000000000448,-1.402554934735938952
0.630000000000000338,-1.384113885593918125
0.631000000000000449,-1.365990721735002245
0.632000000000000339,-1.348182157776744772
0.633000000000000451,-1.330684897481003715
0.634000000000000341,-1.313495635025988317
0.635000000000000453,-1.296611056250753347
0.636000000000000343,-1.280027839872380335
0.637000000000000455,-1.263742658675958808
0.638000000000000345,-1.247752180677594636
0.639000000000000457,-1.232053070260548999
0.640000000000000346,-1.216641989284833247
0.641000000000000458,-1.201515598170331156
0.642000000000000348,-1.186670556953792310
0.643000000000000460,-1.172103526319802302
0.644000000000000350,-1.157811168606103891
0.645000000000000462,-1.143790148783357719
0.646000000000000352,-1.130037135409749371
0.647000000000000464,-1.116548801560541815
0.648000000000000353,-1.103321825733016848
0.649000000000000465,-1.090352892726867307
0.650000000000000355,-1.077638694500541394
0.651000000000000467,-1.065175931003600196
0.652000000000000357,-1.052961310985564669
0.653000000000000469,-1.040991552781391771
0.654000000000000359,-1.029263385073995174
0.655000000000000471,-1.017773547633989306
0.656000000000000361,-1.006518792037091936
0.657000000000000473,-0.995495882359343498
0.658000000000000362,-0.984701595850588474
0.659000000000000474,-0.974132723586409455
