# CaO001_CS-10309795-AC
# h[nm],U(h)[kJ/mol]
0.200000000000000011,56.680919011250672668
0.201000000000000012,56.399933738478964074
0.202000000000000013,55.279506911785929901
0.203000000000000014,53.792384245016172883
0.204000000000000015,52.201982512145626458
0.205000000000000016,50.640300757845260193
0.206000000000000016,49.160524380468800132
0.207000000000000017,47.771710171345269202
0.208000000000000018,46.460956356827026070
0.209000000000000019,45.206976865510512198
0.210000000000000020,43.987894008262841794
0.211000000000000021,42.785246569982611220
0.212000000000000022,41.585610367370421159
0.213000000000000023,40.380791567516396867
0.214000000000000024,39.167238227471003142
0.215000000000000024,37.945091224658526130
0.216000000000000025,36.717138229980918140
0.217000000000000026,35.487825701400410594
0.218000000000000027,34.262410592315831082
0.219000000000000028,33.046285538457887299
0.220000000000000029,31.844481269118908529
0.221000000000000030,30.661332410320017772
0.222000000000000031,29.500283718960258028
0.223000000000000032,28.363810230027542758
0.224000000000000032,27.253424764291811044
0.225000000000000033,26.169748295634349233
0.226000000000000034,25.112621829619367730
0.227000000000000035,24.081242039708588010
0.228000000000000036,23.074306521401883430
0.229000000000000037,22.090157900799031410
0.230000000000000038,21.126919031601111953
0.231000000000000039,20.182614070937017203
0.232000000000000040,19.255272328722078612
0.233000000000000040,18.343013458904753321
0.234000000000000041,17.444113843957008925
0.235000000000000042,16.557054965595511931
0.236000000000000043,15.680555207201873458
0.237000000000000044,14.813586947832106944
0.238000000000000045,13.955381031532590796
0.239000000000000046,13.105420771414467040
0.240000000000000047,12.263427612499208763
0.241000000000000048,11.429340462026573277
0.242000000000000048,10.603290526591901966
0.243000000000000049,9.785573293084887325
0.244000000000000050,8.976619071459776222
0.245000000000000051,8.176963294553875272
0.246000000000000052,7.387217552926562902
0.247000000000000053,6.608042137716459763
0.248000000000000054,5.840120676309521919
0.249000000000000055,5.084137276886833590
0.250000000000000056,4.340756449998567135
0.251000000000000056,3.610605948442559221
0.252000000000000057,2.894262560375326476
0.253000000000000058,2.192240803650368886
0.254000000000000059,1.504984400382167964
0.255000000000000060,0.832860357968338016
0.256000000000000061,0.176155444439991399
0.257000000000000062,-0.464925179797116228
0.258000000000000063,-1.090257426832942356
0.259000000000000064,-1.699796101783668689
0.260000000000000064,-2.293571336665018556
0.261000000000000065,-2.871683887978514260
0.262000000000000066,-3.434299536442252609
0.263000000000000067,-3.981642811893984835
0.264000000000000068,-4.513990248542536499
0.265000000000000069,-5.031663356312309432
0.266000000000000070,-5.535021473746355447
0.267000000000000071,-6.024454647417440079
0.268000000000000071,-6.500376662534002037
0.269000000000000072,-6.963218329813587459
0.270000000000000073,-7.413421115030262243
0.271000000000000074,-7.851431180148455091
0.272000000000000075,-8.277693888789720233
0.273000000000000076,-8.692648814037893246
0.274000000000000077,-9.096725273323844618
0.275000000000000078,-9.490338403353074881
0.276000000000000079,-9.873885777726419732
0.277000000000000079,-10.247744561011289832
0.278000000000000080,-10.612269185479288325
0.279000000000000081,-10.967789530459441494
0.280000000000000082,-11.314609579171191811
0.281000000000000083,-11.653006523904267056
0.282000000000000084,-11.983230287401770653
0.283000000000000085,-12.305503426179649651
0.284000000000000086,-12.620021380181622561
0.285000000000000087,-12.926953032524915344
0.286000000000000087,-13.226441543050942329
0.287000000000000088,-13.518605419866124961
0.288000000000000089,-13.803539793961698834
0.289000000000000090,-14.081317863263103973
0.290000000000000091,-14.351992474008261169
0.291000000000000092,-14.615597809130568052
0.292000000000000093,-14.872151155267317790
0.293000000000000094,-15.121654722079753697
0.294000000000000095,-15.364097489711692646
0.295000000000000095,-15.599457062392037443
0.296000000000000096,-15.827701508368017258
0.297000000000000097,-16.048791168513609762
0.298000000000000098,-16.262680418066530308
0.299000000000000099,-16.469319367988312308
0.300000000000000100,-16.668655494398791461
0.301000000000000101,-16.860635186397455954
0.302000000000000102,-17.045205204337939620
0.303000000000000103,-17.222314042265008283
0.304000000000000103,-17.391913189746933455
0.305000000000000104,-17.553958289742162435
0.306000000000000105,-17.708410190423915509
0.307000000000000106,-17.855235890052025383
0.308000000000000107,-17.994409375030180342
0.309000000000000108,-18.125912352221416057
0.310000000000000109,-18.249734877420017654
0.311000000000000110,-18.365875882597674007
0.312000000000000111,-18.474343605162530935
0.313000000000000111,-18.575155922995925550
0.314000000000000112,-18.668340599469829044
0.315000000000000113,-18.753935443004230876
0.316000000000000114,-18.831988386004407943
0.317000000000000115,-18.902557488228190152
0.318000000000000116,-18.965710869780735948
0.319000000000000117,-19.021526579023440462
0.320000000000000118,-19.070092400720760395
0.321000000000000119,-19.111505609739730005
0.322000000000000119,-19.145872675566373289
0.323000000000000120,-19.173308922816488575
0.324000000000000121,-19.193938152800456010
0.325000000000000122,-19.207892231056355570
0.326000000000000123,-19.215310645597963202
0.327000000000000124,-19.216340040436730163
0.328000000000000125,-19.211133728734900217
0.329000000000000126,-19.199851189731838019
0.330000000000000127,-19.182657553361629255
0.331000000000000127,-19.159723076249854046
0.332000000000000128,-19.131222612542490680
0.333000000000000129,-19.097335082783590821
0.334000000000000130,-19.058242943821714022
0.335000000000000131,-19.014131662490846963
0.336000000000000132,-18.965189195579419845
0.337000000000000133,-18.911605478374827527
0.338000000000000134,-18.853571923849532510
0.339000000000000135,-18.791280934340136355
0.340000000000000135,-18.724925427364375707
0.341000000000000136,-18.654698377021624367
0.342000000000000137,-18.580792372232654230
0.343000000000000138,-18.503399192893123626
0.344000000000000139,-18.422709404843388370
0.345000000000000140,-18.338911974395223581
0.346000000000000141,-18.252193903002979170
0.347000000000000142,-18.162739882524011392
0.348000000000000143,-18.070731971379856873
0.349000000000000143,-17.976349291805423292
0.350000000000000144,-17.879767748259361326
0.351000000000000145,-17.781159766963043012
0.352000000000000146,-17.680694056439286044
0.353000000000000147,-17.578535388834104936
0.354000000000000148,-17.474844401725164289
0.355000000000000149,-17.369777420049114625
0.356000000000000150,-17.263486297716205797
0.357000000000000151,-17.156118278424017376
0.358000000000000151,-17.047815875132492636
0.359000000000000152,-16.938716767619538928
0.360000000000000153,-16.828953717499679499
0.361000000000000154,-16.718654500057372303
0.362000000000000155,-16.607941852220978518
0.363000000000000156,-16.496933435983436311
0.364000000000000157,-16.385741816559548312
0.365000000000000158,-16.274474454559531011
0.366000000000000159,-16.163233711450608610
0.367000000000000159,-16.052116867575637826
0.368000000000000160,-15.941216151998068185
0.369000000000000161,-15.830618783445341791
0.370000000000000162,-15.720407021629586808
0.371000000000000163,-15.610658228232995981
0.372000000000000164,-15.501444936856156431
0.373000000000000165,-15.392834931241328178
0.374000000000000166,-15.284891331096904565
0.375000000000000167,-15.177672684866461594
0.376000000000000167,-15.071233068803499222
0.377000000000000168,-14.965622191732103730
0.378000000000000169,-14.860885504893991182
0.379000000000000170,-14.757064316303518225
0.380000000000000171,-14.654195909053516544
0.381000000000000172,-14.552313663037514502
0.382000000000000173,-14.451447179575936275
0.383000000000000174,-14.351622408457274105
0.384000000000000175,-14.252861776927563398
0.385000000000000175,-14.155184320185082214
0.386000000000000176,-14.058605812959786618
0.387000000000000177,-13.963138901779757362
0.388000000000000178,-13.868793237549837727
0.389000000000000179,-13.775575608089457802
0.390000000000000180,-13.683490070298883978
0.391000000000000181,-13.592538081644381265
0.392000000000000182,-13.502718630673967937
0.393000000000000183,-13.414028366295749350
0.394000000000000183,-13.326461725570917238
0.395000000000000184,-13.240011059792726300
0.396000000000000185,-13.154666758641713642
0.397000000000000186,-13.070417372225247021
0.398000000000000187,-12.987249730827377547
0.399000000000000188,-12.905149062211354050
0.400000000000000189,-12.824099106333695985
0.401000000000000190,-12.744082227343950464
0.402000000000000191,-12.665079522759278063
0.403000000000000191,-12.587070929716874801
0.404000000000000192,-12.510035328221059459
0.405000000000000193,-12.433950641314298835
0.406000000000000194,-12.358793932113826486
0.407000000000000195,-12.284541497666964460
0.408000000000000196,-12.211168959588951211
0.409000000000000197,-12.138651351457525607
0.410000000000000198,-12.066963202948011613
0.411000000000000199,-11.996078620701648987
0.412000000000000199,-11.925971365928361934
0.413000000000000200,-11.856614928753163696
0.414000000000000201,-11.787982599322496924
0.415000000000000202,-11.720047535693696616
0.416000000000000203,-11.652782828537159077
0.417000000000000204,-11.586161562686358550
0.418000000000000205,-11.520156875576340383
0.419000000000000206,-11.454742012616137004
0.420000000000000207,-11.389890379544823418
0.421000000000000207,-11.325575591825284505
0.422000000000000208,-11.261771521132793339
0.423000000000000209,-11.198452338999356215
0.424000000000000210,-11.135592557677162162
0.425000000000000211,-11.073167068287101955
0.426000000000000212,-11.011151176320719713
0.427000000000000213,-10.949520634565356403
0.428000000000000214,-10.888251673524422358
0.429000000000000214,-10.827321029405435837
0.430000000000000215,-10.766705969749917671
0.431000000000000216,-10.706384316779899990
0.432000000000000217,-10.646334468536204909
0.433000000000000218,-10.586535417884281429
0.434000000000000219,-10.526966769463232509
0.435000000000000220,-10.467608754653960901
0.436000000000000221,-10.408442244641708641
0.437000000000000222,-10.349448761648314843
0.438000000000000222,-10.290610488408683310
0.439000000000000223,-10.231910275965452328
0.440000000000000224,-10.173331649854977954
0.441000000000000225,-10.114858814756814809
0.442000000000000226,-10.056476657678055986
0.443000000000000227,-9.998170749742376628
0.444000000000000228,-9.939927346652996931
0.445000000000000229,-9.881733387896947107
0.446000000000000230,-9.823576494756997235
0.447000000000000230,-9.765444967196208026
0.448000000000000231,-9.707327779678426083
0.449000000000000232,-9.649214575986684750
0.450000000000000233,-9.591095663099903135
0.451000000000000234,-9.532962004186675387
0.452000000000000235,-9.474805210773331154
0.453000000000000236,-9.416617534141828116
0.454000000000000237,-9.358391856011518684
0.455000000000000238,-9.300121678556868332
0.456000000000000238,-9.241801113811963120
0.457000000000000239,-9.183424872510578041
0.458000000000000240,-9.124988252409258038
0.459000000000000241,-9.066487126138884634
0.460000000000000242,-9.007917928628920379
0.461000000000000243,-8.949277644146432564
0.462000000000000244,-8.890563792990954894
0.463000000000000245,-8.831774417883902828
0.464000000000000246,-8.772908070090526422
0.465000000000000246,-8.713963795310014859
0.466000000000000247,-8.654941119368400493
0.467000000000000248,-8.595840033747091269
0.468000000000000249,-8.536660980978508562
0.469000000000000250,-8.477404839938779801
0.470000000000000251,-8.418072911066044384
0.471000000000000252,-8.358666901531449867
0.472000000000000253,-8.299188910388734186
0.473000000000000254,-8.239641413726726427
0.474000000000000254,-8.180027249847942272
0.475000000000000255,-8.120349604495096685
0.476000000000000256,-8.060611996146253233
0.477000000000000257,-8.000818261397949271
0.478000000000000258,-7.940972540454573902
0.479000000000000259,-7.881079262741190306
0.480000000000000260,-7.821143132655753227
0.481000000000000261,-7.761169115475725633
0.482000000000000262,-7.701162423433059345
0.483000000000000262,-7.641128501970480436
0.484000000000000263,-7.581073016191001379
0.485000000000000264,-7.521001837511851917
0.486000000000000265,-7.460921030532915665
0.487000000000000266,-7.400836840128961924
0.488000000000000267,-7.340755678774272042
0.489000000000000268,-7.280684114107271121
0.490000000000000269,-7.220628856742104418
0.491000000000000270,-7.160596748333436956
0.492000000000000270,-7.100594749899872049
0.493000000000000271,-7.040629930410942094
0.494000000000000272,-6.980709455641791905
0.495000000000000273,-6.920840577299140151
0.496000000000000274,-6.861030622421600000
0.497000000000000275,-6.801286983056714419
0.498000000000000276,-6.741617106216660993
0.499000000000000277,-6.682028484114100664
0.500000000000000222,-6.622528644678977727
0.501000000000000334,-6.563125142356905251
0.502000000000000224,-6.503825549189130584
0.503000000000000336,-6.444637446173643980
0.504000000000000226,-6.385568414906954260
0.505000000000000338,-6.326626029505090010
0.506000000000000227,-6.267817848802808456
0.507000000000000339,-6.209151408828827101
0.508000000000000229,-6.150634215555485618
0.509000000000000341,-6.092273737920048227
0.510000000000000231,-6.034077401115577111
0.511000000000000343,-5.976052580148008886
0.512000000000000233,-5.918206593656876180
0.513000000000000345,-5.860546697995981269
0.514000000000000234,-5.803080081571019733
0.515000000000000346,-5.745813859429998338
0.516000000000000236,-5.688755068103191981
0.517000000000000348,-5.631910660688222769
0.518000000000000238,-5.575287502176578869
0.519000000000000350,-5.518892365017023849
0.520000000000000240,-5.462731924911876646
0.521000000000000352,-5.406812756841551604
0.522000000000000242,-5.351141331313000293
0.523000000000000353,-5.295724010827346007
0.524000000000000243,-5.240567046562239817
0.525000000000000355,-5.185676575264063004
0.526000000000000245,-5.131058616345459455
0.527000000000000357,-5.076719069183124766
0.528000000000000247,-5.022663710611416477
0.529000000000000359,-4.968898192606582498
0.530000000000000249,-4.915428040157106437
0.531000000000000361,-4.862258649315014836
0.532000000000000250,-4.809395285423644140
0.533000000000000362,-4.756843081516659133
0.534000000000000252,-4.704607036883839299
0.535000000000000364,-4.652692015798555403
0.536000000000000254,-4.601102746402445653
0.537000000000000366,-4.549843819742135587
0.538000000000000256,-4.498919688953813889
0.539000000000000368,-4.448334668590420371
0.540000000000000258,-4.398092934087363126
0.541000000000000369,-4.348198521361636537
0.542000000000000259,-4.298655326540328225
0.543000000000000371,-4.249467105813562462
0.544000000000000261,-4.200637475407797972
0.545000000000000373,-4.152169911674890912
0.546000000000000263,-4.104067751292799215
0.547000000000000375,-4.056334191573381709
0.548000000000000265,-4.008972290873607847
0.549000000000000377,-3.961984969105450283
0.550000000000000266,-3.915375008341002605
0.551000000000000378,-3.869145053508395993
0.552000000000000268,-3.823297613174948317
0.553000000000000380,-3.777835060413447188
0.554000000000000270,-3.732759633748084838
0.555000000000000382,-3.688073438176073360
0.556000000000000272,-3.643778446261681125
0.557000000000000384,-3.599876499298768628
0.558000000000000274,-3.556369308538825269
0.559000000000000385,-3.513258456480672809
0.560000000000000275,-3.470545398218986666
0.561000000000000387,-3.428231462848045474
0.562000000000000277,-3.386317854917849868
0.563000000000000389,-3.344805655939357969
0.564000000000000279,-3.303695825936013186
0.565000000000000391,-3.262989205038525853
0.566000000000000281,-3.222686515120179340
0.567000000000000393,-3.182788361469815364
0.568000000000000282,-3.143295234499989377
0.569000000000000394,-3.104207511487417470
0.570000000000000284,-3.065525458343534293
0.571000000000000396,-3.027249231412361574
0.572000000000000286,-2.989378879293647095
0.573000000000000398,-2.951914344688616243
0.574000000000000288,-2.914855466266430550
0.575000000000000400,-2.878201980548939609
0.576000000000000290,-2.841953523811795890
0.577000000000000401,-2.806109633999763986
0.578000000000000291,-2.770669752654419504
0.579000000000000403,-2.735633226852177469
0.580000000000000293,-2.700999311150996895
0.581000000000000405,-2.666767169543796445
0.582000000000000295,-2.632935877417126314
0.583000000000000407,-2.599504423513186779
0.584000000000000297,-2.566471711893871355
0.585000000000000409,-2.533836563905093708
0.586000000000000298,-2.501597720140162906
0.587000000000000410,-2.469753842400559396
0.588000000000000300,-2.438303515653026388
0.589000000000000412,-2.407245249981433410
0.590000000000000302,-2.376577482532401753
0.591000000000000414,-2.346298579453348854
0.592000000000000304,-2.316406837821920917
0.593000000000000416,-2.286900487565641349
0.594000000000000306,-2.257777693370864647
0.595000000000000417,-2.229036556579921502
0.596000000000000307,-2.200675117075635345
0.597000000000000419,-2.172691355152211568
0.598000000000000309,-2.145083193371790653
0.599000000000000421,-2.117848498405684676
0.600000000000000311,-2.090985082859740718
0.601000000000000423,-2.064490707082907051
0.602000000000000313,-2.038363080958551343
0.603000000000000425,-2.012599865677603628
0.604000000000000314,-1.987198675493285549
0.605000000000000426,-1.962157079456464448
0.606000000000000316,-1.937472603131486393
0.607000000000000428,-1.913142730291653049
0.608000000000000318,-1.889164904594182959
0.609000000000000430,-1.865536531233970674
0.610000000000000320,-1.842254978575975199
0.611000000000000432,-1.819317579765664217
0.612000000000000322,-1.796721634317382410
0.613000000000000433,-1.774464409680148735
0.614000000000000323,-1.752543142780763175
0.615000000000000435,-1.730955041543854378
0.616000000000000325,-1.709697286388727422
0.617000000000000437,-1.688767031702743449
0.618000000000000327,-1.668161407291129716
0.619000000000000439,-1.647877519802970925
0.620000000000000329,-1.627912454133360498
0.621000000000000441,-1.608263274801516207
0.622000000000000330,-1.588927027304843254
0.623000000000000442,-1.569900739448785609
0.624000000000000332,-1.551181422652542441
0.625000000000000444,-1.532766073230501958
0.626000000000000334,-1.514651673649464181
0.627000000000000446,-1.496835193761612448
0.628000000000000336,-1.479313592013281609
0.629000000000000448,-1.462083816629528910
0.630000000000000338,-1.445142806774638577
0.631000000000000449,-1.428487493688495480
0.632000000000000339,-1.412114801799065233
0.633000000000000451,-1.396021649810931686
0.634000000000000341,-1.380204951770123811
0.635000000000000453,-1.364661618105247998
0.636000000000000343,-1.349388556645126025
0.637000000000000455,-1.334382673613052406
0.638000000000000345,-1.319640874597837854
0.639000000000000457,-1.305160065501754563
0.640000000000000346,-1.290937153465652187
0.641000000000000458,-1.276969047771294274
0.642000000000000348,-1.263252660721242204
0.643000000000000460,-1.249784908496338165
0.644000000000000350,-1.236562711991151531
0.645000000000000462,-1.223582997627431723
0.646000000000000352,-1.210842698145934593
0.647000000000000464,-1.198338753376716692
0.648000000000000353,-1.186068110988258928
0.649000000000000465,-1.174027727215496197
0.650000000000000355,-1.162214567567171564
0.651000000000000467,-1.150625607512581361
0.652000000000000357,-1.139257833148108690
0.653000000000000469,-1.128108241843682746
0.654000000000000359,-1.117173842869519262
0.655000000000000471,-1.106451658003289040
0.656000000000000361,-1.095938722118102948
0.657000000000000473,-1.085632083751453703
0.658000000000000362,-1.075528805655487918
0.659000000000000474,-1.065625965328782288
