# CaO001_HISTIDINEZWITTER
# h[nm],U(h)[kJ/mol]
0.149999999999999994,158.730139198678756429
0.150999999999999995,153.827279768333710308
0.151999999999999996,150.345863209660194570
0.152999999999999997,147.216959875216588216
0.153999999999999998,144.046012510858162159
0.154999999999999999,140.755619999935731812
0.156000000000000000,137.392729372230689933
0.157000000000000001,134.032582652011853952
0.158000000000000002,130.737234869348583288
0.159000000000000002,127.542993219346811884
0.160000000000000003,124.461690361374991198
0.161000000000000004,121.487320727381273855
0.162000000000000005,118.603608179848563964
0.163000000000000006,115.790457045402234826
0.164000000000000007,113.028578550702007988
0.165000000000000008,110.302283077641021691
0.166000000000000009,107.600745672045263746
0.167000000000000010,104.918153234807306262
0.168000000000000010,102.253129385423719100
0.169000000000000011,99.607768759235938205
0.170000000000000012,96.986531869211987100
0.171000000000000013,94.395173549313454942
0.172000000000000014,91.839811286962202530
0.173000000000000015,89.326187473460223032
0.174000000000000016,86.859141566261428125
0.175000000000000017,84.442282601610301640
0.176000000000000018,82.077837054816697560
0.177000000000000018,79.766639302439472203
0.178000000000000019,77.508229713477845735
0.179000000000000020,75.301026857899273637
0.180000000000000021,73.142544025184889733
0.181000000000000022,71.029625105872909785
0.182000000000000023,68.958680128120278141
0.183000000000000024,66.925905835557827572
0.184000000000000025,64.927481317109283054
0.185000000000000026,62.959732677789382649
0.186000000000000026,61.019264002581543593
0.187000000000000027,59.103054417160045375
0.188000000000000028,57.208522939945325447
0.189000000000000029,55.333564126992065724
0.190000000000000030,53.476558324081942430
0.191000000000000031,51.636360751045309314
0.192000000000000032,49.812273739453750920
0.193000000000000033,48.004006305879784122
0.194000000000000034,46.211624938101529381
0.195000000000000034,44.435499059093551466
0.196000000000000035,42.676244160694089658
0.197000000000000036,40.934665102668191139
0.198000000000000037,39.211701581643950476
0.199000000000000038,37.508377308431633423
0.200000000000000039,35.825754005332008489
0.201000000000000040,34.164890955641226356
0.202000000000000041,32.526810509876256106
0.203000000000000042,30.912469678231992987
0.204000000000000042,29.322737714985358082
0.205000000000000043,27.758379424847873906
0.206000000000000044,26.220043789372493137
0.207000000000000045,24.708257418557085572
0.208000000000000046,23.223422273570651697
0.209000000000000047,21.765817075877361475
0.210000000000000048,20.335601810955687085
0.211000000000000049,18.932824746644079994
0.212000000000000050,17.557431412641872015
0.213000000000000050,16.209275025084885158
0.214000000000000051,14.888127885096320568
0.215000000000000052,13.593693329980544249
0.216000000000000053,12.325617867923678972
0.217000000000000054,11.083503179769964575
0.218000000000000055,9.866917723123147965
0.219000000000000056,8.675407723499976242
0.220000000000000057,7.508507383652810674
0.221000000000000058,6.365748184884000516
0.222000000000000058,5.246667192787921152
0.223000000000000059,4.150814314193114640
0.224000000000000060,3.077758482070913626
0.225000000000000061,2.027092770902886976
0.226000000000000062,0.998438466616138220
0.227000000000000063,-0.008551867068555197
0.228000000000000064,-0.994192269894828562
0.229000000000000065,-1.958762147113825680
0.230000000000000066,-2.902505837611524697
0.231000000000000066,-3.825632908176601177
0.232000000000000067,-4.728319091020735776
0.233000000000000068,-5.610707780704222714
0.234000000000000069,-6.472912007337905393
0.235000000000000070,-7.315016805045355675
0.236000000000000071,-8.137081897912091577
0.237000000000000072,-8.939144629785905849
0.238000000000000073,-9.721223069104254932
0.239000000000000073,-10.483319225221723769
0.240000000000000074,-11.225422318328771354
0.241000000000000075,-11.947512050839693032
0.242000000000000076,-12.649561833965197621
0.243000000000000077,-13.331541928967103772
0.244000000000000078,-13.993422468232063594
0.245000000000000079,-14.635176326730436003
0.246000000000000080,-15.256781819588962179
0.247000000000000081,-15.858225206363320225
0.248000000000000081,-16.439502987115652388
0.249000000000000082,-17.000623979565823163
0.250000000000000111,-17.541611170382406470
0.251000000000000112,-18.062503337105418666
0.252000000000000113,-18.563356440253748758
0.253000000000000114,-19.044244787868016999
0.254000000000000115,-19.505261977095102566
0.255000000000000115,-19.946521619439856465
0.256000000000000116,-20.368157858018097528
0.257000000000000117,-20.770325686557889355
0.258000000000000118,-21.153201081035089004
0.259000000000000119,-21.516980955717514234
0.260000000000000120,-21.861882956049896620
0.261000000000000121,-22.188145101260154490
0.262000000000000122,-22.496025289830647864
0.263000000000000123,-22.785800681072753804
0.264000000000000123,-23.057766965992914976
0.265000000000000124,-23.312237540459040730
0.266000000000000125,-23.549542593388107292
0.267000000000000126,-23.770028122293265227
0.268000000000000127,-23.974054888070220670
0.269000000000000128,-24.161997320378702625
0.270000000000000129,-24.334242384401768788
0.271000000000000130,-24.491188419154184430
0.272000000000000131,-24.633243956870778391
0.273000000000000131,-24.760826532348282569
0.274000000000000132,-24.874361490446041500
0.275000000000000133,-24.974280799282119858
0.276000000000000134,-25.061021875995074026
0.277000000000000135,-25.135026431286810578
0.278000000000000136,-25.196739338321705759
0.279000000000000137,-25.246607530935150976
0.280000000000000138,-25.285078935505982400
0.281000000000000139,-25.312601440272580078
0.282000000000000139,-25.329621905325574005
0.283000000000000140,-25.336585215991689779
0.284000000000000141,-25.333933381834388143
0.285000000000000142,-25.322104683039480477
0.286000000000000143,-25.301532865526500160
0.287000000000000144,-25.272646385730435981
0.288000000000000145,-25.235867705633715730
0.289000000000000146,-25.191612638292305348
0.290000000000000147,-25.140289743795065647
0.291000000000000147,-25.082299775317949297
0.292000000000000148,-25.018035174686204414
0.293000000000000149,-24.947879616634441646
0.294000000000000150,-24.872207600757835877
0.295000000000000151,-24.791384089974766169
0.296000000000000152,-24.705764194170548365
0.297000000000000153,-24.615692897564294128
0.298000000000000154,-24.521504828231460493
0.299000000000000155,-24.423524068126219788
0.300000000000000155,-24.322064001874984740
0.301000000000000156,-24.217427202557001209
0.302000000000000157,-24.109905352647160726
0.303000000000000158,-23.999779198268683444
0.304000000000000159,-23.887318534889267596
0.305000000000000160,-23.772782222590194579
0.306000000000000161,-23.656418229045460322
0.307000000000000162,-23.538463698363919718
0.308000000000000163,-23.419145043971237641
0.309000000000000163,-23.298678063740673849
0.310000000000000164,-23.177268075618897569
0.311000000000000165,-23.055110072036583801
0.312000000000000166,-22.932388891441785717
0.313000000000000167,-22.809279405345638025
0.314000000000000168,-22.685946719325638554
0.315000000000000169,-22.562546386489692907
0.316000000000000170,-22.439224631964211909
0.317000000000000171,-22.316118587031390064
0.318000000000000171,-22.193356531603416926
0.319000000000000172,-22.071058143785368344
0.320000000000000173,-21.949334755341851633
0.321000000000000174,-21.828289611946562587
0.322000000000000175,-21.708018137157136351
0.323000000000000176,-21.588608199120521647
0.324000000000000177,-21.470140379075637327
0.325000000000000178,-21.352688240781059648
0.326000000000000179,-21.236318600054410410
0.327000000000000179,-21.121091793668448133
0.328000000000000180,-21.007061946904379113
0.329000000000000181,-20.894277239118288492
0.330000000000000182,-20.782780166728077376
0.331000000000000183,-20.672607803080239819
0.332000000000000184,-20.563792054703341705
0.333000000000000185,-20.456359913502748071
0.334000000000000186,-20.350333704495280784
0.335000000000000187,-20.245731328725149467
0.336000000000000187,-20.142566501043457805
0.337000000000000188,-20.040848982471423767
0.338000000000000189,-19.940584806904578130
0.339000000000000190,-19.841776501949478728
0.340000000000000191,-19.744423303716288842
0.341000000000000192,-19.648521365422730867
0.342000000000000193,-19.554063959691465158
0.343000000000000194,-19.461041674451802663
0.344000000000000195,-19.369442602380008367
0.345000000000000195,-19.279252523837051569
0.346000000000000196,-19.190455083283200821
0.347000000000000197,-19.103031959169690879
0.348000000000000198,-19.016963027325612501
0.349000000000000199,-18.932226517875086813
0.350000000000000200,-18.848799165735897532
0.351000000000000201,-18.766656354764030823
0.352000000000000202,-18.685772255622076443
0.353000000000000203,-18.606119957460769854
0.354000000000000203,-18.527671593513488801
0.355000000000000204,-18.450398460712570170
0.356000000000000205,-18.374271133444942450
0.357000000000000206,-18.299259571571646177
0.358000000000000207,-18.225333222841971548
0.359000000000000208,-18.152461119838630310
0.360000000000000209,-18.080611971595061505
0.361000000000000210,-18.009754250029278211
0.362000000000000210,-17.939856271342559779
0.363000000000000211,-17.870886272533038408
0.364000000000000212,-17.802812483176534641
0.365000000000000213,-17.735603192627845459
0.366000000000000214,-17.669226812796843262
0.367000000000000215,-17.603651936653385235
0.368000000000000216,-17.538847392615473098
0.369000000000000217,-17.474782294973685737
0.370000000000000218,-17.411426090504583897
0.371000000000000218,-17.348748601423785942
0.372000000000000219,-17.286720064828227095
0.373000000000000220,-17.225311168774755544
0.374000000000000221,-17.164493085140190232
0.375000000000000222,-17.104237499405364531
0.376000000000000223,-17.044516637503228651
0.377000000000000224,-16.985303289867989207
0.378000000000000225,-16.926570832819443524
0.379000000000000226,-16.868293247413525648
0.380000000000000226,-16.810445135886798340
0.381000000000000227,-16.753001735819303519
0.382000000000000228,-16.695938932136858313
0.383000000000000229,-16.639233267070324018
0.384000000000000230,-16.582861948185875889
0.385000000000000231,-16.526802854596951420
0.386000000000000232,-16.471034541464600665
0.387000000000000233,-16.415536242889935181
0.388000000000000234,-16.360287873298151595
0.389000000000000234,-16.305270027410905698
0.390000000000000235,-16.250463978899276185
0.391000000000000236,-16.195851677807038271
0.392000000000000237,-16.141415746829807176
0.393000000000000238,-16.087139476532577476
0.394000000000000239,-16.033006819584596059
0.395000000000000240,-15.979002384087459987
0.396000000000000241,-15.925111426068756515
0.397000000000000242,-15.871319841210681290
0.398000000000000242,-15.817614155879741844
0.399000000000000243,-15.763981517520729625
0.400000000000000244,-15.710409684475020953
0.401000000000000245,-15.656887015280716469
0.402000000000000246,-15.603402457508760648
0.403000000000000247,-15.549945536186928763
0.404000000000000248,-15.496506341860671441
0.405000000000000249,-15.443075518337289864
0.406000000000000250,-15.389644250157294536
0.407000000000000250,-15.336204249834613833
0.408000000000000251,-15.282747744904659370
0.409000000000000252,-15.229267464817345612
0.410000000000000253,-15.175756627709631630
0.411000000000000254,-15.122208927090294850
0.412000000000000255,-15.068618518467502554
0.413000000000000256,-15.014980005947924369
0.414000000000000257,-14.961288428833944053
0.415000000000000258,-14.907539248244191299
0.416000000000000258,-14.853728333780495063
0.417000000000000259,-14.799851950262910449
0.418000000000000260,-14.745906744552822687
0.419000000000000261,-14.691889732482632525
0.420000000000000262,-14.637798285909036977
0.421000000000000263,-14.583630119905782507
0.422000000000000264,-14.529383280109902543
0.423000000000000265,-14.475056130234850826
0.424000000000000266,-14.420647339762371786
0.425000000000000266,-14.366155871823798051
0.426000000000000267,-14.311580971280566388
0.427000000000000268,-14.256922153012629551
0.428000000000000269,-14.202179190422469901
0.429000000000000270,-14.147352104161480923
0.430000000000000271,-14.092441151084731388
0.431000000000000272,-14.037446813439142801
0.432000000000000273,-13.982369788289474855
0.433000000000000274,-13.927210977185747964
0.434000000000000274,-13.871971476074975271
0.435000000000000275,-13.816652565459571989
0.436000000000000276,-13.761255700804099433
0.437000000000000277,-13.705782503191432653
0.438000000000000278,-13.650234750228998237
0.439000000000000279,-13.594614367205229755
0.440000000000000280,-13.538923418495752315
0.441000000000000281,-13.483164099218635457
0.442000000000000282,-13.427338727137534846
0.443000000000000282,-13.371449734811090337
0.444000000000000283,-13.315499661986811120
0.445000000000000284,-13.259491148237183111
0.446000000000000285,-13.203426925835481498
0.447000000000000286,-13.147309812868774870
0.448000000000000287,-13.091142706584729893
0.449000000000000288,-13.034928576969520009
0.450000000000000289,-12.978670460552990562
0.451000000000000290,-12.922371454437755034
0.452000000000000290,-12.866034710548532871
0.453000000000000291,-12.809663430097637971
0.454000000000000292,-12.753260858262853716
0.455000000000000293,-12.696830279073390457
0.456000000000000294,-12.640375010499930397
0.457000000000000295,-12.583898399744320784
0.458000000000000296,-12.527403818724613060
0.459000000000000297,-12.470894659751142086
0.460000000000000298,-12.414374331389019801
0.461000000000000298,-12.357846254502794281
0.462000000000000299,-12.301313858478597041
0.463000000000000300,-12.244780577619337691
0.464000000000000301,-12.188249847708453544
0.465000000000000302,-12.131725102737714650
0.466000000000000303,-12.075209771794522595
0.467000000000000304,-12.018707276104303006
0.468000000000000305,-11.962221026223490483
0.469000000000000306,-11.905754419378721920
0.470000000000000306,-11.849310836947907433
0.471000000000000307,-11.792893642078652761
0.472000000000000308,-11.736506177440023890
0.473000000000000309,-11.680151763103170381
0.474000000000000310,-11.623833694546783946
0.475000000000000311,-11.567555240783136128
0.476000000000000312,-11.511319642600854607
0.477000000000000313,-11.455130110920114461
0.478000000000000314,-11.398989825256645503
0.479000000000000314,-11.342901932290518019
0.480000000000000315,-11.286869544535864662
0.481000000000000316,-11.230895739108110121
0.482000000000000317,-11.174983556584667355
0.483000000000000318,-11.119135999955908289
0.484000000000000319,-11.063356033662660849
0.485000000000000320,-11.007646582717017125
0.486000000000000321,-10.952010531902990564
0.487000000000000322,-10.896450725053835384
0.488000000000000322,-10.840969964402804138
0.489000000000000323,-10.785571010004366244
0.490000000000000324,-10.730256579222762880
0.491000000000000325,-10.675029346285006326
0.492000000000000326,-10.619891941895435394
0.493000000000000327,-10.564846952909181965
0.494000000000000328,-10.509896922061619406
0.495000000000000329,-10.455044347751439204
0.496000000000000330,-10.400291683874565152
0.497000000000000330,-10.345641339706656225
0.498000000000000331,-10.291095679831574472
0.499000000000000332,-10.236657024113739567
0.500000000000000333,-10.182327647711961305
0.501000000000000334,-10.128109781132563327
0.502000000000000335,-10.074005610319821002
0.503000000000000336,-10.020017276781576498
0.504000000000000337,-9.966146877748107258
0.505000000000000338,-9.912396466362281444
0.506000000000000338,-9.858768051899300389
0.507000000000000339,-9.805263600014102465
0.508000000000000340,-9.751885033014804804
0.509000000000000341,-9.698634230160596559
0.510000000000000342,-9.645513027982351772
0.511000000000000343,-9.592523220624563862
0.512000000000000344,-9.539666560207063384
0.513000000000000345,-9.486944757205131751
0.514000000000000346,-9.434359480846724821
0.515000000000000346,-9.381912359525347966
0.516000000000000347,-9.329604981227461735
0.517000000000000348,-9.277438893973231515
0.518000000000000349,-9.225415606269342206
0.519000000000000350,-9.173536587572929335
0.520000000000000351,-9.121803268765470207
0.521000000000000352,-9.070217042635704274
0.522000000000000353,-9.018779264370541782
0.523000000000000353,-8.967491252053079620
0.524000000000000354,-8.916354287166942783
0.525000000000000355,-8.865369615105874956
0.526000000000000356,-8.814538445688045343
0.527000000000000357,-8.763861953674160432
0.528000000000000358,-8.713341279288689734
0.529000000000000359,-8.662977528743537547
0.530000000000000360,-8.612771774763478660
0.531000000000000361,-8.562725057112796634
0.532000000000000361,-8.512838383122447894
0.533000000000000362,-8.463112728217311087
0.534000000000000363,-8.413549036442898199
0.535000000000000364,-8.364148220991078020
0.536000000000000365,-8.314911164724360759
0.537000000000000366,-8.265838720698265973
0.538000000000000367,-8.216931712681347477
0.539000000000000368,-8.168190935672621222
0.540000000000000369,-8.119617156415770864
0.541000000000000369,-8.071211113910104373
0.542000000000000370,-8.022973519917680818
0.543000000000000371,-7.974905059466446566
0.544000000000000372,-7.927006391349093128
0.545000000000000373,-7.879278148617340882
0.546000000000000374,-7.831720939071425747
0.547000000000000375,-7.784335345744570311
0.548000000000000376,-7.737121927382288433
0.549000000000000377,-7.690081218916243522
0.550000000000000377,-7.643213731932545940
0.551000000000000378,-7.596519955134347413
0.552000000000000379,-7.550000354798572566
0.553000000000000380,-7.503655375226669477
0.554000000000000381,-7.457485439189220244
0.555000000000000382,-7.411490948364471976
0.556000000000000383,-7.365672283770422268
0.557000000000000384,-7.320029806190713195
0.558000000000000385,-7.274563856593980304
0.559000000000000385,-7.229274756546804959
0.560000000000000386,-7.184162808620117247
0.561000000000000387,-7.139228296789053907
0.562000000000000388,-7.094471486826245510
0.563000000000000389,-7.049892626688501807
0.564000000000000390,-7.005491946896910349
0.565000000000000391,-6.961269660910315515
0.566000000000000392,-6.917225965492201922
0.567000000000000393,-6.873361041071045285
0.568000000000000393,-6.829675052094010823
0.569000000000000394,-6.786168147374169735
0.570000000000000395,-6.742840460431244409
0.571000000000000396,-6.699692109825768682
0.572000000000000397,-6.656723199486952680
0.573000000000000398,-6.613933819034063966
0.574000000000000399,-6.571324044091528371
0.575000000000000400,-6.528893936597734537
0.576000000000000401,-6.486643545107591891
0.577000000000000401,-6.444572905089013481
0.578000000000000402,-6.402682039213199339
0.579000000000000403,-6.360970957638943268
0.580000000000000404,-6.319439658291004847
0.581000000000000405,-6.278088127132557261
0.582000000000000406,-6.236916338431855777
0.583000000000000407,-6.195924255023128602
0.584000000000000408,-6.155111828561890874
0.585000000000000409,-6.114478999774620505
0.586000000000000409,-6.074025698702959275
0.587000000000000410,-6.033751844942554676
0.588000000000000411,-5.993657347876482966
0.589000000000000412,-5.953742106903569642
0.590000000000000413,-5.914006011661427920
0.591000000000000414,-5.874448942244505645
0.592000000000000415,-5.835070769417185943
0.593000000000000416,-5.795871354821911403
0.594000000000000417,-5.756850551182571607
0.595000000000000417,-5.718008202503225945
0.596000000000000418,-5.679344144262044480
0.597000000000000419,-5.640858203600946474
0.598000000000000420,-5.602550199510568874
0.599000000000000421,-5.564419943011054137
0.600000000000000422,-5.526467237328455795
0.601000000000000423,-5.488691878067040619
0.602000000000000424,-5.451093653377446557
0.603000000000000425,-5.413672344120876723
0.604000000000000425,-5.376427724029333888
0.605000000000000426,-5.339359559862045579
0.606000000000000427,-5.302467611558183691
