# CaO001_BSAIV5
# h[nm],U(h)[kJ/mol]
0.149999999999999994,173.498874612176024357
0.150999999999999995,172.944415821128814059
0.151999999999999996,170.165152480536193025
0.152999999999999997,166.882275875826621814
0.153999999999999998,163.744607103975596374
0.154999999999999999,160.893668969046501616
0.156000000000000000,158.268838207517859473
0.157000000000000001,155.759764201049790699
0.158000000000000002,153.272736744446007151
0.159000000000000002,150.751457691372479530
0.160000000000000003,148.175958490503688836
0.161000000000000004,145.552966667644454901
0.162000000000000005,142.904669141594467874
0.163000000000000006,140.259081832109643528
0.164000000000000007,137.643140652054626116
0.165000000000000008,135.078541680228397581
0.166000000000000009,132.579867166598205586
0.167000000000000010,130.154378896403898125
0.168000000000000010,127.802880617819212716
0.169000000000000011,125.521150628081429090
0.170000000000000012,123.301569397312164256
0.171000000000000013,121.134686237875627057
0.172000000000000014,119.010570056043206932
0.173000000000000015,116.919867760146487967
0.174000000000000016,114.854550466188044311
0.175000000000000017,112.808365127566119668
0.176000000000000018,110.777031373686583038
0.177000000000000018,108.758233950189008965
0.178000000000000019,106.751463587301302027
0.179000000000000020,104.757756182072370166
0.180000000000000021,102.779374057308956480
0.181000000000000022,100.819465385766960708
0.182000000000000023,98.881729792546565250
0.183000000000000024,96.970110432132997857
0.184000000000000025,95.088525937954443634
0.185000000000000026,93.240649796903028346
0.186000000000000026,91.429739985784891587
0.187000000000000027,89.658518091770673664
0.188000000000000028,87.929094529359758781
0.189000000000000029,86.242934730957571787
0.190000000000000030,84.600860181149585060
0.191000000000000031,83.003077740427855247
0.192000000000000032,81.449230726149821180
0.193000000000000033,79.938465565335107499
0.194000000000000034,78.469508401357813909
0.195000000000000034,77.040746738472051902
0.196000000000000035,75.650311975516387974
0.197000000000000036,74.296159460005000597
0.198000000000000037,72.976143446952747240
0.199000000000000038,71.688085045881365431
0.200000000000000039,70.429831866964562437
0.201000000000000040,69.199308623494317771
0.202000000000000041,67.994558409184975289
0.203000000000000042,66.813774746248526526
0.204000000000000042,65.655324797917501201
0.205000000000000043,64.517764363618510970
0.206000000000000044,63.399845434103305308
0.207000000000000045,62.300517185987281721
0.208000000000000046,61.218921348939105087
0.209000000000000047,60.154382892584138176
0.210000000000000048,59.106396961912011534
0.211000000000000049,58.074612946825745041
0.212000000000000050,57.058816509869657807
0.213000000000000050,56.058910321754751749
0.214000000000000051,55.074894171862446512
0.215000000000000052,54.106845034470836708
0.216000000000000053,53.154897584288789858
0.217000000000000054,52.219225569607431225
0.218000000000000055,51.300024369986580552
0.219000000000000056,50.397494989360566819
0.220000000000000057,49.511829665784468091
0.221000000000000058,48.643199216392929429
0.222000000000000058,47.791742180808078899
0.223000000000000059,46.957555778282412007
0.224000000000000060,46.140688653137530650
0.225000000000000061,45.341135349261591614
0.226000000000000062,44.558832427136977117
0.227000000000000063,43.793656115584191468
0.228000000000000064,43.045421374581636087
0.229000000000000065,42.313882234574279551
0.230000000000000066,41.598733271040927661
0.231000000000000066,40.899612070171130540
0.232000000000000067,40.216102541764556122
0.233000000000000068,39.547738938379872309
0.234000000000000069,38.894010444848014174
0.235000000000000070,38.254366209077552696
0.236000000000000071,37.628220693218118242
0.237000000000000072,37.014959233350545276
0.238000000000000073,36.413943705625008818
0.239000000000000073,35.824518206895945127
0.240000000000000074,35.246014668167333639
0.241000000000000075,34.677758329369069656
0.242000000000000076,34.119073013967927466
0.243000000000000077,33.569286151541277263
0.244000000000000078,33.027733505606235553
0.245000000000000079,32.493763572618462376
0.246000000000000080,31.966741626077372018
0.247000000000000081,31.446053387059141215
0.248000000000000081,30.931108309223837693
0.249000000000000082,30.421342472401892820
0.250000000000000111,29.916221084259849050
0.251000000000000112,29.415240594293486254
0.252000000000000113,28.917930428515518315
0.253000000000000114,28.423854356728959658
0.254000000000000115,27.932611507232717685
0.255000000000000115,27.443837046234296650
0.256000000000000116,26.957202541181136013
0.257000000000000117,26.472416028707936420
0.258000000000000118,25.989221808973617556
0.259000000000000119,25.507399988865852691
0.260000000000000120,25.026765796925193541
0.261000000000000121,24.547168692922010536
0.262000000000000122,24.068491294842822015
0.263000000000000123,23.590648145645669587
0.264000000000000123,23.113584341556197899
0.265000000000000124,22.637274042930247475
0.266000000000000125,22.161718887831554525
0.267000000000000126,21.686946327491032349
0.268000000000000127,21.213007901750209783
0.269000000000000128,20.739977471467682335
0.270000000000000129,20.267949423702923184
0.271000000000000130,19.797036864301755799
0.272000000000000131,19.327369811310859404
0.273000000000000131,18.859093401453900896
0.274000000000000132,18.392366120723494305
0.275000000000000133,17.927358068989754258
0.276000000000000134,17.464249267405246968
0.277000000000000135,17.003228016306685788
0.278000000000000136,16.544489310277675997
0.279000000000000137,16.088233316051798738
0.280000000000000138,15.634663918003507632
0.281000000000000139,15.183987335096023941
0.282000000000000139,14.736410812335986265
0.283000000000000140,14.292141389021049136
0.284000000000000141,13.851384745361391637
0.285000000000000142,13.414344128407922341
0.286000000000000143,12.981219357627560740
0.287000000000000144,12.552205909929293526
0.288000000000000145,12.127494083459820828
0.289000000000000146,11.707268239056155323
0.290000000000000147,11.291706117857547298
0.291000000000000147,10.880978233243585152
0.292000000000000148,10.475247334971868440
0.293000000000000149,10.074667943139179016
0.294000000000000150,9.679385949377833143
0.295000000000000151,9.289538282525102275
0.296000000000000152,8.905252635862527910
0.297000000000000153,8.526647252913612363
0.298000000000000154,8.153830768707859278
0.299000000000000155,7.786902103366111660
0.300000000000000155,7.425950404832862617
0.301000000000000156,7.071055037574184965
0.302000000000000157,6.722285614071656923
0.303000000000000158,6.379702065973618552
0.304000000000000159,6.043354751810029235
0.305000000000000160,5.713284598236954892
0.306000000000000161,5.389523271848045027
0.307000000000000162,5.072093378671912234
0.308000000000000163,4.761008688565040003
0.309000000000000163,4.456274381807548757
0.310000000000000164,4.157887315312992271
0.311000000000000165,3.865836305972026654
0.312000000000000166,3.580102428762079736
0.313000000000000167,3.300659327370085272
0.314000000000000168,3.027473535192091614
0.315000000000000169,2.760504804690925518
0.316000000000000170,2.499706443210793605
0.317000000000000171,2.245025653464813864
0.318000000000000171,1.996403877027375984
0.319000000000000172,1.753777139277109542
0.320000000000000173,1.517076394348724211
0.321000000000000174,1.286227868761077975
0.322000000000000175,1.061153402495406350
0.323000000000000176,0.841770786401077276
0.324000000000000177,0.627994094905856559
0.325000000000000178,0.419734013104233916
0.326000000000000179,0.216898157389197654
0.327000000000000179,0.019391388881921399
0.328000000000000180,-0.172883881002205669
0.329000000000000181,-0.360027393432167053
0.330000000000000182,-0.542140753989143631
0.331000000000000183,-0.719327153876262115
0.332000000000000184,-0.891691100874481668
0.333000000000000185,-1.059338160344888147
0.334000000000000186,-1.222374706517605158
0.335000000000000187,-1.380907684251027501
0.336000000000000187,-1.535044381393048774
0.337000000000000188,-1.684892211826546582
0.338000000000000189,-1.830558509237042220
0.339000000000000190,-1.972150331598240935
0.340000000000000191,-2.109774276332935461
0.341000000000000192,-2.243536306071907571
0.342000000000000193,-2.373541584901308177
0.343000000000000194,-2.499894324960185710
0.344000000000000195,-2.622697643223235175
0.345000000000000195,-2.742053428281214789
0.346000000000000196,-2.858062216909631026
0.347000000000000197,-2.970823080198611965
0.348000000000000198,-3.080433519000257192
0.349000000000000199,-3.186989368435982239
0.350000000000000200,-3.290584711194397549
0.351000000000000201,-3.391311799340161137
0.352000000000000202,-3.489260984346009398
0.353000000000000203,-3.584520655053629490
0.354000000000000203,-3.677177183264080274
0.355000000000000204,-3.767314876654574984
0.356000000000000205,-3.855015938716570112
0.357000000000000206,-3.940360435409004936
0.358000000000000207,-4.023426268220302582
0.359000000000000208,-4.104289153334355511
0.360000000000000209,-4.183022606597662119
0.361000000000000210,-4.259697933987456331
0.362000000000000210,-4.334384227284920676
0.363000000000000211,-4.407148364661484408
0.364000000000000212,-4.478055015891707846
0.365000000000000213,-4.547166651911494384
0.366000000000000214,-4.614543558446771776
0.367000000000000215,-4.680243853444079782
0.368000000000000216,-4.744323508041678572
0.369000000000000217,-4.806836370826592209
0.370000000000000218,-4.867834195131047537
0.371000000000000218,-4.927366669128852905
0.372000000000000219,-4.985481448500641122
0.373000000000000220,-5.042224191444704573
0.374000000000000221,-5.097638595818198226
0.375000000000000222,-5.151766438201619280
0.376000000000000223,-5.204647614688076018
0.377000000000000224,-5.256320183206434571
0.378000000000000225,-5.306820407196058298
0.379000000000000226,-5.356182800458732629
0.380000000000000226,-5.404440173021668237
0.381000000000000227,-5.451623677852998284
0.382000000000000228,-5.497762858279530818
0.383000000000000229,-5.542885695963798653
0.384000000000000230,-5.587018659305241108
0.385000000000000231,-5.630186752137801953
0.386000000000000232,-5.672413562603222381
0.387000000000000233,-5.713721312086752491
0.388000000000000234,-5.754130904108480493
0.389000000000000234,-5.793661973070588722
0.390000000000000235,-5.832332932767018363
0.391000000000000236,-5.870161024568544050
0.392000000000000237,-5.907162365202230703
0.393000000000000238,-5.943351994050305009
0.394000000000000239,-5.978743919898884762
0.395000000000000240,-6.013351167072865877
0.396000000000000241,-6.047185820898212327
0.397000000000000242,-6.080259072438066070
0.398000000000000242,-6.112581262454191311
0.399000000000000243,-6.144161924549361942
0.400000000000000244,-6.175009827451440891
0.401000000000000245,-6.205133016403655333
0.402000000000000246,-6.234538853629709720
0.403000000000000247,-6.263234057846510439
0.404000000000000248,-6.291224742800608283
0.405000000000000249,-6.318516454808177585
0.406000000000000250,-6.345114209281485174
0.407000000000000250,-6.371022526228166782
0.408000000000000251,-6.396245464712299267
0.409000000000000252,-6.420786656269276804
0.410000000000000253,-6.444649337269010125
0.411000000000000254,-6.467836380224440518
0.412000000000000255,-6.490350324044686481
0.413000000000000256,-6.512193403234414646
0.414000000000000257,-6.533367576042738101
0.415000000000000258,-6.553874551567306028
0.416000000000000258,-6.573715815820482256
0.417000000000000259,-6.592892656766574433
0.418000000000000260,-6.611406188340277268
0.419000000000000261,-6.629257373458059988
0.420000000000000262,-6.646447046035346418
0.421000000000000263,-6.662975932023743830
0.422000000000000264,-6.678844669483207319
0.423000000000000265,-6.694053827705516824
0.424000000000000266,-6.708603925405961732
0.425000000000000266,-6.722495448000842089
0.426000000000000267,-6.735728863989500326
0.427000000000000268,-6.748304640459726222
0.428000000000000269,-6.760223257736204694
0.429000000000000270,-6.771485223192120095
0.430000000000000271,-6.782091084244203039
0.431000000000000272,-6.792041440552206488
0.432000000000000273,-6.801336955443636256
0.433000000000000274,-6.809978366585116127
0.434000000000000274,-6.817966495921750081
0.435000000000000275,-6.825302258905940000
0.436000000000000276,-6.831986673037275359
0.437000000000000277,-6.838020865734987908
0.438000000000000278,-6.843406081564523902
0.439000000000000279,-6.848143688839748222
0.440000000000000280,-6.852235185621990965
0.441000000000000281,-6.855682205137246576
0.442000000000000282,-6.858486520632550487
0.443000000000000282,-6.860650049692279318
0.444000000000000283,-6.862174858035065661
0.445000000000000284,-6.863063162811601892
0.446000000000000285,-6.863317335423412047
0.447000000000000286,-6.862939903882450565
0.448000000000000287,-6.861933554730820006
0.449000000000000288,-6.860301134539925627
0.450000000000000289,-6.858045651007695476
0.451000000000000290,-6.855170273672356984
0.452000000000000290,-6.851678334260903114
0.453000000000000291,-6.847573326689729178
0.454000000000000292,-6.842858906734963220
0.455000000000000293,-6.837538891389177920
0.456000000000000294,-6.831617257921114295
0.457000000000000295,-6.825098142654456801
0.458000000000000296,-6.817985839481288224
0.459000000000000297,-6.810284798125567640
0.460000000000000298,-6.801999622171410742
0.461000000000000298,-6.793135066870627625
0.462000000000000299,-6.783696036743537050
0.463000000000000300,-6.773687582986599232
0.464000000000000301,-6.763114900700140986
0.465000000000000302,-6.751983325948842207
0.466000000000000303,-6.740298332667384429
0.467000000000000304,-6.728065529423251867
0.468000000000000305,-6.715290656048109597
0.469000000000000306,-6.701979580149034277
0.470000000000000306,-6.688138293510320409
0.471000000000000307,-6.673772908396097492
0.472000000000000308,-6.658889653763938377
0.473000000000000309,-6.643494871398909929
0.474000000000000310,-6.627595011977335915
0.475000000000000311,-6.611196631069129914
0.476000000000000312,-6.594306385087226552
0.477000000000000313,-6.576931027192236101
0.478000000000000314,-6.559077403160070041
0.479000000000000314,-6.540752447220151922
0.480000000000000315,-6.521963177871148432
0.481000000000000316,-6.502716693681245275
0.482000000000000317,-6.483020169079219741
0.483000000000000318,-6.462880850142745714
0.484000000000000319,-6.442306050389608352
0.485000000000000320,-6.421303146577542975
0.486000000000000321,-6.399879574517933989
0.487000000000000322,-6.378042824908481734
0.488000000000000322,-6.355800439189415840
0.489000000000000323,-6.333160005428013051
0.490000000000000324,-6.310129154235417204
0.491000000000000325,-6.286715554719886079
0.492000000000000326,-6.262926910480129727
0.493000000000000327,-6.238770955642371163
0.494000000000000328,-6.214255450944270009
0.495000000000000329,-6.189388179868958062
0.496000000000000330,-6.164176944831838867
0.497000000000000330,-6.138629563423085855
0.498000000000000331,-6.112753864707945795
0.499000000000000332,-6.086557685587516531
0.500000000000000333,-6.060048867221789592
0.501000000000000334,-6.033235251516957831
0.502000000000000335,-6.006124677678831070
0.503000000000000336,-5.978724978833791504
0.504000000000000337,-5.951043978718850269
0.505000000000000338,-5.923089488441940276
0.506000000000000338,-5.894869303313733155
0.507000000000000339,-5.866391199751829433
0.508000000000000340,-5.837662932258233184
0.509000000000000341,-5.808692230470946960
0.510000000000000342,-5.779486796290064454
0.511000000000000343,-5.750054301079121188
0.512000000000000344,-5.720402382941855990
0.513000000000000345,-5.690538644074796260
0.514000000000000346,-5.660470648195871313
0.515000000000000346,-5.630205918048963198
0.516000000000000347,-5.599751932984547764
0.517000000000000348,-5.569116126616314943
0.518000000000000349,-5.538305884553442304
0.519000000000000350,-5.507328542208482780
0.520000000000000351,-5.476191382680310582
0.521000000000000352,-5.444901634711941441
0.522000000000000353,-5.413466470722565482
0.523000000000000353,-5.381893004913371747
0.524000000000000354,-5.350188291446608346
0.525000000000000355,-5.318359322697109093
0.526000000000000356,-5.286413027575685319
0.527000000000000357,-5.254356269923677658
0.528000000000000358,-5.222195846977723654
0.529000000000000359,-5.189938487904135478
0.530000000000000360,-5.157590852401782833
0.531000000000000361,-5.125159529372782075
0.532000000000000361,-5.092651035659929271
0.533000000000000362,-5.060071814849954386
0.534000000000000363,-5.027428236141607165
0.535000000000000364,-4.994726593277540871
0.536000000000000365,-4.961973103538941388
0.537000000000000366,-4.929173906801912253
0.538000000000000367,-4.896335064654351754
0.539000000000000368,-4.863462559572502286
0.540000000000000369,-4.830562294155742897
0.541000000000000369,-4.797640090418818559
0.542000000000000370,-4.764701689140038887
0.543000000000000371,-4.731752749264603430
0.544000000000000372,-4.698798847361683961
0.545000000000000373,-4.665845477134238806
0.546000000000000374,-4.632898048980292671
0.547000000000000375,-4.599961889604586851
0.548000000000000376,-4.567042241679413195
0.549000000000000377,-4.534144263553451459
0.550000000000000377,-4.501273029007450965
0.551000000000000378,-4.468433527055553967
0.552000000000000379,-4.435630661791217122
0.553000000000000380,-4.402869252276392587
0.554000000000000381,-4.370154032472947314
0.555000000000000382,-4.337489651215204134
0.556000000000000383,-4.304880672222253679
0.557000000000000384,-4.272331574149223599
0.558000000000000385,-4.239846750676056431
0.559000000000000385,-4.207430510632935494
0.560000000000000386,-4.175087078161118015
0.561000000000000387,-4.142820592908134536
0.562000000000000388,-4.110635110256226632
0.563000000000000389,-4.078534601583037045
0.564000000000000390,-4.046522954553412710
0.565000000000000391,-4.014603973441303708
0.566000000000000392,-3.982781379480741180
0.567000000000000393,-3.951058811244907876
0.568000000000000393,-3.919439825052187132
0.569000000000000394,-3.887927895398301192
0.570000000000000395,-3.856526415413596087
0.571000000000000396,-3.825238697344344185
0.572000000000000397,-3.794067973057345888
0.573000000000000398,-3.763017394566703366
0.574000000000000399,-3.732090034582005167
0.575000000000000400,-3.701288887076913170
0.576000000000000401,-3.670616867877310341
0.577000000000000401,-3.640076815268243671
0.578000000000000402,-3.609671490618597822
0.579000000000000403,-3.579403579022859994
0.580000000000000404,-3.549275689959115798
0.581000000000000405,-3.519290357962385318
0.582000000000000406,-3.489450043312660732
0.583000000000000407,-3.459757132736715590
0.584000000000000408,-3.430213940123111094
0.585000000000000409,-3.400822707249525401
0.586000000000000409,-3.371585604521725177
0.587000000000000410,-3.342504731723563882
0.588000000000000411,-3.313582118777149255
0.589000000000000412,-3.284819726512711924
0.590000000000000413,-3.256219447447340709
0.591000000000000414,-3.227783106572058358
0.592000000000000415,-3.199512462146620440
0.593000000000000416,-3.171409206501314415
0.594000000000000417,-3.143474966845289487
0.595000000000000417,-3.115711306080878540
0.596000000000000418,-3.088119723623086177
0.597000000000000419,-3.060701656224109168
0.598000000000000420,-3.033458478801939417
0.599000000000000421,-3.006391505272869136
0.600000000000000422,-2.979501989387186356
0.601000000000000423,-2.952791125567649111
0.602000000000000424,-2.926260049750295078
0.603000000000000425,-2.899909840227074653
0.604000000000000425,-2.873741518489858482
0.605000000000000426,-2.847756050075447742
0.606000000000000427,-2.821954345411152421
0.607000000000000428,-2.796337260660402002
0.608000000000000429,-2.770905598568283779
0.609000000000000430,-2.745660109306267582
0.610000000000000431,-2.720601491316088527
0.611000000000000432,-2.695730392152191790
0.612000000000000433,-2.671047409322507171
0.613000000000000433,-2.646553091127216817
