# CaO001_BSAIV8
# h[nm],U(h)[kJ/mol]
0.149999999999999994,127.794100252698513032
0.150999999999999995,125.475328217397049002
0.151999999999999996,122.560539677748550957
0.152999999999999997,119.578006793390656526
0.153999999999999998,116.709464297390852039
0.154999999999999999,113.980017312595848011
0.156000000000000000,111.357797238426769582
0.157000000000000001,108.801629149011631625
0.158000000000000002,106.280171492725415305
0.159000000000000002,103.776507979858095609
0.160000000000000003,101.286207824290983126
0.161000000000000004,98.813203571835998673
0.162000000000000005,96.365647060870102791
0.163000000000000006,93.952649914251693986
0.164000000000000007,91.582138358110512399
0.165000000000000008,89.259721958862357383
0.166000000000000009,86.988344977326079288
0.167000000000000010,84.768465900499109011
0.168000000000000010,82.598539970733966697
0.169000000000000011,80.475629048426824852
0.170000000000000012,78.396015359654398935
0.171000000000000013,76.355741947323764407
0.172000000000000014,74.351039558779007166
0.173000000000000015,72.378626774511658937
0.174000000000000016,70.435888395828229136
0.175000000000000017,68.520948061073951862
0.176000000000000018,66.632656470584365138
0.177000000000000018,64.770518057012253621
0.178000000000000019,62.934577779296319022
0.179000000000000020,61.125287004677645086
0.180000000000000021,59.343363966355482830
0.181000000000000022,57.589660604850145376
0.182000000000000023,55.865044089253537152
0.183000000000000024,54.170298192896289891
0.184000000000000025,52.506047079416632073
0.185000000000000026,50.872701974989219309
0.186000000000000026,49.270429643924650520
0.187000000000000027,47.699140499448823505
0.188000000000000028,46.158493503577872730
0.189000000000000029,44.647914667461783722
0.190000000000000030,43.166625884826899551
0.191000000000000031,41.713680949823114474
0.192000000000000032,40.288005868021357969
0.193000000000000033,38.888440915766715023
0.194000000000000034,37.513782297940416299
0.195000000000000034,36.162821665454785602
0.196000000000000035,34.834382157399645052
0.197000000000000036,33.527350011423948217
0.198000000000000037,32.240701128184340973
0.199000000000000038,30.973522274745583616
0.200000000000000039,29.725026864619451317
0.201000000000000040,28.494565458456101226
0.202000000000000041,27.281631291111672510
0.203000000000000042,26.085861251198330990
0.204000000000000042,24.907032822473034628
0.205000000000000043,23.745057547233578532
0.206000000000000044,22.599971595119178858
0.207000000000000045,21.471924021150027073
0.208000000000000046,20.361163279025507933
0.209000000000000047,19.268022523820938829
0.210000000000000048,18.192904196029992647
0.211000000000000049,17.136264329687982411
0.212000000000000050,16.098596973893062767
0.213000000000000050,15.080419061784173351
0.214000000000000051,14.082256005852746839
0.215000000000000052,13.104628244892314370
0.216000000000000053,12.148038917090643096
0.217000000000000054,11.212962786596220255
0.218000000000000055,10.299836507925185458
0.219000000000000056,9.409050274167931605
0.220000000000000057,8.540940861260253314
0.221000000000000058,7.695786051616380519
0.222000000000000058,6.873800396048930672
0.223000000000000059,6.075132252925794951
0.224000000000000060,5.299862027645941609
0.225000000000000061,4.548001523432647630
0.226000000000000062,3.819494305786727661
0.227000000000000063,3.114216977341725201
0.228000000000000064,2.431981256947293168
0.229000000000000065,1.772536756206260167
0.230000000000000066,1.135574348059171568
0.231000000000000066,0.520730025009693565
0.232000000000000067,-0.072410851087346018
0.233000000000000068,-0.644309000382809804
0.234000000000000069,-1.195466464081702762
0.235000000000000070,-1.726421711007518622
0.236000000000000071,-2.237744684421719921
0.237000000000000072,-2.730031854565678540
0.238000000000000073,-3.203901335079236024
0.239000000000000073,-3.659988114221492506
0.240000000000000074,-4.098939444781557029
0.241000000000000075,-4.521410429797692032
0.242000000000000076,-4.928059834772431813
0.243000000000000077,-5.319546151026800729
0.244000000000000078,-5.696523929213147319
0.245000000000000079,-6.059640396827333575
0.246000000000000080,-6.409532368838846139
0.247000000000000081,-6.746823456296006327
0.248000000000000081,-7.072121573957018015
0.249000000000000082,-7.386016744637193376
0.250000000000000111,-7.689079195032273439
0.251000000000000112,-7.981857735257293029
0.252000000000000113,-8.264878412209593961
0.253000000000000114,-8.538643425094786465
0.254000000000000115,-8.803630290025402871
0.255000000000000115,-9.060291239480886105
0.256000000000000116,-9.309052841582440507
0.257000000000000117,-9.550315823556847050
0.258000000000000118,-9.784455083414375309
0.259000000000000119,-10.011819873722531682
0.260000000000000120,-10.232734141394207228
0.261000000000000121,-10.447497007601874941
0.262000000000000122,-10.656383372259174536
0.263000000000000123,-10.859644627953738194
0.264000000000000123,-11.057509468754972204
0.265000000000000124,-11.250184779936670765
0.266000000000000125,-11.437856595333801835
0.267000000000000126,-11.620691109778640282
0.268000000000000127,-11.798835734822363364
0.269000000000000128,-11.972420186731074665
0.270000000000000129,-12.141557596540360819
0.271000000000000130,-12.306345632751082064
0.272000000000000131,-12.466867628042002991
0.273000000000000131,-12.623193702156468632
0.274000000000000132,-12.775381873883938866
0.275000000000000133,-12.923479155798503371
0.276000000000000134,-13.067522626131090391
0.277000000000000135,-13.207540472836379664
0.278000000000000136,-13.343553005568235648
0.279000000000000137,-13.475573631895150228
0.280000000000000138,-13.603609794669392130
0.281000000000000139,-13.727663868009694070
0.282000000000000139,-13.847734009865934723
0.283000000000000140,-13.963814969606620053
0.284000000000000141,-14.075898849505284360
0.285000000000000142,-14.183975819401618779
0.286000000000000143,-14.288034784177758851
0.287000000000000144,-14.388064004020279185
0.288000000000000145,-14.484051667736844493
0.289000000000000146,-14.575986419661820293
0.290000000000000147,-14.663857840922293718
0.291000000000000147,-14.747656886042918245
0.292000000000000148,-14.827376276049722748
0.293000000000000149,-14.903010849387678505
0.294000000000000150,-14.974557872099557798
0.295000000000000151,-15.042017308822895671
0.296000000000000152,-15.105392056251421451
0.297000000000000153,-15.164688140777816017
0.298000000000000154,-15.219914882087484997
0.299000000000000155,-15.271085024510503203
0.300000000000000155,-15.318214837961267705
0.301000000000000156,-15.361324190305001736
0.302000000000000157,-15.400436592988256734
0.303000000000000158,-15.435579221757361523
0.304000000000000159,-15.466782914266985927
0.305000000000000160,-15.494082146350120155
0.306000000000000161,-15.517514988683519306
0.307000000000000162,-15.537123045538375976
0.308000000000000163,-15.552951377256906795
0.309000000000000163,-15.565048408041615602
0.310000000000000164,-15.573465820586765318
0.311000000000000165,-15.578258439020553183
0.312000000000000166,-15.579484101564364806
0.313000000000000167,-15.577203524250283095
0.314000000000000168,-15.571480156972437925
0.315000000000000169,-15.562380033081419484
0.316000000000000170,-15.549971613664220982
0.317000000000000171,-15.534325627585300111
0.318000000000000171,-15.515514908298651875
0.319000000000000172,-15.493614228375287567
0.320000000000000173,-15.468700132626352683
0.321000000000000174,-15.440850770639361400
0.322000000000000175,-15.410145729483556210
0.323000000000000176,-15.376665867281019473
0.324000000000000177,-15.340493148282311253
0.325000000000000178,-15.301710480029489858
0.326000000000000179,-15.260401553136228259
0.327000000000000179,-15.216650684162601692
0.328000000000000180,-15.170542662013199120
0.329000000000000181,-15.122162598240290521
0.330000000000000182,-15.071595781588479568
0.331000000000000183,-15.018927537075487777
0.332000000000000184,-14.964243089862851122
0.333000000000000185,-14.907627434132837863
0.334000000000000186,-14.849165207151864720
0.335000000000000187,-14.788940568667323205
0.336000000000000187,-14.727037085753348578
0.337000000000000188,-14.663537623191469805
0.338000000000000189,-14.598524239445424655
0.339000000000000190,-14.532078088263594040
0.340000000000000191,-14.464279325919310537
0.341000000000000192,-14.395207024078198188
0.342000000000000193,-14.324939088261260167
0.343000000000000194,-14.253552181855102532
0.344000000000000195,-14.181121655603764253
0.345000000000000195,-14.107721482502245891
0.346000000000000196,-14.033424197998130012
0.347000000000000197,-13.958300845395925194
0.348000000000000198,-13.882420926348174817
0.349000000000000199,-13.805852356307989126
0.350000000000000200,-13.728661424809596170
0.351000000000000201,-13.650912760436304083
0.352000000000000202,-13.572669300329625486
0.353000000000000203,-13.493992264088012334
0.354000000000000203,-13.414941131899885463
0.355000000000000204,-13.335573626752145415
0.356000000000000205,-13.255945700553283473
0.357000000000000206,-13.176111524008444320
0.358000000000000207,-13.096123480082567880
0.359000000000000208,-13.016032160887922586
0.360000000000000209,-12.935886367832134525
0.361000000000000210,-12.855733114863820532
0.362000000000000210,-12.775617634654171439
0.363000000000000211,-12.695583387554382426
0.364000000000000212,-12.615672073171278811
0.365000000000000213,-12.535923644405425392
0.366000000000000214,-12.456376323799313255
0.367000000000000215,-12.377066622045841626
0.368000000000000216,-12.298029358510895293
0.369000000000000217,-12.219297683627210915
0.370000000000000218,-12.140903103020454168
0.371000000000000218,-12.062875503232334040
0.372000000000000219,-11.985243178909463779
0.373000000000000220,-11.908032861331040664
0.374000000000000221,-11.831269748152324794
0.375000000000000222,-11.754977534245295345
0.376000000000000223,-11.679178443522248543
0.377000000000000224,-11.603893261632325817
0.378000000000000225,-11.529141369425342845
0.379000000000000226,-11.454940777081629832
0.380000000000000226,-11.381308158811091147
0.381000000000000227,-11.308258888028648315
0.382000000000000228,-11.235807072917930682
0.383000000000000229,-11.163965592298978891
0.384000000000000230,-11.092746131719930958
0.385000000000000231,-11.022159219697035937
0.386000000000000232,-10.952214264030876834
0.387000000000000233,-10.882919588131114708
0.388000000000000234,-10.814282467285490696
0.389000000000000234,-10.746309164813037995
0.390000000000000235,-10.679004968044591095
0.391000000000000236,-10.612374224077800733
0.392000000000000237,-10.546420375256799318
0.393000000000000238,-10.481145994330566040
0.394000000000000239,-10.416552819246728490
0.395000000000000240,-10.352641787541211116
0.396000000000000241,-10.289413070286807184
0.397000000000000242,-10.226866105566859488
0.398000000000000242,-10.164999631443077277
0.399000000000000243,-10.103811718389074770
0.400000000000000244,-10.043299801164005558
0.401000000000000245,-9.983460710103106095
0.402000000000000246,-9.924290701804292070
0.403000000000000247,-9.865785489192258950
0.404000000000000248,-9.807940270943927175
0.405000000000000249,-9.750749760260774224
0.406000000000000250,-9.694208212975956585
0.407000000000000250,-9.638309454985828140
0.408000000000000251,-9.583046908997195246
0.409000000000000252,-9.528413620583597421
0.410000000000000253,-9.474402283545185099
0.411000000000000254,-9.421005264568593773
0.412000000000000255,-9.368214627184416443
0.413000000000000256,-9.316022155021423501
0.414000000000000257,-9.264419374357695247
0.415000000000000258,-9.213397575970363462
0.416000000000000258,-9.162947836286452485
0.417000000000000259,-9.113061037838537715
0.418000000000000260,-9.063727889029902229
0.419000000000000261,-9.014938943214660938
0.420000000000000262,-8.966684617099286214
0.421000000000000263,-8.918955208472775453
0.422000000000000264,-8.871740913273121976
0.423000000000000265,-8.825031841998843163
0.424000000000000266,-8.778818035474635906
0.425000000000000266,-8.733089479980771230
0.426000000000000267,-8.687836121756479457
0.427000000000000268,-8.643047880887973378
0.428000000000000269,-8.598714664592064238
0.429000000000000270,-8.554826379906868894
0.430000000000000271,-8.511372945801184642
0.431000000000000272,-8.468344304714655379
0.432000000000000273,-8.425730433540840281
0.433000000000000274,-8.383521354065706532
0.434000000000000274,-8.341707142874028591
0.435000000000000275,-8.300277940736542348
0.436000000000000276,-8.259223961490656407
0.437000000000000277,-8.218535500427549323
0.438000000000000278,-8.178202942198776526
0.439000000000000279,-8.138216768255285061
0.440000000000000280,-8.098567563831824856
0.441000000000000281,-8.059246024489773674
0.442000000000000282,-8.020242962231362682
0.443000000000000282,-7.981549311198025798
0.444000000000000283,-7.943156132965877525
0.445000000000000284,-7.905054621450855912
0.446000000000000285,-7.867236107436184511
0.447000000000000286,-7.829692062734759261
0.448000000000000287,-7.792414103998512864
0.449000000000000288,-7.755393996187281758
0.450000000000000289,-7.718623655708928943
0.451000000000000290,-7.682095153242731733
0.452000000000000290,-7.645800716257719287
0.453000000000000291,-7.609732731237352610
0.454000000000000292,-7.573883745621984076
0.455000000000000293,-7.538246469480055723
0.456000000000000294,-7.502813776919067479
0.457000000000000295,-7.467578707246890879
0.458000000000000296,-7.432534465893951392
0.459000000000000297,-7.397674425106513851
0.460000000000000298,-7.362992124421085194
0.461000000000000298,-7.328481270929740887
0.462000000000000299,-7.294135739345970038
0.463000000000000300,-7.259949571880300212
0.464000000000000301,-7.225916977934946139
0.465000000000000302,-7.192032333626231733
0.466000000000000303,-7.158290181143525110
0.467000000000000304,-7.124685227953075461
0.468000000000000305,-7.091212345854931876
0.469000000000000306,-7.057866569900928866
0.470000000000000306,-7.024643097181504814
0.471000000000000307,-6.991537285488718112
0.472000000000000308,-6.958544651862990982
0.473000000000000309,-6.925660871030392407
0.474000000000000310,-6.892881773737474127
0.475000000000000311,-6.860203344990177143
0.476000000000000312,-6.827621722203343957
0.477000000000000313,-6.795133193266892135
0.478000000000000314,-6.762734194534706589
0.479000000000000314,-6.730421308742117859
0.480000000000000315,-6.698191262857349670
0.481000000000000316,-6.666040925872549039
0.482000000000000317,-6.633967306539413578
0.483000000000000318,-6.601967551054483963
0.484000000000000319,-6.570038940698911922
0.485000000000000320,-6.538178889437332941
0.486000000000000321,-6.506384941480260586
0.487000000000000322,-6.474654768814292360
0.488000000000000322,-6.442986168704200267
0.489000000000000323,-6.411377061170855818
0.490000000000000324,-6.379825486448774008
0.491000000000000325,-6.348329602426813878
0.492000000000000326,-6.316887682075492449
0.493000000000000327,-6.285498110864299548
0.494000000000000328,-6.254159384171975589
0.495000000000000329,-6.222870104692971971
0.496000000000000330,-6.191628979842707103
0.497000000000000330,-6.160434819164590792
0.498000000000000331,-6.129286531741125366
0.499000000000000332,-6.098183123611826240
0.500000000000000333,-6.067123695200077549
0.501000000000000334,-6.036107438751194820
0.502000000000000335,-6.005133635783814761
0.503000000000000336,-5.974201654556584806
0.504000000000000337,-5.943310947551949219
0.505000000000000338,-5.912461048978864042
0.506000000000000338,-5.881651572296048514
0.507000000000000339,-5.850882207757342357
0.508000000000000340,-5.820152719980584699
0.509000000000000341,-5.789462945541466787
0.510000000000000342,-5.758812790593506925
0.511000000000000343,-5.728202228515405281
0.512000000000000344,-5.697631297586856824
0.513000000000000345,-5.667100098693814481
0.514000000000000346,-5.636608793064211476
0.515000000000000346,-5.606157600034888944
0.516000000000000347,-5.575746794850600097
0.517000000000000348,-5.545376706495839692
0.518000000000000349,-5.515047715559999730
0.519000000000000350,-5.484760252136629433
0.520000000000000351,-5.454514793757177848
0.521000000000000352,-5.424311863359777774
0.522000000000000353,-5.394152027293414697
0.523000000000000353,-5.364035893357844920
0.524000000000000354,-5.333964108879659882
0.525000000000000355,-5.303937358824588166
0.526000000000000356,-5.273956363946351367
0.527000000000000357,-5.244021878972257689
0.528000000000000358,-5.214134690825515506
0.529000000000000359,-5.184295616884496027
0.530000000000000360,-5.154505503278867806
0.531000000000000361,-5.124765223222683908
0.532000000000000361,-5.095075675384299174
0.533000000000000362,-5.065437782293139790
0.534000000000000363,-5.035852488783153724
0.535000000000000364,-5.006320760472835474
0.536000000000000365,-4.976843582281661682
0.537000000000000366,-4.947421956982763547
0.538000000000000367,-4.918056903791553580
0.539000000000000368,-4.888749456990220565
0.540000000000000369,-4.859500664587602436
0.541000000000000369,-4.830311587014415764
0.542000000000000370,-4.801183295853314270
0.543000000000000371,-4.772116872603589854
0.544000000000000372,-4.743113407480137766
0.545000000000000373,-4.714173998246330655
0.546000000000000374,-4.685299749080423126
0.547000000000000375,-4.656491769475101350
0.548000000000000376,-4.627751173169840193
0.549000000000000377,-4.599079077115577618
0.550000000000000377,-4.570476600471303996
0.551000000000000378,-4.541944863632185303
0.552000000000000379,-4.513484987288746808
0.553000000000000380,-4.485098091516659835
0.554000000000000381,-4.456785294896674188
0.555000000000000382,-4.428547713664320540
0.556000000000000383,-4.400386460888736195
0.557000000000000384,-4.372302645680371747
0.558000000000000385,-4.344297372426874304
0.559000000000000385,-4.316371740056865747
0.560000000000000386,-4.288526841330969397
0.561000000000000387,-4.260763762159720969
0.562000000000000388,-4.233083580947798907
0.563000000000000389,-4.205487367964120260
0.564000000000000390,-4.177976184737298482
0.565000000000000391,-4.150551083475984449
0.566000000000000392,-4.123213106513569315
0.567000000000000393,-4.095963285776825558
0.568000000000000393,-4.068802642277898229
0.569000000000000394,-4.041732185629234309
0.570000000000000395,-4.014752913580980298
0.571000000000000396,-3.987865811580236564
0.572000000000000397,-3.961071852351873979
0.573000000000000398,-3.934371995500255625
0.574000000000000399,-3.907767187131527375
0.575000000000000400,-3.881258359495883603
0.576000000000000401,-3.854846430649443878
0.577000000000000401,-3.828532304135223718
0.578000000000000402,-3.802316868682725559
0.579000000000000403,-3.776200997925712954
0.580000000000000404,-3.750185550137740798
0.581000000000000405,-3.724271367984941072
0.582000000000000406,-3.698459278295656905
0.583000000000000407,-3.672750091846465725
0.584000000000000408,-3.647144603164191867
0.585000000000000409,-3.621643590343443631
0.586000000000000409,-3.596247814879257820
0.587000000000000410,-3.570958021514484493
0.588000000000000411,-3.545774938101410534
0.589000000000000412,-3.520699275477320533
0.590000000000000413,-3.495731727353498908
0.591000000000000414,-3.470872970217348641
0.592000000000000415,-3.446123663247231406
0.593000000000000416,-3.421484448239587639
0.594000000000000417,-3.396955949548016829
0.595000000000000417,-3.372538774034013365
0.596000000000000418,-3.348233511028767317
0.597000000000000419,-3.324040732305994172
0.598000000000000420,-3.299960992065129606
0.599000000000000421,-3.275994826924794268
0.600000000000000422,-3.252142755926008100
0.601000000000000423,-3.228405280544953460
0.602000000000000424,-3.204782884714872271
0.603000000000000425,-3.181276034856824086
0.604000000000000425,-3.157885179918977769
0.605000000000000426,-3.134610751424118824
0.606000000000000427,-3.111453163525133014
0.607000000000000428,-3.088412813068009299
0.608000000000000429,-3.065490079662332334
0.609000000000000430,-3.042685325758690329
0.610000000000000431,-3.019998896732980942
