# CaO001_BSAIV9
# h[nm],U(h)[kJ/mol]
0.149999999999999994,127.860520781735587548
0.150999999999999995,125.171960797958647049
0.151999999999999996,122.366114604823337686
0.152999999999999997,119.577821412219151398
0.153999999999999998,116.851071564670561997
0.154999999999999999,114.190522402269749591
0.156000000000000000,111.587650626534355069
0.157000000000000001,109.032642792118622310
0.158000000000000002,106.518713927072639081
0.159000000000000002,104.042753539950354025
0.160000000000000003,101.604469245292506230
0.161000000000000004,99.205155225641263428
0.162000000000000005,96.846605645601471224
0.163000000000000006,94.530357276558277135
0.164000000000000007,92.257273995203703976
0.165000000000000008,90.027410099572719560
0.166000000000000009,87.840066717563175303
0.167000000000000010,85.693959853099343604
0.168000000000000010,83.587434472799060359
0.169000000000000011,81.518677923537708807
0.170000000000000012,79.485903512528494730
0.171000000000000013,77.487489386449482254
0.172000000000000014,75.522068430281393603
0.173000000000000015,73.588572018222933480
0.174000000000000016,71.686234663823938718
0.175000000000000017,69.814568603238029709
0.176000000000000018,67.973317741231966238
0.177000000000000018,66.162399740444698182
0.178000000000000019,64.381843775842014566
0.179000000000000020,62.631729934985422403
0.180000000000000021,60.912134651043302824
0.181000000000000022,59.223085060461812645
0.182000000000000023,57.564523869959941749
0.183000000000000024,55.936285241011226788
0.184000000000000025,54.338081364703725740
0.185000000000000026,52.769498794763038063
0.186000000000000026,51.230003207452696756
0.187000000000000027,49.718951033165254216
0.188000000000000028,48.235606322654035694
0.189000000000000029,46.779161238672109846
0.190000000000000030,45.348758671576916868
0.191000000000000031,43.943515639244665749
0.192000000000000032,42.562546325591156915
0.193000000000000033,41.204983820480094892
0.194000000000000034,39.869999833138379586
0.195000000000000034,38.556821851256948719
0.196000000000000035,37.264747401681397321
0.197000000000000036,35.993155231504744052
0.198000000000000037,34.741513368058889455
0.199000000000000038,33.509384131989236266
0.200000000000000039,32.296426269744614501
0.201000000000000040,31.102394441754135812
0.202000000000000041,29.927136352228281169
0.203000000000000042,28.770587838199787711
0.204000000000000042,27.632766251568845917
0.205000000000000043,26.513762471029700407
0.206000000000000044,25.413731873240099191
0.207000000000000045,24.332884576717631830
0.208000000000000046,23.271475249769228100
0.209000000000000047,22.229792747119368812
0.210000000000000048,21.208149810396410118
0.211000000000000049,20.206873036625090378
0.212000000000000050,19.226293287481723837
0.213000000000000050,18.266736681215050453
0.214000000000000051,17.328516279530965960
0.215000000000000052,16.411924553927121906
0.216000000000000053,15.517226690328845606
0.217000000000000054,14.644654767673142004
0.218000000000000055,13.794402825456433703
0.219000000000000056,12.966622817252687838
0.220000000000000057,12.161421431793607795
0.221000000000000058,11.378857750305524377
0.222000000000000058,10.618941698278574037
0.223000000000000059,9.881633241554709457
0.224000000000000060,9.166842270370002765
0.225000000000000061,8.474429110583633573
0.226000000000000062,7.804205598568005442
0.227000000000000063,7.155936654920857620
0.228000000000000064,6.529342292095625666
0.229000000000000065,5.924099992040107843
0.230000000000000066,5.339847391812848620
0.231000000000000066,4.776185217741582889
0.232000000000000067,4.232680411853002589
0.233000000000000068,3.708869397897238684
0.234000000000000069,3.204261438194953904
0.235000000000000070,2.718342036640393644
0.236000000000000071,2.250576347407862166
0.237000000000000072,1.800412553149339345
0.238000000000000073,1.367285180671564904
0.239000000000000073,0.950618326184379470
0.240000000000000074,0.549828766170228578
0.241000000000000075,0.164328933704847108
0.242000000000000076,-0.206470256370213073
0.243000000000000077,-0.563156746680816722
0.244000000000000078,-0.906314851117517861
0.245000000000000079,-1.236522950507070728
0.246000000000000080,-1.554351374874267666
0.247000000000000081,-1.860360474670446296
0.248000000000000081,-2.155098881253162624
0.249000000000000082,-2.439101955052532134
0.250000000000000111,-2.712890418243008472
0.251000000000000112,-2.976969167343834322
0.252000000000000113,-3.231826259985871808
0.253000000000000114,-3.477932069090369005
0.254000000000000115,-3.715738596897532720
0.255000000000000115,-3.945678940639779420
0.256000000000000116,-4.168166901166495464
0.257000000000000117,-4.383596725477203471
0.258000000000000118,-4.592342973894783853
0.259000000000000119,-4.794760502497686261
0.260000000000000120,-4.991184551416024462
0.261000000000000121,-5.181930929668238761
0.262000000000000122,-5.367296287363442886
0.263000000000000123,-5.547558466305950731
0.264000000000000123,-5.722976920305663739
0.265000000000000124,-5.893793196809178347
0.266000000000000125,-6.060231471815471060
0.267000000000000126,-6.222499130417031843
0.268000000000000127,-6.380787385707376913
0.269000000000000128,-6.535271929210635378
0.270000000000000129,-6.686113606414501476
0.271000000000000130,-6.833459111418415333
0.272000000000000131,-6.977441695139921407
0.273000000000000131,-7.118181881950467194
0.274000000000000132,-7.255788190033504392
0.275000000000000133,-7.390357851170779035
0.276000000000000134,-7.521977526063578168
0.277000000000000135,-7.650724011683270653
0.278000000000000136,-7.776664937518330767
0.279000000000000137,-7.899859447941215862
0.280000000000000138,-8.020358868257281060
0.281000000000000139,-8.138207352319350107
0.282000000000000139,-8.253442509893973877
0.283000000000000140,-8.366096012249737868
0.284000000000000141,-8.476194174703282513
0.285000000000000142,-8.583758515105873954
0.286000000000000143,-8.688806287481906310
0.287000000000000144,-8.791350990241436847
0.288000000000000145,-8.891402848582739438
0.289000000000000146,-8.988969270876674855
0.290000000000000147,-9.084055278985671222
0.291000000000000147,-9.176663912614223761
0.292000000000000148,-9.266796607918315942
0.293000000000000149,-9.354453550716213428
0.294000000000000150,-9.439634004745956375
0.295000000000000151,-9.522336615504439550
0.296000000000000152,-9.602559690280767057
0.297000000000000153,-9.680301455063650806
0.298000000000000154,-9.755560289058916368
0.299000000000000155,-9.828334937600233800
0.300000000000000155,-9.898624704274226360
0.301000000000000156,-9.966429623110942160
0.302000000000000157,-10.031750611713260213
0.303000000000000158,-10.094589606214173116
0.304000000000000159,-10.154949678960447201
0.305000000000000160,-10.212835139824623099
0.306000000000000161,-10.268251622046260962
0.307000000000000162,-10.321206153497294977
0.308000000000000163,-10.371707214256378649
0.309000000000000163,-10.419764781363785033
0.310000000000000164,-10.465390361611699888
0.311000000000000165,-10.508597013205379866
0.312000000000000166,-10.549399357109143338
0.313000000000000167,-10.587813578867326214
0.314000000000000168,-10.623857421665180212
0.315000000000000169,-10.657550171367901726
0.316000000000000170,-10.688912634248490363
0.317000000000000171,-10.717967108086353889
0.318000000000000171,-10.744737347289516904
0.319000000000000172,-10.769248522663907863
0.320000000000000173,-10.791527176423347356
0.321000000000000174,-10.811601173004131482
0.322000000000000175,-10.829499646218630815
0.323000000000000176,-10.845252943252864597
0.324000000000000177,-10.858892565984207934
0.325000000000000178,-10.870451110066548850
0.326000000000000179,-10.879962202203081745
0.327000000000000179,-10.887460435998693953
0.328000000000000180,-10.892981306758237281
0.329000000000000181,-10.896561145570917262
0.330000000000000182,-10.898237052995876084
0.331000000000000183,-10.898046832640636339
0.332000000000000184,-10.896028924900196699
0.333000000000000185,-10.892222341102881344
0.334000000000000186,-10.886666598287469299
0.335000000000000187,-10.879401654815726630
0.336000000000000187,-10.870467847005297557
0.337000000000000188,-10.859905826948850205
0.338000000000000189,-10.847756501668538220
0.339000000000000190,-10.834060973737532407
0.340000000000000191,-10.818860483484844082
0.341000000000000192,-10.802196352885072628
0.342000000000000193,-10.784109931220120515
0.343000000000000194,-10.764642542587518292
0.344000000000000195,-10.743835435316821503
0.345000000000000195,-10.721729733344954383
0.346000000000000196,-10.698366389589768488
0.347000000000000197,-10.673786141351751411
0.348000000000000198,-10.648029467764189349
0.349000000000000199,-10.621136549303525243
0.350000000000000200,-10.593147229364010542
0.351000000000000201,-10.564100977893170707
0.352000000000000202,-10.534036857078019622
0.353000000000000203,-10.502993489066060562
0.354000000000000203,-10.471009025699363093
0.355000000000000204,-10.438121120235011929
0.356000000000000205,-10.404366901020861036
0.357000000000000206,-10.369782947091490399
0.358000000000000207,-10.334405265645337124
0.359000000000000208,-10.298269271361302657
0.360000000000000209,-10.261409767510000890
0.361000000000000210,-10.223860928812516846
0.362000000000000210,-10.185656285997481518
0.363000000000000211,-10.146828712005529383
0.364000000000000212,-10.107410409788860406
0.365000000000000213,-10.067432901652241029
0.366000000000000214,-10.026927020081133790
0.367000000000000215,-9.985922900001938274
0.368000000000000216,-9.944449972418805572
0.369000000000000217,-9.902536959371355252
0.370000000000000218,-9.860211870157648661
0.371000000000000218,-9.817501998766761773
0.372000000000000219,-9.774433922465783908
0.373000000000000220,-9.731033501486448856
0.374000000000000221,-9.687325879757191061
0.375000000000000222,-9.643335486627014674
0.376000000000000223,-9.599086039528716086
0.377000000000000224,-9.554600547529421561
0.378000000000000225,-9.509901315717872450
0.379000000000000226,-9.465009950378505010
0.380000000000000226,-9.419947364904009746
0.381000000000000227,-9.374733786398603996
0.382000000000000228,-9.329388762926196677
0.383000000000000229,-9.283931171358322132
0.384000000000000230,-9.238379225778233561
0.385000000000000231,-9.192750486399086540
0.386000000000000232,-9.147061868955061570
0.387000000000000233,-9.101329654526095325
0.388000000000000234,-9.055569499757840646
0.389000000000000234,-9.009796447440322709
0.390000000000000235,-8.964024937409623917
0.391000000000000236,-8.918268817738809418
0.392000000000000237,-8.872541356185219996
0.393000000000000238,-8.826855251863070961
0.394000000000000239,-8.781222647111146529
0.395000000000000240,-8.735655139527169766
0.396000000000000241,-8.690163794141477993
0.397000000000000242,-8.644759155703834352
0.398000000000000242,-8.599451261058867146
0.399000000000000243,-8.554249651586381731
0.400000000000000244,-8.509163385684294312
0.401000000000000245,-8.464201051273139598
0.402000000000000246,-8.419370778302079472
0.403000000000000247,-8.374680251237535344
0.404000000000000248,-8.330136721516783638
0.405000000000000249,-8.285747019949804226
0.406000000000000250,-8.241517569053574022
0.407000000000000250,-8.197454395304358599
0.408000000000000251,-8.153563141294112526
0.409000000000000252,-8.109849077778370940
0.410000000000000253,-8.066317115603645505
0.411000000000000254,-8.022971817503441017
0.412000000000000255,-7.979817409752658186
0.413000000000000256,-7.936857793671137529
0.414000000000000257,-7.894096556967587830
0.415000000000000258,-7.851536984916341666
0.416000000000000258,-7.809182071359548338
0.417000000000000259,-7.767034529528568321
0.418000000000000260,-7.725096802678715235
0.419000000000000261,-7.683371074532161060
0.420000000000000262,-7.641859279524496174
0.421000000000000263,-7.600563112851010494
0.422000000000000264,-7.559484040309037312
0.423000000000000265,-7.518623307933649969
0.424000000000000266,-7.477981951424169438
0.425000000000000266,-7.437560805359465732
0.426000000000000267,-7.397360512200532590
0.427000000000000268,-7.357381531079218107
0.428000000000000269,-7.317624146372359917
0.429000000000000270,-7.278088476060918133
0.430000000000000271,-7.238774479874118484
0.431000000000000272,-7.199681967218896084
0.432000000000000273,-7.160810604895206488
0.433000000000000274,-7.122159924598172154
0.434000000000000274,-7.083729330208159425
0.435000000000000275,-7.045518104870195586
0.436000000000000276,-7.007525417864444606
0.437000000000000277,-6.969750331269490395
0.438000000000000278,-6.932191806420554769
0.439000000000000279,-6.894848710164933614
0.440000000000000280,-6.857719820916926778
0.441000000000000281,-6.820803834514961750
0.442000000000000282,-6.784099369883593411
0.443000000000000282,-6.747604974503149222
0.444000000000000283,-6.711319129690084040
0.445000000000000284,-6.675240255691036850
0.446000000000000285,-6.639366716593715800
0.447000000000000286,-6.603696825058020359
0.448000000000000287,-6.568228846870461268
0.449000000000000288,-6.532961005325509163
0.450000000000000289,-6.497891485437131465
0.451000000000000290,-6.463018437984061393
0.452000000000000290,-6.428339983392374002
0.453000000000000291,-6.393854215458778079
0.454000000000000292,-6.359559204918374675
0.455000000000000293,-6.325453002860301766
0.456000000000000294,-6.291533643995006031
0.457000000000000295,-6.257799149776666070
0.458000000000000296,-6.224247531384376586
0.459000000000000297,-6.190876792565739528
0.460000000000000298,-6.157684932346379370
0.461000000000000298,-6.124669947609013398
0.462000000000000299,-6.091829835545600424
0.463000000000000300,-6.059162595986043343
0.464000000000000301,-6.026666233607054224
0.465000000000000302,-5.994338760024517043
0.466000000000000303,-5.962178195772889211
0.467000000000000304,-5.930182572174928168
0.468000000000000305,-5.898349933105188292
0.469000000000000306,-5.866678336650511305
0.470000000000000306,-5.835165856670864848
0.471000000000000307,-5.803810584263618289
0.472000000000000308,-5.772610629134550919
0.473000000000000309,-5.741564120878630106
0.474000000000000310,-5.710669210173616506
0.475000000000000311,-5.679924069889535687
0.476000000000000312,-5.649326896117008445
0.477000000000000313,-5.618875909117207357
0.478000000000000314,-5.588569354196408767
0.479000000000000314,-5.558405502507903329
0.480000000000000315,-5.528382651783894985
0.481000000000000316,-5.498499127000217257
0.482000000000000317,-5.468753280976313746
0.483000000000000318,-5.439143494913153631
0.484000000000000319,-5.409668178871513966
0.485000000000000320,-5.380325772193083722
0.486000000000000321,-5.351114743866771661
0.487000000000000322,-5.322033592842511318
0.488000000000000322,-5.293080848294815510
0.489000000000000323,-5.264255069838334578
0.490000000000000324,-5.235554847697513559
0.491000000000000325,-5.206978802832447073
0.492000000000000326,-5.178525587022921428
0.493000000000000327,-5.150193882912716070
0.494000000000000328,-5.121982404015964718
0.495000000000000329,-5.093889894687530173
0.496000000000000330,-5.065915130059109650
0.497000000000000330,-5.038056915942962455
0.498000000000000331,-5.010314088704747704
0.499000000000000332,-4.982685515107368346
0.500000000000000333,-4.955170092127238135
0.501000000000000334,-4.927766746744553394
0.502000000000000335,-4.900474435709140764
0.503000000000000336,-4.873292145283248722
0.504000000000000337,-4.846218890962716408
0.505000000000000338,-4.819253717177866214
0.506000000000000338,-4.792395696975432884
0.507000000000000339,-4.765643931682786771
0.508000000000000340,-4.738997550555649418
0.509000000000000341,-4.712455710410537790
0.510000000000000342,-4.686017595242974565
0.511000000000000343,-4.659682415832649305
0.512000000000000344,-4.633449409336505731
0.513000000000000345,-4.607317838870782722
0.514000000000000346,-4.581286993083060644
0.515000000000000346,-4.555356185715096373
0.516000000000000347,-4.529524755157454230
0.517000000000000348,-4.503792063996803208
0.518000000000000349,-4.478157498556594618
0.519000000000000350,-4.452620468432046508
0.520000000000000351,-4.427180406020079673
0.521000000000000352,-4.401836766045025939
0.522000000000000353,-4.376589025080728668
0.523000000000000353,-4.351436681069712265
0.524000000000000354,-4.326379252840136580
0.525000000000000355,-4.301416279620993599
0.526000000000000356,-4.276547320556245424
0.527000000000000357,-4.251771954218435567
0.528000000000000358,-4.227089778122208763
0.529000000000000359,-4.202500408238374341
0.530000000000000360,-4.178003478508852453
0.531000000000000361,-4.153598640363055594
0.532000000000000361,-4.129285562236059803
0.533000000000000362,-4.105063929089014074
0.534000000000000363,-4.080933441932147687
0.535000000000000364,-4.056893817350733400
0.536000000000000365,-4.032944787034351108
0.537000000000000366,-4.009086097309799257
0.538000000000000367,-3.985317508677864051
0.539000000000000368,-3.961638795354383014
0.540000000000000369,-3.938049744815688591
0.541000000000000369,-3.914550157348829718
0.542000000000000370,-3.891139845606714776
0.543000000000000371,-3.867818634168403769
0.544000000000000372,-3.844586359104800177
0.545000000000000373,-3.821442867549849076
0.546000000000000374,-3.798388017277483986
0.547000000000000375,-3.775421676284398842
0.548000000000000376,-3.752543722378911095
0.549000000000000377,-3.729754042775914602
0.550000000000000377,-3.707052533698115493
0.551000000000000378,-3.684439099983646493
0.552000000000000379,-3.661913654700161835
0.553000000000000380,-3.639476118765474943
0.554000000000000381,-3.617126420574818813
0.555000000000000382,-3.594864495634853885
0.556000000000000383,-3.572690286204343924
0.557000000000000384,-3.550603740941739694
0.558000000000000385,-3.528604814559500369
0.559000000000000385,-3.506693467485352045
0.560000000000000386,-3.484869665530415439
0.561000000000000387,-3.463133379564239167
0.562000000000000388,-3.441484585196752821
0.563000000000000389,-3.419923262467141178
0.564000000000000390,-3.398449395539620888
0.565000000000000391,-3.377062972406118746
0.566000000000000392,-3.355763984595834692
0.567000000000000393,-3.334552426891688182
0.568000000000000393,-3.313428297053548022
0.569000000000000394,-3.292391595548291860
0.570000000000000395,-3.271442325286661124
0.571000000000000396,-3.250580491366746205
0.572000000000000397,-3.229806100824258230
0.573000000000000398,-3.209119162389323598
0.574000000000000399,-3.188519686249933649
0.575000000000000400,-3.168007683821849163
0.576000000000000401,-3.147583167524976577
0.577000000000000401,-3.127246150566170169
0.578000000000000402,-3.106996646728304334
0.579000000000000403,-3.086834670165623074
0.580000000000000404,-3.066760235205308049
0.581000000000000405,-3.046773356155108470
0.582000000000000406,-3.026874047117042998
0.583000000000000407,-3.007062321807040028
0.584000000000000408,-2.987338193380476348
0.585000000000000409,-2.967701674263511169
0.586000000000000409,-2.948152775990114716
0.587000000000000410,-2.928691509044790031
0.588000000000000411,-2.909317882710766856
0.589000000000000412,-2.890031904923741291
0.590000000000000413,-2.870833582130930317
0.591000000000000414,-2.851722919155446512
0.592000000000000415,-2.832699919065886363
0.593000000000000416,-2.813764583051014068
0.594000000000000417,-2.794916910299455104
0.595000000000000417,-2.776156897884408892
0.596000000000000418,-2.757484540653078131
0.597000000000000419,-2.738899831120997330
0.598000000000000420,-2.720402759370907031
0.599000000000000421,-2.701993312956298077
0.600000000000000422,-2.683671476809388334
0.601000000000000423,-2.665437233153519880
0.602000000000000424,-2.647290561419869626
0.603000000000000425,-2.629231438168372126
0.604000000000000425,-2.611259837012771534
0.605000000000000426,-2.593375728549717429
0.606000000000000427,-2.575579080291856116
0.607000000000000428,-2.557869856604690462
0.608000000000000429,-2.540248018647352168
0.609000000000000430,-2.522713524316946732
0.610000000000000431,-2.505266328196600334
0.611000000000000432,-2.487906381506978182
