# CaO001_METHOXYPHENOL-AC
# h[nm],U(h)[kJ/mol]
0.149999999999999994,117.457602475722822533
0.150999999999999995,115.668339685897677782
0.151999999999999996,112.905544051727162014
0.152999999999999997,109.956331417114711257
0.153999999999999998,107.117936316423850940
0.154999999999999999,104.454253855722754452
0.156000000000000000,101.935224887701636476
0.157000000000000001,99.507032714939029461
0.158000000000000002,97.123078342706008925
0.159000000000000002,94.754002469986431834
0.160000000000000003,92.387537753880366154
0.161000000000000004,90.024278628055455442
0.162000000000000005,87.672581659430846912
0.163000000000000006,85.344107536860221330
0.164000000000000007,83.050554081533761064
0.165000000000000008,80.801623972561358755
0.166000000000000009,78.604037057128905985
0.167000000000000010,76.461318002558869011
0.168000000000000010,74.374092824729302720
0.169000000000000011,72.340668623808568327
0.170000000000000012,70.357724392745936370
0.171000000000000013,68.420993432600894835
0.172000000000000014,66.525863234899730969
0.173000000000000015,64.667854375059874883
0.174000000000000016,62.842966004624976506
0.175000000000000017,61.047893076146067415
0.176000000000000018,59.280131072048938279
0.177000000000000018,57.537989380119334726
0.178000000000000019,55.820536054987371699
0.179000000000000020,54.127495779474884330
0.180000000000000021,52.459120383303570634
0.181000000000000022,50.816048035051821330
0.182000000000000023,49.199163728745972435
0.183000000000000024,47.609470296674167855
0.184000000000000025,46.047976115848484824
0.185000000000000026,44.515603055491446582
0.186000000000000026,43.013116082024986042
0.187000000000000027,41.541074291338844660
0.188000000000000028,40.099801938951088687
0.189000000000000029,38.689377232404972062
0.190000000000000030,37.309636174174933387
0.191000000000000031,35.960188533597900573
0.192000000000000032,34.640443022322848776
0.193000000000000033,33.349638894883511853
0.194000000000000034,32.086881447019969471
0.195000000000000034,30.851179199875389259
0.196000000000000035,29.641480906389936933
0.197000000000000036,28.456710872387084521
0.198000000000000037,27.295801430561510870
0.199000000000000038,26.157721727800627320
0.200000000000000039,25.041502276470282595
0.201000000000000040,23.946254973578955827
0.202000000000000041,22.871188506075714741
0.203000000000000042,21.815619236079108134
0.204000000000000042,20.778977798291617063
0.205000000000000043,19.760811746035649605
0.206000000000000044,18.760784655728382830
0.207000000000000045,17.778672146043778213
0.208000000000000046,16.814355291444730511
0.209000000000000047,15.867811914097762482
0.210000000000000048,14.939106227094219648
0.211000000000000049,14.028377278798695116
0.212000000000000050,13.135826616081009988
0.213000000000000050,12.261705545859665989
0.214000000000000051,11.406302332100695551
0.215000000000000052,10.569929621132542863
0.216000000000000053,9.752912343457142086
0.217000000000000054,8.955576296448052531
0.218000000000000055,8.178237570427096870
0.219000000000000056,7.421192941349826988
0.220000000000000057,6.684711317226830651
0.221000000000000058,5.969026292809116896
0.222000000000000058,5.274329838139339977
0.223000000000000059,4.600767121379494284
0.224000000000000060,3.948432444808903874
0.225000000000000061,3.317366254915714130
0.226000000000000062,2.707553172886850046
0.227000000000000063,2.118920980298812928
0.228000000000000064,1.551340486162328558
0.229000000000000065,1.004626195393529153
0.230000000000000066,0.478537694990889217
0.231000000000000066,-0.027218327599907787
0.232000000000000067,-0.512985519524558287
0.233000000000000068,-0.979154835171691884
0.234000000000000069,-1.426161128055721594
0.235000000000000070,-1.854479439980430300
0.236000000000000071,-2.264621061194610263
0.237000000000000072,-2.657129430335507969
0.238000000000000073,-3.032575937628906093
0.239000000000000073,-3.391555689225731474
0.240000000000000074,-3.734683284834761086
0.241000000000000075,-4.062588655066056376
0.242000000000000076,-4.375912999225390010
0.243000000000000077,-4.675304858773164263
0.244000000000000078,-4.961416356342626344
0.245000000000000079,-5.234899625152067415
0.246000000000000080,-5.496403448880355924
0.247000000000000081,-5.746570127632813829
0.248000000000000081,-5.986032581520655427
0.249000000000000082,-6.215411699623464514
0.250000000000000111,-6.435313938703373537
0.251000000000000112,-6.646329172987899270
0.252000000000000113,-6.849028793631179113
0.253000000000000114,-7.043964054085454229
0.254000000000000115,-7.231664655557501931
0.255000000000000115,-7.412637564966360060
0.256000000000000116,-7.587366056345909548
0.257000000000000117,-7.756308965426116586
0.258000000000000118,-7.919900146161674925
0.259000000000000119,-8.078548117236433512
0.260000000000000120,-8.232635886035390982
0.261000000000000121,-8.382520937223500113
0.262000000000000122,-8.528535372883734311
0.263000000000000123,-8.670986191125313880
0.264000000000000123,-8.810155690161275643
0.265000000000000124,-8.946301985053271011
0.266000000000000125,-9.079659624617503866
0.267000000000000126,-9.210440296361538159
0.268000000000000127,-9.338833607766330758
0.269000000000000128,-9.465007932726438256
0.270000000000000129,-9.589111312503971973
0.271000000000000130,-9.711272401127530429
0.272000000000000131,-9.831601445766422032
0.273000000000000131,-9.950191293225209677
0.274000000000000132,-10.067118414325689102
0.275000000000000133,-10.182443938567489639
0.276000000000000134,-10.296214692077473529
0.277000000000000135,-10.408464232467830257
0.278000000000000136,-10.519213874819349996
0.279000000000000137,-10.628473703585342491
0.280000000000000138,-10.736243565770518416
0.281000000000000139,-10.842514041276155368
0.282000000000000139,-10.947267386814814927
0.283000000000000140,-11.050478450284703769
0.284000000000000141,-11.152115552953375754
0.285000000000000142,-11.252141337233176444
0.286000000000000143,-11.350513578235439383
0.287000000000000144,-11.447185957667235456
0.288000000000000145,-11.542108798984653362
0.289000000000000146,-11.635229763037726158
0.290000000000000147,-11.726494503739004927
0.291000000000000147,-11.815847283556726310
0.292000000000000148,-11.903231548879080748
0.293000000000000149,-11.988590465516413275
0.294000000000000150,-12.071867414806245478
0.295000000000000151,-12.153006450961964191
0.296000000000000152,-12.231952720460864015
0.297000000000000153,-12.308652844402871551
0.298000000000000154,-12.383055264888138680
0.299000000000000155,-12.455110556561379553
0.300000000000000155,-12.524771704554328977
0.301000000000000156,-12.591994350126066493
0.302000000000000157,-12.656737005355820358
0.303000000000000158,-12.718961238284459014
0.304000000000000159,-12.778631829931137887
0.305000000000000160,-12.835716904630890767
0.306000000000000161,-12.890188035148597123
0.307000000000000162,-12.942020324025884648
0.308000000000000163,-12.991192462610134939
0.309000000000000163,-13.037686769200973913
0.310000000000000164,-13.081489207729285695
0.311000000000000165,-13.122589388357701168
0.312000000000000166,-13.160980551361253887
0.313000000000000167,-13.196659535611747316
0.314000000000000168,-13.229626732951221157
0.315000000000000169,-13.259886029698492393
0.316000000000000170,-13.287444736489172570
0.317000000000000171,-13.312313507603557028
0.318000000000000171,-13.334506250889569756
0.319000000000000172,-13.354040029339907747
0.320000000000000173,-13.370934955332833383
0.321000000000000174,-13.385214078496826318
0.322000000000000175,-13.396903268109657148
0.323000000000000176,-13.406031090892605917
0.324000000000000177,-13.412628685011748431
0.325000000000000178,-13.416729631049159721
0.326000000000000179,-13.418369820659814096
0.327000000000000179,-13.417587323582310432
0.328000000000000180,-13.414422253626336001
0.329000000000000181,-13.408916634215255925
0.330000000000000182,-13.401114264018412214
0.331000000000000183,-13.391060583166645159
0.332000000000000184,-13.378802540503595964
0.333000000000000185,-13.364388462286637349
0.334000000000000186,-13.347867922714140576
0.335000000000000187,-13.329291616619787675
0.336000000000000187,-13.308711234640790977
0.337000000000000188,-13.286179341133964371
0.338000000000000189,-13.261749255083278953
0.339000000000000190,-13.235474934212632547
0.340000000000000191,-13.207410862490055692
0.341000000000000192,-13.177611941183721811
0.342000000000000193,-13.146133383604814426
0.343000000000000194,-13.113030613649929279
0.344000000000000195,-13.078359168233300025
0.345000000000000195,-13.042174603679544731
0.346000000000000196,-13.004532406128214816
0.347000000000000197,-12.965487905984275585
0.348000000000000198,-12.925096196432201978
0.349000000000000199,-12.883412056016425140
0.350000000000000200,-12.840489875277247833
0.351000000000000201,-12.796383587418258543
0.352000000000000202,-12.751146602970232280
0.353000000000000203,-12.704831748405613467
0.354000000000000203,-12.657491208648380621
0.355000000000000204,-12.609176473415251607
0.356000000000000205,-12.559938287316894545
0.357000000000000206,-12.509826603640718190
0.358000000000000207,-12.458890541730706758
0.359000000000000208,-12.407178347874831204
0.360000000000000209,-12.354737359605742597
0.361000000000000210,-12.301613973316602113
0.362000000000000210,-12.247853615090781076
0.363000000000000211,-12.193500714641235305
0.364000000000000212,-12.138598682253583405
0.365000000000000213,-12.083189888624882968
0.366000000000000214,-12.027315647489269068
0.367000000000000215,-11.971016200920708172
0.368000000000000216,-11.914330707202935855
0.369000000000000217,-11.857297231156515238
0.370000000000000218,-11.799952736813608567
0.371000000000000218,-11.742333082331422034
0.372000000000000219,-11.684473017036534515
0.373000000000000220,-11.626406180493484399
0.374000000000000221,-11.568165103492358270
0.375000000000000222,-11.509781210851819822
0.376000000000000223,-11.451284825936095757
0.377000000000000224,-11.392705176786057208
0.378000000000000225,-11.334070403767080748
0.379000000000000226,-11.275407568638350142
0.380000000000000226,-11.216742664951008024
0.381000000000000227,-11.158100629684557958
0.382000000000000228,-11.099505356034068626
0.383000000000000229,-11.040979707262843945
0.384000000000000230,-10.982545531538175254
0.385000000000000231,-10.924223677670564570
0.386000000000000232,-10.866034011679209570
0.387000000000000233,-10.807995434109706423
0.388000000000000234,-10.750125898032349525
0.389000000000000234,-10.692442427652496306
0.390000000000000235,-10.634961137466783399
0.391000000000000236,-10.577697251902204556
0.392000000000000237,-10.520665125377341553
0.393000000000000238,-10.463878262728020019
0.394000000000000239,-10.407349339942072675
0.395000000000000240,-10.351090225150684887
0.396000000000000241,-10.295111999826236371
0.397000000000000242,-10.239424980139052224
0.398000000000000242,-10.184038738428046855
0.399000000000000243,-10.128962124742514561
0.400000000000000244,-10.074203288414661728
0.401000000000000245,-10.019769699625006965
0.402000000000000246,-9.965668170924580238
0.403000000000000247,-9.911904878680338982
0.404000000000000248,-9.858485384412235319
0.405000000000000249,-9.805414655992358064
0.406000000000000250,-9.752697088678525361
0.407000000000000250,-9.700336525956680944
0.408000000000000251,-9.648336280168194889
0.409000000000000252,-9.596699152900082908
0.410000000000000253,-9.545427455117629023
0.411000000000000254,-9.494523027020779438
0.412000000000000255,-9.443987257607073360
0.413000000000000256,-9.393821103925560578
0.414000000000000257,-9.344025110007317281
0.415000000000000258,-9.294599425459987074
0.416000000000000258,-9.245543823714625020
0.417000000000000259,-9.196857719914779850
0.418000000000000260,-9.148540188438721188
0.419000000000000261,-9.100589980046958516
0.420000000000000262,-9.053005538648289274
0.421000000000000263,-9.005785017678693549
0.422000000000000264,-8.958926296088160157
0.423000000000000265,-8.912426993931839903
0.424000000000000266,-8.866284487562495542
0.425000000000000266,-8.820495924422138145
0.426000000000000267,-8.775058237431577979
0.427000000000000268,-8.729968158977360559
0.428000000000000269,-8.685222234496103866
0.429000000000000270,-8.640816835657204820
0.430000000000000271,-8.596748173145135397
0.431000000000000272,-8.553012309043426242
0.432000000000000273,-8.509605168822783838
0.433000000000000274,-8.466522552936378787
0.434000000000000274,-8.423760148025760230
0.435000000000000275,-8.381313537741272413
0.436000000000000276,-8.339178213181316579
0.437000000000000277,-8.297349582955039438
0.438000000000000278,-8.255822982873484150
0.439000000000000279,-8.214593685274486745
0.440000000000000280,-8.173656907986876163
0.441000000000000281,-8.133007822939749332
0.442000000000000282,-8.092641564422997646
0.443000000000000282,-8.052553237005136921
0.444000000000000283,-8.012737923115029304
0.445000000000000284,-7.973190690294015504
0.446000000000000285,-7.933906598125069820
0.447000000000000286,-7.894880704846078956
0.448000000000000287,-7.856108073653817137
0.449000000000000288,-7.817583778705978759
0.450000000000000289,-7.779302910828090667
0.451000000000000290,-7.741260582932554257
0.452000000000000290,-7.703451935156984121
0.453000000000000291,-7.665872139728951318
0.454000000000000292,-7.628516405564437441
0.455000000000000293,-7.591379982607046273
0.456000000000000294,-7.554458165915280077
0.457000000000000295,-7.517746299504983298
0.458000000000000296,-7.481239779954007574
0.459000000000000297,-7.444934059776265656
0.460000000000000298,-7.408824650572119808
0.461000000000000298,-7.372907125962099073
0.462000000000000299,-7.337177124310815479
0.463000000000000300,-7.301630351247872852
0.464000000000000301,-7.266262581992561920
0.465000000000000302,-7.231069663488900900
0.466000000000000303,-7.196047516357663376
0.467000000000000304,-7.161192136671770569
0.468000000000000305,-7.126499597561459787
0.469000000000000306,-7.091966050655436504
0.470000000000000306,-7.057587727364246000
0.471000000000000307,-7.023360940011718512
0.472000000000000308,-6.989282082820636788
0.473000000000000309,-6.955347632758221543
0.474000000000000310,-6.921554150247274606
0.475000000000000311,-6.887898279748425168
0.476000000000000312,-6.854376750219063119
0.477000000000000313,-6.820986375454145545
0.478000000000000314,-6.787724054314146827
0.479000000000000314,-6.754586770845267374
0.480000000000000315,-6.721571594296757546
0.481000000000000316,-6.688675679040324340
0.482000000000000317,-6.655896264396176321
0.483000000000000318,-6.623230674370432780
0.484000000000000319,-6.590676317308256316
0.485000000000000320,-6.558230685467144383
0.486000000000000321,-6.525891354514508969
0.487000000000000322,-6.493655982953731254
0.488000000000000322,-6.461522311482575276
0.489000000000000323,-6.429488162287922748
0.490000000000000324,-6.397551438280532743
0.491000000000000325,-6.365710122273442906
0.492000000000000326,-6.333962276107509837
0.493000000000000327,-6.302306039727600506
0.494000000000000328,-6.270739630212577964
0.495000000000000329,-6.239261340762397801
0.496000000000000330,-6.207869539645276546
0.497000000000000330,-6.176562669108045966
0.498000000000000331,-6.145339244252356892
0.499000000000000332,-6.114197851879730194
0.500000000000000333,-6.083137149307950686
0.501000000000000334,-6.052155863161415184
0.502000000000000335,-6.021252788137938516
0.503000000000000336,-5.990426785754374706
0.504000000000000337,-5.959676783073325268
0.505000000000000338,-5.929001771413133781
0.506000000000000338,-5.898400805043289452
0.507000000000000339,-5.867872999867254080
0.508000000000000340,-5.837417532094592687
0.509000000000000341,-5.807033636904416873
0.510000000000000342,-5.776720607101698768
0.511000000000000343,-5.746477791768347387
0.512000000000000344,-5.716304594910544878
0.513000000000000345,-5.686200474103928926
0.514000000000000346,-5.656164939138148107
0.515000000000000346,-5.626197550662089597
0.516000000000000347,-5.596297918831197649
0.517000000000000348,-5.566465701958153822
0.518000000000000349,-5.536700605168064726
0.519000000000000350,-5.507002379059374952
0.520000000000000351,-5.477370818371531058
0.521000000000000352,-5.447805760660493490
0.522000000000000353,-5.418307084982972199
0.523000000000000353,-5.388874710590377148
0.524000000000000354,-5.359508595633348804
0.525000000000000355,-5.330208735877604909
0.526000000000000356,-5.300975163431927761
0.527000000000000357,-5.271807945489035419
0.528000000000000358,-5.242707183079877709
0.529000000000000359,-5.213673009842142214
0.530000000000000360,-5.184705590803396547
0.531000000000000361,-5.155805121179537487
0.532000000000000361,-5.126971825188936904
0.533000000000000362,-5.098205954882798707
0.534000000000000363,-5.069507788992168251
0.535000000000000364,-5.040877631791896185
0.536000000000000365,-5.012315811981996383
0.537000000000000366,-4.983822681586684844
0.538000000000000367,-4.955398614871331375
0.539000000000000368,-4.927044007277702420
0.540000000000000369,-4.898759274377575856
0.541000000000000369,-4.870544850845051066
0.542000000000000370,-4.842401189447635979
0.543000000000000371,-4.814328760056302947
0.544000000000000372,-4.786328048674633351
0.545000000000000373,-4.758399556487129090
0.546000000000000374,-4.730543798926768240
0.547000000000000375,-4.702761304761855499
0.548000000000000376,-4.675052615202249129
0.549000000000000377,-4.647418283024896013
0.550000000000000377,-4.619858871718717452
0.551000000000000378,-4.592374954648820840
0.552000000000000379,-4.564967114239998125
0.553000000000000380,-4.537635941179432031
0.554000000000000381,-4.510382033638546062
0.555000000000000382,-4.483205996513985880
0.556000000000000383,-4.456108440687443384
0.557000000000000384,-4.429089982304487805
0.558000000000000385,-4.402151242071995263
0.559000000000000385,-4.375292844574256712
0.560000000000000386,-4.348515417607508482
0.561000000000000387,-4.321819591532753968
0.562000000000000388,-4.295205998646714818
0.563000000000000389,-4.268675272570744639
0.564000000000000390,-4.242228047657506274
0.565000000000000391,-4.215864958415222574
0.566000000000000392,-4.189586638949317710
0.567000000000000393,-4.163393722421256271
0.568000000000000393,-4.137286840524311060
0.569000000000000394,-4.111266622976094354
0.570000000000000395,-4.085333697027673239
0.571000000000000396,-4.059488686988890649
0.572000000000000397,-4.033732213769861019
0.573000000000000398,-4.008064894438243542
0.574000000000000399,-3.982487341792153579
0.575000000000000400,-3.957000163948416027
0.576000000000000401,-3.931603963945933256
0.577000000000000401,-3.906299339363980216
0.578000000000000402,-3.881086881955053691
0.579000000000000403,-3.855967177292133563
0.580000000000000404,-3.830940804430094992
0.581000000000000405,-3.806008335580945978
0.582000000000000406,-3.781170335802725102
0.583000000000000407,-3.756427362701734829
0.584000000000000408,-3.731779966147926952
0.585000000000000409,-3.707228688003112005
0.586000000000000409,-3.682774061861786130
0.587000000000000410,-3.658416612804333390
0.588000000000000411,-3.634156857162282872
0.589000000000000412,-3.609995302295465169
0.590000000000000413,-3.585932446380706295
0.591000000000000414,-3.561968778211922260
0.592000000000000415,-3.538104777011280788
0.593000000000000416,-3.514340912251207705
0.594000000000000417,-3.490677643486994164
0.595000000000000417,-3.467115420199822218
0.596000000000000418,-3.443654681649781502
0.597000000000000419,-3.420295856738909457
0.598000000000000420,-3.397039363883734175
0.599000000000000421,-3.373885610897320309
0.600000000000000422,-3.350834994880410367
0.601000000000000423,-3.327887902121538843
0.602000000000000424,-3.305044708005838938
0.603000000000000425,-3.282305776932331831
0.604000000000000425,-3.259671462239452033
0.605000000000000426,-3.237142106138630737
0.606000000000000427,-3.214718039655695581
0.607000000000000428,-3.192399582579807937
0.608000000000000429,-3.170187043419895989
0.609000000000000430,-3.148080719368126168
0.610000000000000431,-3.126080896270470255
