# CaO001_OXOLANE-AC
# h[nm],U(h)[kJ/mol]
0.149999999999999994,150.460696670767532623
0.150999999999999995,148.283986359731386528
0.151999999999999996,145.609646026319438761
0.152999999999999997,142.855805694313005461
0.153999999999999998,140.178436523448937123
0.154999999999999999,137.608875607783204487
0.156000000000000000,135.128575653376884702
0.157000000000000001,132.706743198174365261
0.158000000000000002,130.316919489657436770
0.159000000000000002,127.942303547323149360
0.160000000000000003,125.575609359912135687
0.161000000000000004,123.216730813928052157
0.162000000000000005,120.869944274753535751
0.163000000000000006,118.541463308747481165
0.164000000000000007,116.237641912495931251
0.165000000000000008,113.963849695411312268
0.166000000000000009,111.723916002108097700
0.167000000000000010,109.519997014485923614
0.168000000000000010,107.352721235775248942
0.169000000000000011,105.221490761078683818
0.170000000000000012,103.124844707646090569
0.171000000000000013,101.060819733171314283
0.172000000000000014,99.027267182384164812
0.173000000000000015,97.022105804953014285
0.174000000000000016,95.043503166809685467
0.175000000000000017,93.089988441588161550
0.176000000000000018,91.160505075029178101
0.177000000000000018,89.254414751764400648
0.178000000000000019,87.371464970580902332
0.179000000000000020,85.511732032488637856
0.180000000000000021,83.675549906316604165
0.181000000000000022,81.863433666545475376
0.182000000000000023,80.076004289100822575
0.183000000000000024,78.313919739039960177
0.184000000000000025,76.577815610921035727
0.185000000000000026,74.868257153458699804
0.186000000000000026,73.185703349808662210
0.187000000000000027,71.530482830915843806
0.188000000000000028,69.902780751714857388
0.189000000000000029,68.302635328522910640
0.190000000000000030,66.729942486134589785
0.191000000000000031,65.184466959635116723
0.192000000000000032,63.665858205289168836
0.193000000000000033,62.173669566816840870
0.194000000000000034,60.707379291775794172
0.195000000000000034,59.266412175778398819
0.196000000000000035,57.850160812271745669
0.197000000000000036,56.458005628904899709
0.198000000000000037,55.089333087905266950
0.199000000000000038,53.743551610193989632
0.200000000000000039,52.420104946514960886
0.201000000000000040,51.118482860982652483
0.202000000000000041,49.838229112128921372
0.203000000000000042,48.578946813914583913
0.204000000000000042,47.340301335311224307
0.205000000000000043,46.122020953613251493
0.206000000000000044,44.923895515629759245
0.207000000000000045,43.745773384569297093
0.208000000000000046,42.587556961049251925
0.209000000000000047,41.449197066483911556
0.210000000000000048,40.330686468255599664
0.211000000000000049,39.232052810511817142
0.212000000000000050,38.153351193914453177
0.213000000000000050,37.094656623747198410
0.214000000000000051,36.056056519787155423
0.215000000000000052,35.037643454391940168
0.216000000000000053,34.039508258257384909
0.217000000000000054,33.061733607002423696
0.218000000000000055,32.104388176701455393
0.219000000000000056,31.167521433135554787
0.220000000000000057,30.251159098160201211
0.221000000000000058,29.355299317380939783
0.222000000000000058,28.479909536372616685
0.223000000000000059,27.624924078001622973
0.224000000000000060,26.790242400964054070
0.225000000000000061,25.975728009353293402
0.226000000000000062,25.181207974792826576
0.227000000000000063,24.406473026268731275
0.228000000000000064,23.651278158107118088
0.229000000000000065,22.915343703390579577
0.230000000000000066,22.198356818322910300
0.231000000000000066,21.499973322453861613
0.232000000000000067,20.819819840100461050
0.233000000000000068,20.157496189584854562
0.234000000000000069,19.512577968901268832
0.235000000000000070,18.884619288985465602
0.236000000000000071,18.273155608763637758
0.237000000000000072,17.677706629485733458
0.238000000000000073,17.097779209402567346
0.239000000000000073,16.532870263534825028
0.240000000000000074,15.982469617025728326
0.241000000000000075,15.446062784305928162
0.242000000000000076,14.923133649968557179
0.243000000000000077,14.413167030810445368
0.244000000000000078,13.915651101905348597
0.245000000000000079,13.430079672806396474
0.246000000000000080,12.955954303007507278
0.247000000000000081,12.492786248609469624
0.248000000000000081,12.040098234728972670
0.249000000000000082,11.597426050550293297
0.250000000000000111,11.164319966049850663
0.251000000000000112,10.740345971326421548
0.252000000000000113,10.325086841147630423
0.253000000000000114,9.918143028788408699
0.254000000000000115,9.519133394492826028
0.255000000000000115,9.127695774954482033
0.256000000000000116,8.743487401089085509
0.257000000000000117,8.366185172081852528
0.258000000000000118,7.995485794244274302
0.259000000000000119,7.631105793621657085
0.260000000000000120,7.272781411568905341
0.261000000000000121,6.920268392670919866
0.262000000000000122,6.573341674435864590
0.263000000000000123,6.231794988149767178
0.264000000000000123,5.895440380157927152
0.265000000000000124,5.564107662645982444
0.266000000000000125,5.237643802739602172
0.267000000000000126,4.915912258437746374
0.268000000000000127,4.598792269547405276
0.269000000000000128,4.286178111408378122
0.270000000000000129,3.977978318789760159
0.271000000000000130,3.674114886913847577
0.272000000000000131,3.374522456124304348
0.273000000000000131,3.079147486267802769
0.274000000000000132,2.787947426408581730
0.275000000000000133,2.500889885046051031
0.276000000000000134,2.217951805561618084
0.277000000000000135,1.939118651185506081
0.278000000000000136,1.664383603348780438
0.279000000000000137,1.393746776874484450
0.280000000000000138,1.127214455065321141
0.281000000000000139,0.864798347364932107
0.282000000000000139,0.606514871908184428
0.283000000000000140,0.352384464932077313
0.284000000000000141,0.102430918695183545
0.285000000000000142,-0.143319250751052618
0.286000000000000143,-0.384837404880158829
0.287000000000000144,-0.622093352302913072
0.288000000000000145,-0.855055886124804210
0.289000000000000146,-1.083693288723889259
0.290000000000000147,-1.307973803831731008
0.291000000000000147,-1.527866075987236893
0.292000000000000148,-1.743339557604225432
0.293000000000000149,-1.954364884045916240
0.294000000000000150,-2.160914217236704182
0.295000000000000151,-2.362961558462449041
0.296000000000000152,-2.560483031116744801
0.297000000000000153,-2.753457134242827564
0.298000000000000154,-2.941864967799909802
0.299000000000000155,-3.125690430649312734
0.300000000000000155,-3.304920392311076593
0.301000000000000156,-3.479544839585869909
0.302000000000000157,-3.649556999172073546
0.303000000000000158,-3.814953437432737182
0.304000000000000159,-3.975734138484597224
0.305000000000000160,-4.131902561790353978
0.306000000000000161,-4.283465680438012235
0.307000000000000162,-4.430434001287160584
0.308000000000000163,-4.572821568152417804
0.309000000000000163,-4.710645949179729008
0.310000000000000164,-4.843928209552178288
0.311000000000000165,-4.972692870638807605
0.312000000000000166,-5.096967856673620290
0.313000000000000167,-5.216784430022424424
0.314000000000000168,-5.332177116063202327
0.315000000000000169,-5.443183618671686652
0.316000000000000170,-5.549844727268051336
0.317000000000000171,-5.652204216343318599
0.318000000000000171,-5.750308738345831117
0.319000000000000172,-5.844207710769380171
0.320000000000000173,-5.933953198244693361
0.321000000000000174,-6.019599790396395811
0.322000000000000175,-6.101204476187808368
0.323000000000000176,-6.178826515436117717
0.324000000000000177,-6.252527308141368145
0.325000000000000178,-6.322370262233498295
0.326000000000000179,-6.388420660304143794
0.327000000000000179,-6.450745525851712792
0.328000000000000180,-6.509413489532231090
0.329000000000000181,-6.564494655872785245
0.330000000000000182,-6.616060470869342680
0.331000000000000183,-6.664183590858034911
0.332000000000000184,-6.708937753015827177
0.333000000000000185,-6.750397647815934654
0.334000000000000186,-6.788638793733096755
0.335000000000000187,-6.823737414465210982
0.336000000000000187,-6.855770318910513694
0.337000000000000188,-6.884814784112923469
0.338000000000000189,-6.910948441363761852
0.339000000000000190,-6.934249165624071232
0.340000000000000191,-6.954794968409233391
0.341000000000000192,-6.972663894256852402
0.342000000000000193,-6.987933920878326433
0.343000000000000194,-7.000682863076302276
0.344000000000000195,-7.010988280491884161
0.345000000000000195,-7.018927389229832059
0.346000000000000196,-7.024576977393687471
0.347000000000000197,-7.028013324549092999
0.348000000000000198,-7.029312125119919763
0.349000000000000199,-7.028548415709518160
0.350000000000000200,-7.025796506328298108
0.351000000000000201,-7.021129915498012686
0.352000000000000202,-7.014621309193890042
0.353000000000000203,-7.006342443576909496
0.354000000000000203,-6.996364111460640522
0.355000000000000204,-6.984756092449783793
0.356000000000000205,-6.971587106681424117
0.357000000000000206,-6.956924772094107645
0.358000000000000207,-6.940835565144641173
0.359000000000000208,-6.923384784888480858
0.360000000000000209,-6.904636520335353467
0.361000000000000210,-6.884653620988595790
0.362000000000000210,-6.863497670473924117
0.363000000000000211,-6.841228963161023913
0.364000000000000212,-6.817906483679500695
0.365000000000000213,-6.793587889229290688
0.366000000000000214,-6.768329494584707007
0.367000000000000215,-6.742186259690410743
0.368000000000000216,-6.715211779747647824
0.369000000000000217,-6.687458277688643093
0.370000000000000218,-6.658976598937758062
0.371000000000000218,-6.629816208358197294
0.372000000000000219,-6.600025189284105309
0.373000000000000220,-6.569650244538854267
0.374000000000000221,-6.538736699341439973
0.375000000000000222,-6.507328506004324886
0.376000000000000223,-6.475468250327862663
0.377000000000000224,-6.443197159597779944
0.378000000000000225,-6.410555112094305841
0.379000000000000226,-6.377580648023365661
0.380000000000000226,-6.344310981782445680
0.381000000000000227,-6.310782015475616014
0.382000000000000228,-6.277028353594756638
0.383000000000000229,-6.243083318786049496
0.384000000000000230,-6.208978968623137362
0.385000000000000231,-6.174746113311031515
0.386000000000000232,-6.140414334246686145
0.387000000000000233,-6.106012003365242080
0.388000000000000234,-6.071566303202722281
0.389000000000000234,-6.037103247608978762
0.390000000000000235,-6.002647703046673833
0.391000000000000236,-5.968223410414847052
0.392000000000000237,-5.933853007337745566
0.393000000000000238,-5.899558050862289349
0.394000000000000239,-5.865359040509609656
0.395000000000000240,-5.831275441628712031
0.396000000000000241,-5.797325709002455696
0.397000000000000242,-5.763527310658338010
0.398000000000000242,-5.729896751838936098
0.399000000000000243,-5.696449599088849958
0.400000000000000244,-5.663200504417258863
0.401000000000000245,-5.630163229497394006
0.402000000000000246,-5.597350669866004935
0.403000000000000247,-5.564774879088189685
0.404000000000000248,-5.532447092854755333
0.405000000000000249,-5.500377752981203905
0.406000000000000250,-5.468576531279241593
0.407000000000000250,-5.437052353273623240
0.408000000000000251,-5.405813421738686841
0.409000000000000252,-5.374867240030813065
0.410000000000000253,-5.344220635194496971
0.411000000000000254,-5.313879780821413767
0.412000000000000255,-5.283850219643255741
0.413000000000000256,-5.254136885840750004
0.414000000000000257,-5.224744127052399101
0.415000000000000258,-5.195675726068197164
0.416000000000000258,-5.166934922194470481
0.417000000000000259,-5.138524432277606024
0.418000000000000260,-5.110446471375368560
0.419000000000000261,-5.082702773065749469
0.420000000000000262,-5.055294609384390014
0.421000000000000263,-5.028222810382702690
0.422000000000000264,-5.001487783299618073
0.423000000000000265,-4.975089531341090776
0.424000000000000266,-4.949027672062328520
0.425000000000000266,-4.923301455348357614
0.426000000000000267,-4.897909780989698092
0.427000000000000268,-4.872851215850429796
0.428000000000000269,-4.848124010626778002
0.429000000000000270,-4.823726116195064861
0.430000000000000271,-4.799655199548408469
0.431000000000000272,-4.775908659322336547
0.432000000000000273,-4.752483640909902718
0.433000000000000274,-4.729377051167575452
0.434000000000000274,-4.706585572713580135
0.435000000000000275,-4.684105677820914693
0.436000000000000276,-4.661933641907725523
0.437000000000000277,-4.640065556628053756
0.438000000000000278,-4.618497342566469044
0.439000000000000279,-4.597224761540432247
0.440000000000000280,-4.576243428514500167
0.441000000000000281,-4.555548823130857627
0.442000000000000282,-4.535136300861033476
0.443000000000000282,-4.515001103783640168
0.444000000000000283,-4.495138370993599253
0.445000000000000284,-4.475543148648205793
0.446000000000000285,-4.456210399655679666
0.447000000000000286,-4.437135013012257545
0.448000000000000287,-4.418311812793533910
0.449000000000000288,-4.399735566806517006
0.450000000000000289,-4.381400994908412727
0.451000000000000290,-4.363302776998688515
0.452000000000000290,-4.345435560690824595
0.453000000000000291,-4.327793968670282432
0.454000000000000292,-4.310372605745378394
0.455000000000000293,-4.293166065597619152
0.456000000000000294,-4.276168937238304935
0.457000000000000295,-4.259375811178062854
0.458000000000000296,-4.242781285316048923
0.459000000000000297,-4.226379970555607990
0.460000000000000298,-4.210166496153091131
0.461000000000000298,-4.194135514806559328
0.462000000000000299,-4.178281707491116492
0.463000000000000300,-4.162599788047456784
0.464000000000000301,-4.147084507530355957
0.465000000000000302,-4.131730658323635730
0.466000000000000303,-4.116533078028135506
0.467000000000000304,-4.101486653129176929
0.468000000000000305,-4.086586322449963227
0.469000000000000306,-4.071827080397160792
0.470000000000000306,-4.057203980005101407
0.471000000000000307,-4.042712135784572780
0.472000000000000308,-4.028346726382518561
0.473000000000000309,-4.014102997058543565
0.474000000000000310,-3.999976261984180326
0.475000000000000311,-3.985961906370791841
0.476000000000000312,-3.972055388431849021
0.477000000000000313,-3.958252241185208131
0.478000000000000314,-3.944548074100950430
0.479000000000000314,-3.930938574600279622
0.480000000000000315,-3.917419509410748013
0.481000000000000316,-3.903986725783153755
0.482000000000000317,-3.890636152575139839
0.483000000000000318,-3.877363801206643590
0.484000000000000319,-3.864165766492035914
0.485000000000000320,-3.851038227353838383
0.486000000000000321,-3.837977447422705524
0.487000000000000322,-3.824979775528286829
0.488000000000000322,-3.812041646085442270
0.489000000000000323,-3.799159579380291696
0.490000000000000324,-3.786330181760290348
0.491000000000000325,-3.773550145732591066
0.492000000000000326,-3.760816249974693992
0.493000000000000327,-3.748125359261449852
0.494000000000000328,-3.735474424312206221
0.495000000000000329,-3.722860481561918622
0.496000000000000330,-3.710280652859823558
0.497000000000000330,-3.697732145099365653
0.498000000000000331,-3.685212249782634952
0.499000000000000332,-3.672718342522908408
0.500000000000000333,-3.660247882488412152
0.501000000000000334,-3.647798411790482476
0.502000000000000335,-3.635367554819280311
0.503000000000000336,-3.622953017529974229
0.504000000000000337,-3.610552586682302056
0.505000000000000338,-3.598164129036293790
0.506000000000000338,-3.585785590506901599
0.507000000000000339,-3.573414995280123740
0.508000000000000340,-3.561050444893144373
0.509000000000000341,-3.548690117281029899
0.510000000000000342,-3.536332265792206719
0.511000000000000343,-3.523975218175157575
0.512000000000000344,-3.511617375538418351
0.513000000000000345,-3.499257211286063374
0.514000000000000346,-3.486893270030796632
0.515000000000000346,-3.474524166486451016
0.516000000000000347,-3.462148584341973478
0.517000000000000348,-3.449765275118680030
0.518000000000000349,-3.437373057012463651
0.519000000000000350,-3.424970813722777674
0.520000000000000351,-3.412557493269917419
0.521000000000000352,-3.400132106802259635
0.522000000000000353,-3.387693727394862186
0.523000000000000353,-3.375241488840929005
0.524000000000000354,-3.362774584437534742
0.525000000000000355,-3.350292265766858346
0.526000000000000356,-3.337793841474238743
0.527000000000000357,-3.325278676044285842
0.528000000000000358,-3.312746188576124240
0.529000000000000359,-3.300195851558965110
0.530000000000000360,-3.287627189648952175
0.531000000000000361,-3.275039778448404881
0.532000000000000361,-3.262433243288302975
0.533000000000000362,-3.249807258014992151
0.534000000000000363,-3.237161543781925221
0.535000000000000364,-3.224495867847312347
0.536000000000000365,-3.211810042378380636
0.537000000000000366,-3.199103923263065585
0.538000000000000367,-3.186377408929715660
0.539000000000000368,-3.173630439175629370
0.540000000000000369,-3.160862994004838278
0.541000000000000369,-3.148075092475928649
0.542000000000000370,-3.135266791560254340
0.543000000000000371,-3.122438185011211065
0.544000000000000372,-3.109589402244961498
0.545000000000000373,-3.096720607233090838
0.546000000000000374,-3.083831997407605829
0.547000000000000375,-3.070923802578651607
0.548000000000000376,-3.057996283865358045
0.549000000000000377,-3.045049732640086049
0.550000000000000377,-3.032084469486419298
0.551000000000000378,-3.019100843171148796
0.552000000000000379,-3.006099229630576186
0.553000000000000380,-2.993080030971287275
0.554000000000000381,-2.980043674485630678
0.555000000000000382,-2.966990611682176038
0.556000000000000383,-2.953921317331142937
0.557000000000000384,-2.940836288525157549
0.558000000000000385,-2.927736043755281958
0.559000000000000385,-2.914621122002557740
0.560000000000000386,-2.901492081845089110
0.561000000000000387,-2.888349500580764673
0.562000000000000388,-2.875193973365658628
0.563000000000000389,-2.862026112368203812
0.564000000000000390,-2.848846545939096586
0.565000000000000391,-2.835655917797017977
0.566000000000000392,-2.822454886230105764
0.567000000000000393,-2.809244123313259678
0.568000000000000393,-2.796024314141138944
0.569000000000000394,-2.782796156076907224
0.570000000000000395,-2.769560358016675217
0.571000000000000396,-2.756317639669503272
0.572000000000000397,-2.743068730853020831
0.573000000000000398,-2.729814370804467760
0.574000000000000399,-2.716555307507177552
0.575000000000000400,-2.703292297032313218
0.576000000000000401,-2.690026102895812787
0.577000000000000401,-2.676757495430473810
0.578000000000000402,-2.663487251172941050
0.579000000000000403,-2.650216152265569836
0.580000000000000404,-2.636944985873054481
0.581000000000000405,-2.623674543613575771
0.582000000000000406,-2.610405621004459942
0.583000000000000407,-2.597139016922089816
0.584000000000000408,-2.583875533076012587
0.585000000000000409,-2.570615973497013318
0.586000000000000409,-2.557361144039040912
0.587000000000000410,-2.544111851894831133
0.588000000000000411,-2.530868905124993962
0.589000000000000412,-2.517633112200510226
0.590000000000000413,-2.504405281558325758
0.591000000000000414,-2.491186221169996884
0.592000000000000415,-2.477976738123147893
0.593000000000000416,-2.464777638215527311
0.594000000000000417,-2.451589725561555522
0.595000000000000417,-2.438413802211184311
0.596000000000000418,-2.425250667780738389
0.597000000000000419,-2.412101119095796609
0.598000000000000420,-2.398965949845675905
0.599000000000000421,-2.385845950249525949
0.600000000000000422,-2.372741906733724537
0.601000000000000423,-2.359654601620435166
0.602000000000000424,-2.346584812827139377
0.603000000000000425,-2.333533313576946266
0.604000000000000425,-2.320500872119463320
0.605000000000000426,-2.307488251462083362
0.606000000000000427,-2.294496209111513529
0.607000000000000428,-2.281525496825220323
0.608000000000000429,-2.268576860372855108
0.609000000000000430,-2.255651039307167594
0.610000000000000431,-2.242748766744512512
0.611000000000000432,-2.229870769154540522
0.612000000000000433,-2.217017766158998260
0.613000000000000433,-2.204190470339455477
