# CaO001_NITROUSACID-AC
# h[nm],U(h)[kJ/mol]
0.149999999999999994,83.020374485229652350
0.150999999999999995,81.729143298587160871
0.151999999999999996,80.299674509964660274
0.152999999999999997,78.815550773172660115
0.153999999999999998,77.328731374037573687
0.154999999999999999,75.866524270859343915
0.156000000000000000,74.439452050574658415
0.157000000000000001,73.048066659512784327
0.158000000000000002,71.688059648278823488
0.159000000000000002,70.353668038635802873
0.160000000000000003,69.039660583830851692
0.161000000000000004,67.742271969710344592
0.162000000000000005,66.459433809171613916
0.163000000000000006,65.190589393245701899
0.164000000000000007,63.936306136331609196
0.165000000000000008,62.697831654421847247
0.166000000000000009,61.476683307399035527
0.167000000000000010,60.274318517192526201
0.168000000000000010,59.091903302054291203
0.169000000000000011,57.930177159724259184
0.170000000000000012,56.789401304564037787
0.171000000000000013,55.669372070279543152
0.172000000000000014,54.569480121405263162
0.173000000000000015,53.488797459554959346
0.174000000000000016,52.426176931423768224
0.175000000000000017,51.380352242235900917
0.176000000000000018,50.350029817045495406
0.177000000000000018,49.333966906423469823
0.178000000000000019,48.331032928253094383
0.179000000000000020,47.340253105768383080
0.180000000000000021,46.360835006056809959
0.181000000000000022,45.392179648234304068
0.182000000000000023,44.433879504374118596
0.183000000000000024,43.485706035800433256
0.184000000000000025,42.547589468885711028
0.185000000000000026,41.619593388283036006
0.186000000000000026,40.701886472717532683
0.187000000000000027,39.794713369815760018
0.188000000000000028,38.898366342319924627
0.189000000000000029,38.013158949062265890
0.190000000000000030,37.139402672336885303
0.191000000000000031,36.277387083605063367
0.192000000000000032,35.427363860688402042
0.193000000000000033,34.589534735957954581
0.194000000000000034,33.764043267224835176
0.195000000000000034,32.950970179243661562
0.196000000000000035,32.150331920416093112
0.197000000000000036,31.362082011838491979
0.198000000000000037,30.586114729160449599
0.199000000000000038,29.822270646560099294
0.200000000000000039,29.070343581400653221
0.201000000000000040,28.330088503055879556
0.202000000000000041,27.601230005696884007
0.203000000000000042,26.883470988769921917
0.204000000000000042,26.176501237272873368
0.205000000000000043,25.480005644119927410
0.206000000000000044,24.793671866749029675
0.207000000000000045,24.117197258039372088
0.208000000000000046,23.450294956349900133
0.209000000000000047,22.792699060224535401
0.210000000000000048,22.144168849504744401
0.211000000000000049,21.504492045981269399
0.212000000000000050,20.873487133241532376
0.213000000000000050,20.251004777142902924
0.214000000000000051,19.636928405588115254
0.215000000000000052,19.031174019327231406
0.216000000000000053,18.433689314737101483
0.217000000000000054,17.844452205353832142
0.218000000000000055,17.263468831786884294
0.219000000000000056,16.690771149957683406
0.220000000000000057,16.126414185795514555
0.221000000000000058,15.570473040990382430
0.222000000000000058,15.023039729505390127
0.223000000000000059,14.484219918632135204
0.224000000000000060,13.954129641724017930
0.225000000000000061,13.432892042630840024
0.226000000000000062,12.920634204509308773
0.227000000000000063,12.417484108290947731
0.228000000000000064,11.923567758813192086
0.229000000000000065,11.439006509588571348
0.230000000000000066,10.963914610507393022
0.231000000000000066,10.498396996515252155
0.232000000000000067,10.042547329537800493
0.233000000000000068,9.596446300675140151
0.234000000000000069,9.160160194980395687
0.235000000000000070,8.733739716975673417
0.236000000000000071,8.317219071440824507
0.237000000000000072,7.910615290919534637
0.238000000000000073,7.513927798803599956
0.239000000000000073,7.127138194751315936
0.240000000000000074,6.750210247536311492
0.241000000000000075,6.383090079177581089
0.242000000000000076,6.025706523330362607
0.243000000000000077,5.677971640384862795
0.244000000000000078,5.339781371488893313
0.245000000000000079,5.011016313743660078
0.246000000000000080,4.691542599085255283
0.247000000000000081,4.381212859822268157
0.248000000000000081,4.079867264422768258
0.249000000000000082,3.787334607900469052
0.250000000000000111,3.503433442013270227
0.251000000000000112,3.227973231433054480
0.252000000000000113,2.960755523049617643
0.253000000000000114,2.701575116616222072
0.254000000000000115,2.450221226007861741
0.255000000000000115,2.206478621433949350
0.256000000000000116,1.970128744008154742
0.257000000000000117,1.740950785119524058
0.258000000000000118,1.518722724060786122
0.259000000000000119,1.303222318343007613
0.260000000000000120,1.094228042054654848
0.261000000000000121,0.891519968502804461
0.262000000000000122,0.694880594199728141
0.263000000000000123,0.504095602028248546
0.264000000000000123,0.318954562130870312
0.265000000000000124,0.139251569721391272
0.266000000000000125,-0.035214180387659125
0.267000000000000126,-0.204637882211248068
0.268000000000000127,-0.369208669161267711
0.269000000000000128,-0.529109225523080484
0.270000000000000129,-0.684515457230930102
0.271000000000000130,-0.835596220012259749
0.272000000000000131,-0.982513102696923490
0.273000000000000131,-1.125420263258818609
0.274000000000000132,-1.264464314970922043
0.275000000000000133,-1.399784259907806749
0.276000000000000134,-1.531511466918975994
0.277000000000000135,-1.659769691118771817
0.278000000000000136,-1.784675131892023314
0.279000000000000137,-1.906336526394936559
0.280000000000000138,-2.024855275536062926
0.281000000000000139,-2.140325599449772298
0.282000000000000139,-2.252834719521342954
0.283000000000000140,-2.362463064086904208
0.284000000000000141,-2.469284495010042324
0.285000000000000142,-2.573366552428277387
0.286000000000000143,-2.674770715064453963
0.287000000000000144,-2.773552673608455699
0.288000000000000145,-2.869762614792545907
0.289000000000000146,-2.963445513905898387
0.290000000000000147,-3.054641433621196889
0.291000000000000147,-3.143385827134978605
0.292000000000000148,-3.229709843754511756
0.293000000000000149,-3.313640635194610606
0.294000000000000150,-3.395201660978363289
0.295000000000000151,-3.474412991464509215
0.296000000000000152,-3.551291607150805163
0.297000000000000153,-3.625851693026481914
0.298000000000000154,-3.698104926867240128
0.299000000000000155,-3.768060760482642824
0.300000000000000155,-3.835726693038002288
0.301000000000000156,-3.901108535680368306
0.302000000000000157,-3.964210666801204042
0.303000000000000158,-4.025036277365861892
0.304000000000000159,-4.083587605832919465
0.305000000000000160,-4.139866162273546202
0.306000000000000161,-4.193872941383526509
0.307000000000000162,-4.245608624157353184
0.308000000000000163,-4.295073768065473807
0.309000000000000163,-4.342268985642429691
0.310000000000000164,-4.387195111455087115
0.311000000000000165,-4.429853357476668307
0.312000000000000166,-4.470245456944160090
0.313000000000000167,-4.508373796823681445
0.314000000000000168,-4.544241539051055767
0.315000000000000169,-4.577852730753114940
0.316000000000000170,-4.609212403689567417
0.317000000000000171,-4.638326663185297960
0.318000000000000171,-4.665202766849660954
0.319000000000000172,-4.689849193402261029
0.320000000000000173,-4.712275701944273365
0.321000000000000174,-4.732493382030882323
0.322000000000000175,-4.750514694913970715
0.323000000000000176,-4.766353506334936263
0.324000000000000177,-4.780025111255722159
0.325000000000000178,-4.791546250921927985
0.326000000000000179,-4.800935122655692666
0.327000000000000179,-4.808211382777353826
0.328000000000000180,-4.813396143054815113
0.329000000000000181,-4.816511961077737602
0.330000000000000182,-4.817582824949740328
0.331000000000000183,-4.816634132687552139
0.332000000000000184,-4.813692666709323831
0.333000000000000185,-4.808786563787551316
0.334000000000000186,-4.801945280833569640
0.335000000000000187,-4.793199556871619471
0.336000000000000187,-4.782581371550685745
0.337000000000000188,-4.770123900531669570
0.338000000000000189,-4.755861468076715504
0.339000000000000190,-4.739829497155828797
0.340000000000000191,-4.722064457374111512
0.341000000000000192,-4.702603811011040413
0.342000000000000193,-4.681485957450602697
0.343000000000000194,-4.658750176268914522
0.344000000000000195,-4.634436569233146841
0.345000000000000195,-4.608586001453375047
0.346000000000000196,-4.581240041916048611
0.347000000000000197,-4.552440903615652346
0.348000000000000198,-4.522231383488717782
0.349000000000000199,-4.490654802342041840
0.350000000000000200,-4.457754944955329535
0.351000000000000201,-4.423576000526396435
0.352000000000000202,-4.388162503615839150
0.353000000000000203,-4.351559275736798682
0.354000000000000203,-4.313811367724527557
0.355000000000000204,-4.274964003009865010
0.356000000000000205,-4.235062521910558431
0.357000000000000206,-4.194152327044413653
0.358000000000000207,-4.152278829958549800
0.359000000000000208,-4.109487399060105517
0.360000000000000209,-4.065823308924648494
0.361000000000000210,-4.021331691050170853
0.362000000000000210,-3.976057486116455486
0.363000000000000211,-3.930045397801749552
0.364000000000000212,-3.883339848201480038
0.365000000000000213,-3.835984934886525366
0.366000000000000214,-3.788024389632051570
0.367000000000000215,-3.739501538841542239
0.368000000000000216,-3.690459265684757018
0.369000000000000217,-3.640939973962653120
0.370000000000000218,-3.590985553707154221
0.371000000000000218,-3.540637348518539174
0.372000000000000219,-3.489936124638758574
0.373000000000000220,-3.438922041754541858
0.374000000000000221,-3.387634625520237197
0.375000000000000222,-3.336112741786429581
0.376000000000000223,-3.284394572517197020
0.377000000000000224,-3.232517593375402676
0.378000000000000225,-3.180518552952708689
0.379000000000000226,-3.128433453618213900
0.380000000000000226,-3.076297533957300434
0.381000000000000227,-3.024145252769906644
0.382000000000000228,-2.972010274595681789
0.383000000000000229,-2.919925456731575331
0.384000000000000230,-2.867922837705801697
0.385000000000000231,-2.816033627170985820
0.386000000000000232,-2.764288197177795503
0.387000000000000233,-2.712716074789603304
0.388000000000000234,-2.661345935997659673
0.389000000000000234,-2.610205600895770139
0.390000000000000235,-2.559322030072655352
0.391000000000000236,-2.508721322180026192
0.392000000000000237,-2.458428712633813351
0.393000000000000238,-2.408468573406127522
0.394000000000000239,-2.358864413865159104
0.395000000000000240,-2.309638882620511424
0.396000000000000241,-2.260813770331453476
0.397000000000000242,-2.212410013435818890
0.398000000000000242,-2.164447698757685501
0.399000000000000243,-2.116946068952244353
0.400000000000000244,-2.069923528746703045
0.401000000000000245,-2.023397651936815311
0.402000000000000246,-1.977385189098879392
0.403000000000000247,-1.931902075977922850
0.404000000000000248,-1.886963442513416300
0.405000000000000249,-1.842583622464536219
0.406000000000000250,-1.798776163597793909
0.407000000000000250,-1.755553838400676581
0.408000000000000251,-1.712928655285698598
0.409000000000000252,-1.670911870250225251
0.410000000000000253,-1.629513998958180165
0.411000000000000254,-1.588744829210780862
0.412000000000000255,-1.548613433774229886
0.413000000000000256,-1.509128183533338996
0.414000000000000257,-1.470296760940858594
0.415000000000000258,-1.432126173733393237
0.416000000000000258,-1.394622768885552144
0.417000000000000259,-1.357792246775090916
0.418000000000000260,-1.321639675532628733
0.419000000000000261,-1.286169505550534664
0.420000000000000262,-1.251385584126502470
0.421000000000000263,-1.217291170218268492
0.422000000000000264,-1.183888949286840742
0.423000000000000265,-1.151181048206504354
0.424000000000000266,-1.119169050220913730
0.425000000000000266,-1.087854009925211862
0.426000000000000267,-1.057236468255294159
0.427000000000000268,-1.027316467465981153
0.428000000000000269,-0.998093566080823669
0.429000000000000270,-0.969566853797104167
0.430000000000000271,-0.941734966330336043
0.431000000000000272,-0.914596100183479033
0.432000000000000273,-0.888148027326776557
0.433000000000000274,-0.862388109774967271
0.434000000000000274,-0.837313314049291213
0.435000000000000275,-0.812920225512530736
0.436000000000000276,-0.789205062565976556
0.437000000000000277,-0.766163690697891697
0.438000000000000278,-0.743791636373781984
0.439000000000000279,-0.722084100759393555
0.440000000000000280,-0.701035973267962853
0.441000000000000281,-0.680641844923907890
0.442000000000000282,-0.660896021535761991
0.443000000000000282,-0.641792536671597968
0.444000000000000283,-0.623325164430946099
0.445000000000000284,-0.605487432007560833
0.446000000000000285,-0.588272632037964649
0.447000000000000286,-0.571673834731320940
0.448000000000000287,-0.555683899776409751
0.449000000000000288,-0.540295488022219828
0.450000000000000289,-0.525501072928885482
0.451000000000000290,-0.511292951786268768
0.452000000000000290,-0.497663256697827960
0.453000000000000291,-0.484603965327797481
0.454000000000000292,-0.472106911410132057
0.455000000000000293,-0.460163795017942079
0.456000000000000294,-0.448766192592571056
0.457000000000000295,-0.437905566731723261
0.458000000000000296,-0.427573275736395808
0.459000000000000297,-0.417760582916643641
0.460000000000000298,-0.408458665656503683
0.461000000000000298,-0.399658624238633409
0.462000000000000299,-0.391351490429528936
0.463000000000000300,-0.383528235826329666
0.464000000000000301,-0.376179779966557049
0.465000000000000302,-0.369296998202251370
0.466000000000000303,-0.362870729340200149
0.467000000000000304,-0.356891783050144185
0.468000000000000305,-0.351350947043040041
0.469000000000000306,-0.346238994021546620
0.470000000000000306,-0.341546688405167220
0.471000000000000307,-0.337264792832497551
0.472000000000000308,-0.333384074443278888
0.473000000000000309,-0.329895310942979414
0.474000000000000310,-0.326789296452799749
0.475000000000000311,-0.324056847148082139
0.476000000000000312,-0.321688806688203266
0.477000000000000313,-0.319676051441091069
0.478000000000000314,-0.318009495505614859
0.479000000000000314,-0.316680095535180395
0.480000000000000315,-0.315678855365849498
0.481000000000000316,-0.314996830452474064
0.482000000000000317,-0.314625132116257478
0.483000000000000318,-0.314554931607315957
0.484000000000000319,-0.314777463985749517
0.485000000000000320,-0.315284031824847655
0.486000000000000321,-0.316066008740006343
0.487000000000000322,-0.317114842747002301
0.488000000000000322,-0.318422059453251027
0.489000000000000323,-0.319979265085726827
0.490000000000000324,-0.321778149359173038
0.491000000000000325,-0.323810488188278511
0.492000000000000326,-0.326068146247450064
0.493000000000000327,-0.328543079381850955
0.494000000000000328,-0.331227336873327838
0.495000000000000329,-0.334113063564830781
0.496000000000000330,-0.337192501846939885
0.497000000000000330,-0.340457993510085599
0.498000000000000331,-0.343901981465980833
0.499000000000000332,-0.347517011341823001
0.500000000000000333,-0.351295732950763440
0.501000000000000334,-0.355230901642067831
0.502000000000000335,-0.359315379534455304
0.503000000000000336,-0.363542136635957913
0.504000000000000337,-0.367904251853689357
0.505000000000000338,-0.372394913896819335
0.506000000000000338,-0.377007422076036991
0.507000000000000339,-0.381735187002728515
0.508000000000000340,-0.386571731191046486
0.509000000000000341,-0.391510689566037906
0.510000000000000342,-0.396545809880884004
0.511000000000000343,-0.401670953046332380
0.512000000000000344,-0.406880093375293683
0.513000000000000345,-0.412167318745555011
0.514000000000000346,-0.417526830683528360
0.515000000000000346,-0.422952944371833894
0.516000000000000347,-0.428440088583544654
0.517000000000000348,-0.433982805545846506
0.518000000000000349,-0.439575750735755666
0.519000000000000350,-0.445213692610569478
0.520000000000000351,-0.450891512275632511
0.521000000000000352,-0.456604203091928951
0.522000000000000353,-0.462346870225994688
0.523000000000000353,-0.468114730144573721
0.524000000000000354,-0.473903110056387800
0.525000000000000355,-0.479707447303349688
0.526000000000000356,-0.485523288703459177
0.527000000000000357,-0.491346289847642725
0.528000000000000358,-0.497172214352658681
0.529000000000000359,-0.502996933072202612
0.530000000000000360,-0.508816423268257711
0.531000000000000361,-0.514626767744718938
0.532000000000000361,-0.520424153945227563
0.533000000000000362,-0.526204873017144914
0.534000000000000363,-0.531965318843499069
0.535000000000000364,-0.537701987044744589
0.536000000000000365,-0.543411473952066570
0.537000000000000366,-0.549090475553966395
0.538000000000000367,-0.554735786417763999
0.539000000000000368,-0.560344298587680756
0.540000000000000369,-0.565913000461020332
0.541000000000000369,-0.571438975644025904
0.542000000000000370,-0.576919401788848929
0.543000000000000371,-0.582351549413103298
0.544000000000000372,-0.587732780703378199
0.545000000000000373,-0.593060548304066848
0.546000000000000374,-0.598332394092814579
0.547000000000000375,-0.603545947943859407
0.548000000000000376,-0.608698926480494729
0.549000000000000377,-0.613789131817820133
0.550000000000000377,-0.618814450296955254
0.551000000000000378,-0.623772851211801371
0.552000000000000379,-0.628662385529431655
0.553000000000000380,-0.633481184605149461
0.554000000000000381,-0.638227458893185884
0.555000000000000382,-0.642899496654041114
0.556000000000000383,-0.647495662659343219
0.557000000000000384,-0.652014396895164827
0.558000000000000385,-0.656454213264616948
0.559000000000000385,-0.660813698290583007
0.560000000000000386,-0.665091509819346616
0.561000000000000387,-0.669286375725911320
0.562000000000000388,-0.673397092621719429
0.563000000000000389,-0.677422524565495565
0.564000000000000390,-0.681361601777854320
0.565000000000000391,-0.685213319360356343
0.566000000000000392,-0.688976736019596192
0.567000000000000393,-0.692650972796936104
0.568000000000000393,-0.696235211804425269
0.569000000000000394,-0.699728694967470810
0.570000000000000395,-0.703130722774746753
0.571000000000000396,-0.706440653035838251
0.572000000000000397,-0.709657899647103685
0.573000000000000398,-0.712781931366158750
0.574000000000000399,-0.715812270595438838
0.575000000000000400,-0.718748492175211751
0.576000000000000401,-0.721590222186419994
0.577000000000000401,-0.724337136763732348
0.578000000000000402,-0.726988960919101923
0.579000000000000403,-0.729545467376162882
0.580000000000000404,-0.732006475415785229
0.581000000000000405,-0.734371849733018722
0.582000000000000406,-0.736641499305733638
0.583000000000000407,-0.738815376275167357
0.584000000000000408,-0.740893474838624000
0.585000000000000409,-0.742875830154521077
0.586000000000000409,-0.744762517259997425
0.587000000000000410,-0.746553650001248181
0.588000000000000411,-0.748249379976742013
0.589000000000000412,-0.749849895493509444
0.590000000000000413,-0.751355420536585106
0.591000000000000414,-0.752766213751772106
0.592000000000000415,-0.754082567441824780
0.593000000000000416,-0.755304806576130638
0.594000000000000417,-0.756433287814008315
0.595000000000000417,-0.757468398541679910
0.596000000000000418,-0.758410555922969465
0.597000000000000419,-0.759260205963815715
0.598000000000000420,-0.760017822590598802
0.599000000000000421,-0.760683906742351090
0.600000000000000422,-0.761258985476853556
0.601000000000000423,-0.761743611090631600
0.602000000000000424,-0.762138360252872071
0.603000000000000425,-0.762443833153250372
0.604000000000000425,-0.762660652663636141
0.605000000000000426,-0.762789463513689814
0.606000000000000427,-0.762830931480321217
0.607000000000000428,-0.762785742590922244
0.608000000000000429,-0.762654602340443355
0.609000000000000430,-0.762438234922119928
0.610000000000000431,-0.762137382471947622
0.611000000000000432,-0.761752804326725208
0.612000000000000433,-0.761285276295659452
0.613000000000000433,-0.760735589945472301
