# Montmorillonite-001-NaCEC87_CHL-AC
# h[nm],U(h)[kJ/mol]
0.149999999999999994,161.169559033298185113
0.150999999999999995,160.591352364648258799
0.151999999999999996,159.457088734552542064
0.152999999999999997,158.123108790488771547
0.153999999999999998,156.746216121601321447
0.154999999999999999,155.381235950844200033
0.156000000000000000,154.035995900042451012
0.157000000000000001,152.700677798394025331
0.158000000000000002,151.362226821791210796
0.159000000000000002,150.010420223967514630
0.160000000000000003,148.639570685586647869
0.161000000000000004,147.248176988892851114
0.162000000000000005,145.837804417396426970
0.163000000000000006,144.411855421151074097
0.164000000000000007,142.974528911089777239
0.165000000000000008,141.530066116894772676
0.166000000000000009,140.082278622155996572
0.167000000000000010,138.634309274222431441
0.168000000000000010,137.188563633346404913
0.169000000000000011,135.746752883367520326
0.170000000000000012,134.309999475458965890
0.171000000000000013,132.878969059765552174
0.172000000000000014,131.454003811824634340
0.173000000000000015,130.035241903130952323
0.174000000000000016,128.622715265548265506
0.175000000000000017,127.216423071032664893
0.176000000000000018,125.816381809259183910
0.177000000000000018,124.422654878557594316
0.178000000000000019,123.035365581003389934
0.179000000000000020,121.654697653631615140
0.180000000000000021,120.280887236625787295
0.181000000000000022,118.914209676828846796
0.182000000000000023,117.554963937079037350
0.183000000000000024,116.203456728976178169
0.184000000000000025,114.859987872839766965
0.185000000000000026,113.524837850581619136
0.186000000000000026,112.198258072013317133
0.187000000000000027,110.880464026227969043
0.188000000000000028,109.571631231937928419
0.189000000000000029,108.271893723756051031
0.190000000000000030,106.981344702687550807
0.191000000000000031,105.700038925231368125
0.192000000000000032,104.427996393714380474
0.193000000000000033,103.165206929273495007
0.194000000000000034,101.911635248364206063
0.195000000000000034,100.667226215625944974
0.196000000000000035,99.431910003889683480
0.197000000000000036,98.205606951142129901
0.198000000000000037,96.988231960789079267
0.199000000000000038,95.779698343177742004
0.200000000000000039,94.579921041570301554
0.201000000000000040,93.388819223877604259
0.202000000000000041,92.206318252299865890
0.203000000000000042,91.032351066827345676
0.204000000000000042,89.866859035853423165
0.205000000000000043,88.709792338652150079
0.206000000000000044,87.561109950968671001
0.207000000000000045,86.420779307290160887
0.208000000000000046,85.288775712321921674
0.209000000000000047,84.165081570547016554
0.210000000000000048,83.049685497192456296
0.211000000000000049,81.942581367071497311
0.212000000000000050,80.843767350142101691
0.213000000000000050,79.753244974653512145
0.214000000000000051,78.671018250798709914
0.215000000000000052,77.597092880125472902
0.216000000000000053,76.531475568790256148
0.217000000000000054,75.474173456211232747
0.218000000000000055,74.425193664883707356
0.219000000000000056,73.384542972112768666
0.220000000000000057,72.352227600204201963
0.221000000000000058,71.328253118229596907
0.222000000000000058,70.312624445797098360
0.223000000000000059,69.305345947277260166
0.224000000000000060,68.306421603578300505
0.225000000000000061,67.315855247778273451
0.226000000000000062,66.333650850623669726
0.227000000000000063,65.359812842025533541
0.228000000000000064,64.394346455154945374
0.229000000000000065,63.437258080487900713
0.230000000000000066,62.488555618119882240
0.231000000000000066,61.548248817796476828
0.232000000000000067,60.616349597345369205
0.233000000000000068,59.692872331495571814
0.234000000000000069,58.777834104394685255
0.235000000000000070,57.871254920452841475
0.236000000000000071,56.973157869421854116
0.237000000000000072,56.083569242840326297
0.238000000000000073,55.202518600120882297
0.239000000000000073,54.330038783614256204
0.240000000000000074,53.466165882941616871
0.241000000000000075,52.610939149743515486
0.242000000000000076,51.764400864741524799
0.243000000000000077,50.926596159650557638
0.244000000000000078,50.097572797017242863
0.245000000000000079,49.277380911494773841
0.246000000000000080,48.466072716405150800
0.247000000000000081,47.663702179687739147
0.248000000000000081,46.870324673499098367
0.249000000000000082,46.085996601817726059
0.250000000000000111,45.310775010427825293
0.251000000000000112,44.544717183614636724
0.252000000000000113,43.787880231808586018
0.253000000000000114,43.040320674275335477
0.254000000000000115,42.302094020767057714
0.255000000000000115,41.573254355838670904
0.256000000000000116,40.853853929292931468
0.257000000000000117,40.143942755959855617
0.258000000000000118,39.443568227742915155
0.259000000000000119,38.752774740580761659
0.260000000000000120,38.071603338685356732
0.261000000000000121,37.400091378127910957
0.262000000000000122,36.738272211557543301
0.263000000000000123,36.086174895555380715
0.264000000000000123,35.443823921853955028
0.265000000000000124,34.811238973387801821
0.266000000000000125,34.188434705890571763
0.267000000000000126,33.575420555515890442
0.268000000000000127,32.972200572735502533
0.269000000000000128,32.378773282561304825
0.270000000000000129,31.795131570945592614
0.271000000000000130,31.221262597037821251
0.272000000000000131,30.657147730817808196
0.273000000000000131,30.102762515481703787
0.274000000000000132,29.558076653830319458
0.275000000000000133,29.023054017798177284
0.276000000000000134,28.497652680165163730
0.277000000000000135,27.981824967411711214
0.278000000000000136,27.475517532609764260
0.279000000000000137,26.978671447187803523
0.280000000000000138,26.491222310365948545
0.281000000000000139,26.013100375025807409
0.282000000000000139,25.544230688760752201
0.283000000000000140,25.084533248841143660
0.284000000000000141,24.633923169828971567
0.285000000000000142,24.192310862582949937
0.286000000000000143,23.759602223410016819
0.287000000000000144,23.335698832140856496
0.288000000000000145,22.920498157933451466
0.289000000000000146,22.513893771642347730
0.290000000000000147,22.115775563626907996
0.291000000000000147,21.726029965913863151
0.292000000000000148,21.344540177672268300
0.293000000000000149,20.971186393006711057
0.294000000000000150,20.605846030122503265
0.295000000000000151,20.248393960967433713
0.296000000000000152,19.898702740505719078
0.297000000000000153,19.556642834832665301
0.298000000000000154,19.222082847390101534
0.299000000000000155,18.894889742596131299
0.300000000000000155,18.574929066254163956
0.301000000000000156,18.262065162158357623
0.302000000000000157,17.956161384362708588
0.303000000000000158,17.657080304631122658
0.304000000000000159,17.364683914633943118
0.305000000000000160,17.078833822503234785
0.306000000000000161,16.799391443404669388
0.307000000000000162,16.526218183827193542
0.308000000000000163,16.259175619333870344
0.309000000000000163,15.998125665557063613
0.310000000000000164,15.742930742259142463
0.311000000000000165,15.493453930316345435
0.312000000000000166,15.249559121517213711
0.313000000000000167,15.011111161099540467
0.314000000000000168,14.777975982979745240
0.315000000000000169,14.550020737656945258
0.316000000000000170,14.327113912800225393
0.317000000000000171,14.109125446552081229
0.318000000000000171,13.895926833603487793
0.319000000000000172,13.687391224116726818
0.320000000000000173,13.483393515591052036
0.321000000000000174,13.283810437783646563
0.322000000000000175,13.088520630813553325
0.323000000000000176,12.897404716590671114
0.324000000000000177,12.710345363723968504
0.325000000000000178,12.527227346074459646
0.326000000000000179,12.347937595127746135
0.327000000000000179,12.172365246369450276
0.328000000000000180,12.000401679854025616
0.329000000000000181,11.831940555162915985
0.330000000000000182,11.666877840953379319
0.331000000000000183,11.505111839302422538
0.332000000000000184,11.346543205053624348
0.333000000000000185,11.191074960376116820
0.334000000000000186,11.038612504746122767
0.335000000000000187,10.889063620561795886
0.336000000000000187,10.742338474601369924
0.337000000000000188,10.598349615533884105
0.338000000000000189,10.457011967689618714
0.339000000000000190,10.318242821295198652
0.340000000000000191,10.181961819375747069
0.341000000000000192,10.048090941522938024
0.342000000000000193,9.916554484724231955
0.343000000000000194,9.787279041444602257
0.344000000000000195,9.660193475147888620
0.345000000000000195,9.535228893439830600
0.346000000000000196,9.412318619010637377
0.347000000000000197,9.291398158549370123
0.348000000000000198,9.172405169797468005
0.349000000000000199,9.055279426903336315
0.350000000000000200,8.939962784234385396
0.351000000000000201,8.826399138797437871
0.352000000000000202,8.714534391412820824
0.353000000000000203,8.604316406781654436
0.354000000000000203,8.495694972580380977
0.355000000000000204,8.388621757710836846
0.356000000000000205,8.283050269828557077
0.357000000000000206,8.178935812266260541
0.358000000000000207,8.076235440464234472
0.359000000000000208,7.974907918013601105
0.360000000000000209,7.874913672413036636
0.361000000000000210,7.776214750634542483
0.362000000000000210,7.678774774588200458
0.363000000000000211,7.582558896571143237
0.364000000000000212,7.487533754780796080
0.365000000000000213,7.393667428967576782
0.366000000000000214,7.300929396297684448
0.367000000000000215,7.209290487491824884
0.368000000000000216,7.118722843301322101
0.369000000000000217,7.029199871378866149
0.370000000000000218,6.940696203596736780
0.371000000000000218,6.853187653861610329
0.372000000000000219,6.766651176470840134
0.373000000000000220,6.681064825051613809
0.374000000000000221,6.596407712120630151
0.375000000000000222,6.512659969298748130
0.376000000000000223,6.429802708211196816
0.377000000000000224,6.347817982101470413
0.378000000000000225,6.266688748183451452
0.379000000000000226,6.186398830753722322
0.380000000000000226,6.106932885083065976
0.381000000000000227,6.028276362103755837
0.382000000000000228,5.950415473906556230
0.383000000000000229,5.873337160059063145
0.384000000000000230,5.797029054754877286
0.385000000000000231,5.721479454800766362
0.386000000000000232,5.646677288447243370
0.387000000000000233,5.572612085065869358
0.388000000000000234,5.499273945675045461
0.389000000000000234,5.426653514314201843
0.390000000000000235,5.354741950264903849
0.391000000000000236,5.283530901115823575
0.392000000000000237,5.213012476667268302
0.393000000000000238,5.143179223669648081
0.394000000000000239,5.074024101389113639
0.395000000000000240,5.005540457992525560
0.396000000000000241,4.937722007742901376
0.397000000000000242,4.870562808995628323
0.398000000000000242,4.804057242984796972
0.399000000000000243,4.738199993388399811
0.400000000000000244,4.672986026660267633
0.401000000000000245,4.608410573116094255
0.402000000000000246,4.544469108760473830
0.403000000000000247,4.481157337840988575
0.404000000000000248,4.418471176115412291
0.405000000000000249,4.356406734817339199
0.406000000000000250,4.294960305305487225
0.407000000000000250,4.234128344381394626
0.408000000000000251,4.173907460260185331
0.409000000000000252,4.114294399178815453
0.410000000000000253,4.055286032626016279
0.411000000000000254,3.996879345178089515
0.412000000000000255,3.939071422924703025
0.413000000000000256,3.881859442468543087
0.414000000000000257,3.825240660483047783
0.415000000000000258,3.769212403812033152
0.416000000000000258,3.713772060095538841
0.417000000000000259,3.658917068905798597
0.418000000000000260,3.604644913377813342
0.419000000000000261,3.550953112318720795
0.420000000000000262,3.497839212780628593
0.421000000000000263,3.445300783081425067
0.422000000000000264,3.393335406258591203
0.423000000000000265,3.341940673940925421
0.424000000000000266,3.291114180623449847
0.425000000000000266,3.240853518331069161
0.426000000000000267,3.191156271656528265
0.427000000000000268,3.142020013158730585
0.428000000000000269,3.093442299107588500
0.429000000000000270,3.045420665561800355
0.430000000000000271,2.997952624766380580
0.431000000000000272,2.951035661856822312
0.432000000000000273,2.904667231857281706
0.433000000000000274,2.858844756960251754
0.434000000000000274,2.813565624075617055
0.435000000000000275,2.768827182637212836
0.436000000000000276,2.724626742655333000
0.437000000000000277,2.680961573003857623
0.438000000000000278,2.637828899931068172
0.439000000000000279,2.595225905783447473
0.440000000000000280,2.553149727932025659
0.441000000000000281,2.511597457891255658
0.442000000000000282,2.470566140620466644
0.443000000000000282,2.430052773998569116
0.444000000000000283,2.390054308462556953
0.445000000000000284,2.350567646801055677
0.446000000000000285,2.311589644094137697
0.447000000000000286,2.273117107791019720
0.448000000000000287,2.235146797917620720
0.449000000000000288,2.197675427406022397
0.450000000000000289,2.160699662538370980
0.451000000000000290,2.124216123497876030
0.452000000000000290,2.088221385019795928
0.453000000000000291,2.052711977135765586
0.454000000000000292,2.017684386004793495
0.455000000000000293,1.983135054824693100
0.456000000000000294,1.949060384817923097
0.457000000000000295,1.915456736285938488
0.458000000000000296,1.882320429726579647
0.459000000000000297,1.849647747009034449
0.460000000000000298,1.817434932601313280
0.461000000000000298,1.785678194845254696
0.462000000000000299,1.754373707274395899
0.463000000000000300,1.723517609970188103
0.464000000000000301,1.693106010952212470
0.465000000000000302,1.663134987598325676
0.466000000000000303,1.633600588090809769
0.467000000000000304,1.604498832884719395
0.468000000000000305,1.575825716194961368
0.469000000000000306,1.547577207498643137
0.470000000000000306,1.519749253049459403
0.471000000000000307,1.492337777401140375
0.472000000000000308,1.465338684936971170
0.473000000000000309,1.438747861402653427
0.474000000000000310,1.412561175439967176
0.475000000000000311,1.386774480118679431
0.476000000000000312,1.361383614464481751
0.477000000000000313,1.336384404980648810
0.478000000000000314,1.311772667161525519
0.479000000000000314,1.287544206995729246
0.480000000000000315,1.263694822457414491
0.481000000000000316,1.240220304983777000
0.482000000000000317,1.217116440937323629
0.483000000000000318,1.194379013051348304
0.484000000000000319,1.172003801857268046
0.485000000000000320,1.149986587092585832
0.486000000000000321,1.128323149088228394
0.487000000000000322,1.107009270134209356
0.488000000000000322,1.086040735822675796
0.489000000000000323,1.065413336367304176
0.490000000000000324,1.045122867898300445
0.491000000000000325,1.025165133732245160
0.492000000000000326,1.005535945616067739
0.493000000000000327,0.986231124944548787
0.494000000000000328,0.967246503950826786
0.495000000000000329,0.948577926869404342
0.496000000000000330,0.930221251071292832
0.497000000000000330,0.912172348170796510
0.498000000000000331,0.894427105103879905
0.499000000000000332,0.876981425177601581
0.500000000000000333,0.859831229090569082
0.501000000000000334,0.842972455924292818
0.502000000000000335,0.826401064105193428
0.503000000000000336,0.810113032337352656
0.504000000000000337,0.794104360505873297
0.505000000000000338,0.778371070550948896
0.506000000000000338,0.762909207312645110
0.507000000000000339,0.747714839346487414
0.508000000000000340,0.732784059710055335
0.509000000000000341,0.718112986720570001
0.510000000000000342,0.703697764683861582
0.511000000000000343,0.689534564594740607
0.512000000000000344,0.675619584809149853
0.513000000000000345,0.661949051688269563
0.514000000000000346,0.648519220214843095
0.515000000000000346,0.635326374582120712
0.516000000000000347,0.622366828755646750
0.517000000000000348,0.609636927008241014
0.518000000000000349,0.597133044428572513
0.519000000000000350,0.584851587403629525
0.520000000000000351,0.572788994075555946
0.521000000000000352,0.560941734773101830
0.522000000000000353,0.549306312418279097
0.523000000000000353,0.537879262908467437
0.524000000000000354,0.526657155474497873
0.525000000000000355,0.515636593015103450
0.526000000000000356,0.504814212408210228
0.527000000000000357,0.494186684799449938
0.528000000000000358,0.483750715868435766
0.529000000000000359,0.473503046073144418
0.530000000000000360,0.463440450873008281
0.531000000000000361,0.453559740931026745
0.532000000000000361,0.443857762295475022
0.533000000000000362,0.434331396561615957
0.534000000000000363,0.424977561013932914
0.535000000000000364,0.415793208749272669
0.536000000000000365,0.406775328781475154
0.537000000000000366,0.397920946127839736
0.538000000000000367,0.389227121878031990
0.539000000000000368,0.380690953245716390
0.540000000000000369,0.372309573603586297
0.541000000000000369,0.364080152502042509
0.542000000000000370,0.355999895672184041
0.543000000000000371,0.348066045013378900
0.544000000000000372,0.340275878566000445
0.545000000000000373,0.332626710469694942
0.546000000000000374,0.325115890907679117
0.547000000000000375,0.317740806037467405
0.548000000000000376,0.310498877908474191
0.549000000000000377,0.303387564366939311
0.550000000000000377,0.296404358948551994
0.551000000000000378,0.289546790759264927
0.552000000000000379,0.282812424344623170
0.553000000000000380,0.276198859548095921
0.554000000000000381,0.269703731358773846
0.555000000000000382,0.263324709748784247
0.556000000000000383,0.257059499500944977
0.557000000000000384,0.250905840026841576
0.558000000000000385,0.244861505175927363
0.559000000000000385,0.238924303035822183
0.560000000000000386,0.233092075724284420
0.561000000000000387,0.227362699173178390
0.562000000000000388,0.221734082904820579
0.563000000000000389,0.216204169800947199
0.564000000000000390,0.210770935864783265
0.565000000000000391,0.205432389976429930
0.566000000000000392,0.200186573641954635
0.567000000000000393,0.195031560736442150
0.568000000000000393,0.189965457241398655
0.569000000000000394,0.184986400976734244
0.570000000000000395,0.180092561327647588
0.571000000000000396,0.175282138966736362
0.572000000000000397,0.170553365571530058
0.573000000000000398,0.165904503537825515
0.574000000000000399,0.161333845688999417
0.575000000000000400,0.156839714981634626
0.576000000000000401,0.152420464207688511
0.577000000000000401,0.148074475693385887
0.578000000000000402,0.143800160995219223
0.579000000000000403,0.139595960593192292
0.580000000000000404,0.135460343581506187
0.581000000000000405,0.131391807357054302
0.582000000000000406,0.127388877305773390
0.583000000000000407,0.123450106487194761
0.584000000000000408,0.119574075317328860
0.585000000000000409,0.115759391250106730
0.586000000000000409,0.112004688457574900
0.587000000000000410,0.108308627508999167
0.588000000000000411,0.104669895049142106
0.589000000000000412,0.101087203475753951
0.590000000000000413,0.097559290616605010
0.591000000000000414,0.094084919406106748
0.592000000000000415,0.090662877561714678
0.593000000000000416,0.087291977260311820
0.594000000000000417,0.083971054814673249
0.595000000000000417,0.080698970350130475
0.596000000000000418,0.077474607481688371
0.597000000000000419,0.074296872991582705
0.598000000000000420,0.071164696507538913
0.599000000000000421,0.068077030181755011
0.600000000000000422,0.065032848370796578
0.601000000000000423,0.062031147316509071
0.602000000000000424,0.059070944828009474
0.603000000000000425,0.056151279964919053
0.604000000000000425,0.053271212721942018
0.605000000000000426,0.050429823714853286
0.606000000000000427,0.047626213867967261
0.607000000000000428,0.044859504103325488
0.608000000000000429,0.042128835031420155
0.609000000000000430,0.039433366643876658
0.610000000000000431,0.036772278007846104
0.611000000000000432,0.034144766962406502
0.612000000000000433,0.031550049816987051
0.613000000000000433,0.028987361051800102
0.614000000000000434,0.026455953020463663
0.615000000000000435,0.023955095654820908
0.616000000000000436,0.021484076172032390
0.617000000000000437,0.019042198783923076
0.618000000000000438,0.016628784408769727
