# Montmorillonite-001-NaCEC87_PROSCA-AC
# h[nm],U(h)[kJ/mol]
0.149999999999999994,108.557811933039687347
0.150999999999999995,107.499695960744389822
0.151999999999999996,106.322326365728940800
0.152999999999999997,105.068280318838930043
0.153999999999999998,103.773096526781245075
0.154999999999999999,102.462539299762468659
0.156000000000000000,101.152981777483105930
0.157000000000000001,99.853159935287465032
0.158000000000000002,98.566306974781738859
0.159000000000000002,97.292152327219838526
0.160000000000000003,96.028556700503060028
0.161000000000000004,94.772720053564256659
0.162000000000000005,93.521987555466523645
0.163000000000000006,92.274319202357361291
0.164000000000000007,91.028501368902340118
0.165000000000000008,89.784175753711807033
0.166000000000000009,88.541750835625336435
0.167000000000000010,87.302247857213515658
0.168000000000000010,86.067120215685775975
0.169000000000000011,84.838073384531270449
0.170000000000000012,83.616902717029148562
0.171000000000000013,82.405358821270851877
0.172000000000000014,81.205044507245503382
0.173000000000000015,80.017343323603483896
0.174000000000000016,78.843377114232751524
0.175000000000000017,77.683988526071587444
0.176000000000000018,76.539743712706098222
0.177000000000000018,75.410950367531469851
0.178000000000000019,74.297686493818517306
0.179000000000000020,73.199835826925706783
0.180000000000000021,72.117126453207134773
0.181000000000000022,71.049169839306415497
0.182000000000000023,69.995498138415285894
0.183000000000000024,68.955598240712873803
0.184000000000000025,67.928941562874527449
0.185000000000000026,66.915009016795266916
0.186000000000000026,65.913310959026915725
0.187000000000000027,64.923402203739087213
0.188000000000000028,63.944892390483971667
0.189000000000000029,62.977452142694289705
0.190000000000000030,62.020815543423665872
0.191000000000000031,61.074779501063403586
0.192000000000000032,60.139200588809600845
0.193000000000000033,59.213989925827661409
0.194000000000000034,58.299106632671943373
0.195000000000000034,57.394550344794780017
0.196000000000000035,56.500353211096012274
0.197000000000000036,55.616571743598093747
0.198000000000000037,54.743278822756550994
0.199000000000000038,53.880556103110606614
0.200000000000000039,53.028487007736615055
0.201000000000000040,52.187150448503622613
0.202000000000000041,51.356615363195807333
0.203000000000000042,50.536936120522682359
0.204000000000000042,49.728148809960529775
0.205000000000000043,48.930268405108066077
0.206000000000000044,48.143286766477373817
0.207000000000000045,47.367171431963903672
0.208000000000000046,46.601865130147430705
0.209000000000000047,45.847285942547038928
0.210000000000000048,45.103328035447056266
0.211000000000000049,44.369862879404507794
0.212000000000000050,43.646740874532639509
0.213000000000000050,42.933793301669751941
0.214000000000000051,42.230834523149226811
0.215000000000000052,41.537664361710767480
0.216000000000000053,40.854070591788811839
0.217000000000000054,40.179831483691295091
0.218000000000000055,39.514718347788814867
0.219000000000000056,38.858498032561570312
0.220000000000000057,38.210935337024537262
0.221000000000000058,37.571795304537666027
0.222000000000000058,36.940845371191798563
0.223000000000000059,36.317857347771180798
0.224000000000000060,35.702609219663877127
0.225000000000000061,35.094886753993037587
0.226000000000000062,34.494484907647304794
0.227000000000000063,33.901209033797542247
0.228000000000000064,33.314875887900697649
0.229000000000000065,32.735314437125794029
0.230000000000000066,32.162366479613453407
0.231000000000000066,31.595887082024084691
0.232000000000000067,31.035744845472759579
0.233000000000000068,30.481822011221787250
0.234000000000000069,29.934014418440586525
0.235000000000000070,29.392231326978908612
0.236000000000000071,28.856395118470565819
0.237000000000000072,28.326440889219316688
0.238000000000000073,27.802315948252651623
0.239000000000000073,27.283979233690011768
0.240000000000000074,26.771400660186742471
0.241000000000000075,26.264560409712959910
0.242000000000000076,25.763448177327923361
0.243000000000000077,25.268062382937927168
0.244000000000000078,24.778409359299764958
0.245000000000000079,24.294502525767242673
0.246000000000000080,23.816361556492591234
0.247000000000000081,23.344011550998359894
0.248000000000000081,22.877482214242849778
0.249000000000000082,22.416807052520290711
0.250000000000000111,21.962022590775124087
0.251000000000000112,21.513167616174776242
0.252000000000000113,21.070282452080821400
0.253000000000000114,20.633408265891354461
0.254000000000000115,20.202586413597529713
0.255000000000000115,19.777857823309453522
0.256000000000000116,19.359262419460584681
0.257000000000000117,18.946838588896817157
0.258000000000000118,18.540622689596862216
0.259000000000000119,18.140648602352872132
0.260000000000000120,17.746947325364565984
0.261000000000000121,17.359546611364834234
0.262000000000000122,16.978470646598189830
0.263000000000000123,16.603739770714160073
0.264000000000000123,16.235370236413267264
0.265000000000000124,15.873374007492287774
0.266000000000000125,15.517758593775306863
0.267000000000000126,15.168526921285945264
0.268000000000000127,14.825677235911319585
0.269000000000000128,14.489203038728494022
0.270000000000000129,14.159093051106490080
0.271000000000000130,13.835331207659328001
0.272000000000000131,13.517896675106868543
0.273000000000000131,13.206763895097367367
0.274000000000000132,12.901902649057699790
0.275000000000000133,12.603278143162008007
0.276000000000000134,12.310851111545193959
0.277000000000000135,12.024577935933878692
0.278000000000000136,11.744410779920663401
0.279000000000000137,11.470297736168607372
0.280000000000000138,11.202182984899341278
0.281000000000000139,10.940006962088967057
0.282000000000000139,10.683706535870717502
0.283000000000000140,10.433215189720115745
0.284000000000000141,10.188463211077788628
0.285000000000000142,9.949377884144441353
0.286000000000000143,9.715883685663129654
0.287000000000000144,9.487902482583969288
0.288000000000000145,9.265353730585150771
0.289000000000000146,9.048154672502956686
0.290000000000000147,8.836220535798908315
0.291000000000000147,8.629464728267242535
0.292000000000000148,8.427799031257624307
0.293000000000000149,8.231133789757883790
0.294000000000000150,8.039378098748466428
0.295000000000000151,7.852439985304366488
0.296000000000000152,7.670226585981623657
0.297000000000000153,7.492644319083687776
0.298000000000000154,7.319599051458004269
0.299000000000000155,7.150996259525301824
0.300000000000000155,6.986741184292997175
0.301000000000000156,6.826738980150206082
0.302000000000000157,6.670894857284418222
0.303000000000000158,6.519114217600145977
0.304000000000000159,6.371302784056661395
0.305000000000000160,6.227366723376212221
0.306000000000000161,6.087212762105558284
0.307000000000000162,5.950748296042331908
0.308000000000000163,5.817881493064265719
0.309000000000000163,5.688521389422858121
0.310000000000000164,5.562577979584754750
0.311000000000000165,5.439962299723236860
0.312000000000000166,5.320586504979576858
0.313000000000000167,5.204363940628906171
0.314000000000000168,5.091209207298906136
0.315000000000000169,4.981038220400821004
0.316000000000000170,4.873768263942328538
0.317000000000000171,4.769318038900123291
0.318000000000000171,4.667607706336891482
0.319000000000000172,4.568558925452841812
0.320000000000000173,4.472094886766278421
0.321000000000000174,4.378140340620895188
0.322000000000000175,4.286621621219311784
0.323000000000000176,4.197466666383727230
0.324000000000000177,4.110605033244519646
0.325000000000000178,4.025967910057273613
0.326000000000000179,3.943488124347060086
0.327000000000000179,3.863100147577092969
0.328000000000000180,3.784740096536145959
0.329000000000000181,3.708345731635942943
0.330000000000000182,3.633856452306337470
0.331000000000000183,3.561213289671870008
0.332000000000000184,3.490358896689153223
0.333000000000000185,3.421237535919735784
0.334000000000000186,3.353795065108251983
0.335000000000000187,3.287978920730501020
0.336000000000000187,3.223738099670749868
0.337000000000000188,3.161023139182280062
0.338000000000000189,3.099786095279365217
0.339000000000000190,3.039980519703441963
0.340000000000000191,2.981561435600546428
0.341000000000000192,2.924485312041279705
0.342000000000000193,2.868710037508961808
0.343000000000000194,2.814194892475872845
0.344000000000000195,2.760900521182108935
0.345000000000000195,2.708788902725526082
0.346000000000000196,2.657823321566329611
0.347000000000000197,2.607968337544017690
0.348000000000000198,2.559189755499335028
0.349000000000000199,2.511454594588632627
0.350000000000000200,2.464731057372934853
0.351000000000000201,2.418988498759155004
0.352000000000000202,2.374197394866066180
0.353000000000000203,2.330329311882947341
0.354000000000000203,2.287356874984348476
0.355000000000000204,2.245253737360106250
0.356000000000000205,2.203994549415432491
0.357000000000000206,2.163554928191820714
0.358000000000000207,2.123911427055838352
0.359000000000000208,2.085041505698841835
0.360000000000000209,2.046923500487156211
0.361000000000000210,2.009536595198972542
0.362000000000000210,1.972860792180640699
0.363000000000000211,1.936876883952170614
0.364000000000000212,1.901566425288549578
0.365000000000000213,1.866911705800791355
0.366000000000000214,1.832895723037824665
0.367000000000000215,1.799502156127853691
0.368000000000000216,1.766715339975245103
0.369000000000000217,1.734520240026936833
0.370000000000000218,1.702902427619922276
0.371000000000000218,1.671848055919598952
0.372000000000000219,1.641343836456591321
0.373000000000000220,1.611377016268048745
0.374000000000000221,1.581935355647612784
0.375000000000000222,1.553007106506837598
0.376000000000000223,1.524580991349043568
0.377000000000000224,1.496646182855625895
0.378000000000000225,1.469192284083262745
0.379000000000000226,1.442209309269429029
0.380000000000000226,1.415687665242431503
0.381000000000000227,1.389618133431352209
0.382000000000000228,1.363991852470128885
0.383000000000000229,1.338800301389351022
0.384000000000000230,1.314035283388536701
0.385000000000000231,1.289688910180802006
0.386000000000000232,1.265753586901507521
0.387000000000000233,1.242221997571545833
0.388000000000000234,1.219087091105768295
0.389000000000000234,1.196342067856289937
0.390000000000000235,1.173980366680264398
0.391000000000000236,1.151995652521223601
0.392000000000000237,1.130381804492838871
0.393000000000000238,1.109132904453701274
0.394000000000000239,1.088243226061519353
0.395000000000000240,1.067707224294937252
0.396000000000000241,1.047519525431063414
0.397000000000000242,1.027674917466724791
0.398000000000000242,1.008168340971319576
0.399000000000000243,0.988994880359237549
0.400000000000000244,0.970149755569676975
0.401000000000000245,0.951628314141753529
0.402000000000000246,0.933426023672947025
0.403000000000000247,0.915538464648778527
0.404000000000000248,0.897961323631926711
0.405000000000000249,0.880690386798919533
0.406000000000000250,0.863721533812808806
0.407000000000000250,0.847050732020220076
0.408000000000000251,0.830674030961472964
0.409000000000000252,0.814587557182517186
0.410000000000000253,0.798787509337661961
0.411000000000000254,0.783270153572267924
0.412000000000000255,0.768031819174739172
0.413000000000000256,0.753068894487348817
0.414000000000000257,0.738377823065718752
0.415000000000000258,0.723955100076853375
0.416000000000000258,0.709797268926025460
0.417000000000000259,0.695900918102850374
0.418000000000000260,0.682262678237280484
0.419000000000000261,0.668879219356367072
0.420000000000000262,0.655747248332944510
0.421000000000000263,0.642863506517549865
0.422000000000000264,0.630224767545252140
0.423000000000000265,0.617827835309168294
0.424000000000000266,0.605669542092713176
0.425000000000000266,0.593746746852993446
0.426000000000000267,0.582056333647752444
0.427000000000000268,0.570595210198752589
0.428000000000000269,0.559360306584532063
0.429000000000000270,0.548348574055776750
0.430000000000000271,0.537556983966807067
0.431000000000000272,0.526982526816792363
0.432000000000000273,0.516622211394664133
0.433000000000000274,0.506473064021783159
0.434000000000000274,0.496532127886735009
0.435000000000000275,0.486796462466774049
0.436000000000000276,0.477263143030649928
0.437000000000000277,0.467929260217790077
0.438000000000000278,0.458791919688953165
0.439000000000000279,0.449848241843696761
0.440000000000000280,0.441095361600188418
0.441000000000000281,0.432530428233081465
0.442000000000000282,0.424150605265275593
0.443000000000000282,0.415953070409739112
0.444000000000000283,0.407935015557499447
0.445000000000000284,0.400093646808292736
0.446000000000000285,0.392426184540419554
0.447000000000000286,0.384929863516444315
0.448000000000000287,0.377601933021740443
0.449000000000000288,0.370439657032773373
0.450000000000000289,0.363440314412369236
0.451000000000000290,0.356601199129234936
0.452000000000000290,0.349919620499142492
0.453000000000000291,0.343392903445409570
0.454000000000000292,0.337018388776288202
0.455000000000000293,0.330793433477142351
0.456000000000000294,0.324715411015307764
0.457000000000000295,0.318781711655678091
0.458000000000000296,0.312989742785202640
0.459000000000000297,0.307336929244524104
0.460000000000000298,0.301820713665136409
0.461000000000000298,0.296438556810506681
0.462000000000000299,0.291187937919735074
0.463000000000000300,0.286066355052396470
0.464000000000000301,0.281071325433265407
0.465000000000000302,0.276200385795778491
0.466000000000000303,0.271451092723117904
0.467000000000000304,0.266821022985870626
0.468000000000000305,0.262307773875334771
0.469000000000000306,0.257908963531591318
0.470000000000000306,0.253622231265475340
0.471000000000000307,0.249445237873788195
0.472000000000000308,0.245375665946974075
0.473000000000000309,0.241411220168670809
0.474000000000000310,0.237549627606567837
0.475000000000000311,0.233788637994033127
0.476000000000000312,0.230126024002041796
0.477000000000000313,0.226559581500987983
0.478000000000000314,0.223087129812030410
0.479000000000000314,0.219706511947579897
0.480000000000000315,0.216415594840716319
0.481000000000000316,0.213212269563210294
0.482000000000000317,0.210094451532012172
0.483000000000000318,0.207060080703957844
0.484000000000000319,0.204107121758604293
0.485000000000000320,0.201233564269061554
0.486000000000000321,0.198437422860727131
0.487000000000000322,0.195716737357881476
0.488000000000000322,0.193069572918149246
0.489000000000000323,0.190494020154742288
0.490000000000000324,0.187988195246583362
0.491000000000000325,0.185550240036315400
0.492000000000000326,0.183178322116275549
0.493000000000000327,0.180870634902487032
0.494000000000000328,0.178625397696806687
0.495000000000000329,0.176440855737306529
0.496000000000000330,0.174315280237068909
0.497000000000000330,0.172246968411449541
0.498000000000000331,0.170234243494113618
0.499000000000000332,0.168275454741848629
0.500000000000000333,0.166368977428441533
0.501000000000000334,0.164513212827811062
0.502000000000000335,0.162706588186521395
0.503000000000000336,0.160947556685968940
0.504000000000000337,0.159234597394395355
0.505000000000000338,0.157566215208994997
0.506000000000000338,0.155940940788302257
0.507000000000000339,0.154357330475134502
0.508000000000000340,0.152813966210312457
0.509000000000000341,0.151309455437353912
0.510000000000000342,0.149842430998488041
0.511000000000000343,0.148411551022123556
0.512000000000000344,0.147015498802110928
0.513000000000000345,0.145652982669005032
0.514000000000000346,0.144322735853562312
0.515000000000000346,0.143023516342795365
0.516000000000000347,0.141754106728773810
0.517000000000000348,0.140513314050439458
0.518000000000000349,0.139299969628712494
0.519000000000000350,0.138112928895114340
0.520000000000000351,0.136951071214184705
0.521000000000000352,0.135813299699892476
0.522000000000000353,0.134698541026362750
0.523000000000000353,0.133605745233096679
0.524000000000000354,0.132533885524962314
0.525000000000000355,0.131481958067190041
0.526000000000000356,0.130448981775624945
0.527000000000000357,0.129433998102425646
0.528000000000000358,0.128436070817515124
0.529000000000000359,0.127454285785918636
0.530000000000000360,0.126487750741324900
0.531000000000000361,0.125535595055980498
0.532000000000000361,0.124596969507222696
0.533000000000000362,0.123671046040810140
0.534000000000000363,0.122757017531297669
0.535000000000000364,0.121854097539628572
0.536000000000000365,0.120961520068181838
0.537000000000000366,0.120078539313432070
0.538000000000000367,0.119204429416478658
0.539000000000000368,0.118338484211534367
0.540000000000000369,0.117480016972681331
0.541000000000000369,0.116628360158950908
0.542000000000000370,0.115782865158023676
0.543000000000000371,0.114942902028621147
0.544000000000000372,0.114107859241821180
0.545000000000000373,0.113277143421428667
0.546000000000000374,0.112450179083578614
0.547000000000000375,0.111626408375721090
0.548000000000000376,0.110805290815126731
0.549000000000000377,0.109986303027082011
0.550000000000000377,0.109168938482889111
0.551000000000000378,0.108352707237842183
0.552000000000000379,0.107537135669274295
0.553000000000000380,0.106721766214830496
0.554000000000000381,0.105906157111105695
0.555000000000000382,0.105089882132699236
0.556000000000000383,0.104272530331917704
0.557000000000000384,0.103453705779104663
0.558000000000000385,0.102633027303834612
0.559000000000000385,0.101810128236975952
0.560000000000000386,0.100984656153779800
0.561000000000000387,0.100156272618072612
0.562000000000000388,0.099324652927662169
0.563000000000000389,0.098489485861008252
0.564000000000000390,0.097650473425295731
0.565000000000000391,0.096807330605953867
0.566000000000000392,0.095959785117724919
0.567000000000000393,0.095107577157323542
0.568000000000000393,0.094250459157815686
0.569000000000000394,0.093388195544728644
0.570000000000000395,0.092520562493989003
0.571000000000000396,0.091647347691755282
0.572000000000000397,0.090768350096168585
0.573000000000000398,0.089883379701135163
0.574000000000000399,0.088992257302127897
0.575000000000000400,0.088094814264121607
0.576000000000000401,0.087190892291670749
0.577000000000000401,0.086280343201162041
0.578000000000000402,0.085363028695331522
0.579000000000000403,0.084438820140063597
0.580000000000000404,0.083507598343466410
0.581000000000000405,0.082569253337345411
0.582000000000000406,0.081623684161021365
0.583000000000000407,0.080670798647578451
0.584000000000000408,0.079710513212546075
0.585000000000000409,0.078742752645041242
0.586000000000000409,0.077767449901409352
0.587000000000000410,0.076784545901345383
0.588000000000000411,0.075793989326585418
0.589000000000000412,0.074795736422087061
0.590000000000000413,0.073789750799816603
0.591000000000000414,0.072776003245081849
0.592000000000000415,0.071754471525441635
0.593000000000000416,0.070725140202227504
0.594000000000000417,0.069688000444660309
0.595000000000000417,0.068643049846541015
0.596000000000000418,0.067590292245603728
0.597000000000000419,0.066529737545434398
0.598000000000000420,0.065461401540034422
0.599000000000000421,0.064385305740982418
0.600000000000000422,0.063301477207208454
0.601000000000000423,0.062209948377398926
0.602000000000000424,0.061110756904981599
0.603000000000000425,0.060003945495717526
0.604000000000000425,0.058889561747905592
0.605000000000000426,0.057767657995160579
0.606000000000000427,0.056638291151753638
0.607000000000000428,0.055501522560576978
0.608000000000000429,0.054357417843576318
0.609000000000000430,0.053206046754841939
0.610000000000000431,0.052047483036131381
0.611000000000000432,0.050881804274975725
0.612000000000000433,0.049709091765282862
0.613000000000000433,0.048529430370406620
0.614000000000000434,0.047342908388718741
0.615000000000000435,0.046149617421633218
0.616000000000000436,0.044949652244077383
0.617000000000000437,0.043743110677365457
0.618000000000000438,0.042530093464500922
0.619000000000000439,0.041310704147870525
0.620000000000000440,0.040085048949282186
