# Montmorillonite-001-NaCEC87_CS-11530-AC
# h[nm],U(h)[kJ/mol]
0.149999999999999994,121.390639646675978724
0.150999999999999995,120.104040759853461395
0.151999999999999996,118.871385892204472157
0.152999999999999997,117.579264575624534928
0.153999999999999998,116.214729955119267402
0.154999999999999999,114.802180296896239042
0.156000000000000000,113.372332234081824254
0.157000000000000001,111.949229917723897643
0.158000000000000002,110.546747462792993133
0.159000000000000002,109.169566125247044397
0.160000000000000003,107.815815698061257422
0.161000000000000004,106.479918001355528645
0.162000000000000005,105.154965790712452645
0.163000000000000006,103.834417034288293280
0.164000000000000007,102.513116523924367129
0.165000000000000008,101.187761149025533314
0.166000000000000009,99.856957195383500903
0.167000000000000010,98.521012103718618391
0.168000000000000010,97.181579917788411649
0.169000000000000011,95.841251063355656470
0.170000000000000012,94.503149498003239160
0.171000000000000013,93.170576657567622192
0.172000000000000014,91.846723022693069538
0.173000000000000015,90.534454476582212124
0.174000000000000016,89.236171323863089810
0.175000000000000017,87.953732084770720689
0.176000000000000018,86.688431142161022080
0.177000000000000018,85.441018251245196780
0.178000000000000019,84.211748191946952602
0.179000000000000020,83.000449948706801706
0.180000000000000021,81.806606361056211085
0.181000000000000022,80.629436924649482421
0.182000000000000023,79.467978148006523043
0.183000000000000024,78.321157464841334672
0.184000000000000025,77.187858097268446045
0.185000000000000026,76.066973430796366529
0.186000000000000026,74.957450393361185093
0.187000000000000027,73.858322040299299260
0.188000000000000028,72.768730057854739357
0.189000000000000029,71.687938237447909273
0.190000000000000030,70.615338170977253185
0.191000000000000031,69.550448502579314436
0.192000000000000032,68.492909070969488994
0.193000000000000033,67.442471212064646124
0.194000000000000034,66.398985383959598039
0.195000000000000034,65.362387141916400424
0.196000000000000035,64.332682342979836676
0.197000000000000036,63.309932308307260485
0.198000000000000037,62.294239523852489526
0.199000000000000038,61.285734321993189155
0.200000000000000039,60.284562861541054701
0.201000000000000040,59.290876613336649825
0.202000000000000041,58.304823464173352932
0.203000000000000042,57.326540473108515528
0.204000000000000042,56.356148250661519228
0.205000000000000043,55.393746881891559042
0.206000000000000044,54.439413277534676183
0.207000000000000045,53.493199811762373486
0.208000000000000046,52.555134089143905385
0.209000000000000047,51.625219675523077001
0.210000000000000048,50.703437626294608265
0.211000000000000049,49.789748649639228972
0.212000000000000050,48.884095750423867344
0.213000000000000050,47.986407211620765167
0.214000000000000051,47.096599783303766174
0.215000000000000052,46.214581963752195293
0.216000000000000053,45.340257272266015320
0.217000000000000054,44.473527428436021580
0.218000000000000055,43.614295367389829039
0.219000000000000056,42.762468034624774305
0.220000000000000057,41.917958917198646418
0.221000000000000058,41.080690280117408975
0.222000000000000058,40.250595087627779378
0.223000000000000059,39.427618598745091560
0.224000000000000060,38.611719634712116545
0.225000000000000061,37.802871523217127958
0.226000000000000062,37.001062730150827917
0.227000000000000063,36.206297194518825222
0.228000000000000064,35.418594385934788704
0.229000000000000065,34.637989106984640841
0.230000000000000066,33.864531064776357994
0.231000000000000066,33.098284237262689089
0.232000000000000067,32.339326060546497388
0.233000000000000068,31.587746463438328703
0.234000000000000069,30.843646775124035742
0.235000000000000070,30.107138530995779746
0.236000000000000071,29.378342200580526367
0.237000000000000072,28.657385860132414734
0.238000000000000073,27.944403830902292185
0.239000000000000073,27.239535302415180951
0.240000000000000074,26.542922958317252125
0.241000000000000075,25.854711620547767836
0.242000000000000076,25.175046925775774298
0.243000000000000077,24.504074046251275831
0.244000000000000078,23.841936465478092089
0.245000000000000079,23.188774817441164089
0.246000000000000080,22.544725796531128736
0.247000000000000081,21.909921143812603361
0.248000000000000081,21.284486713891460852
0.249000000000000082,20.668541625353988422
0.250000000000000111,20.062197496579791789
0.251000000000000112,19.465557767673107747
0.252000000000000113,18.878717108310695494
0.253000000000000114,18.301760910469184296
0.254000000000000115,17.734764864262778872
0.255000000000000115,17.177794614493794967
0.256000000000000116,16.630905494984009607
0.257000000000000117,16.094142337310920254
0.258000000000000118,15.567539350213712268
0.259000000000000119,15.051120065650048119
0.260000000000000120,14.544897347273291643
0.261000000000000121,14.048873456952346572
0.262000000000000122,13.563040174866298315
0.263000000000000123,13.087378968668826218
0.264000000000000123,12.621861207225098411
0.265000000000000124,12.166448414472361250
0.266000000000000125,11.721092559038687853
0.267000000000000126,11.285736375367312334
0.268000000000000127,10.860313712231654648
0.269000000000000128,10.444749904685719955
0.270000000000000129,10.038962165669705229
0.271000000000000130,9.642859993679261166
0.272000000000000131,9.256345593106050984
0.273000000000000131,8.879314304062123853
0.274000000000000132,8.511655038710706833
0.275000000000000133,8.153250721337471418
0.276000000000000134,7.803978729607382370
0.277000000000000135,7.463711334662336938
0.278000000000000136,7.132316137919758603
0.279000000000000137,6.809656502633631092
0.280000000000000138,6.495591978474652528
0.281000000000000139,6.189978717573580980
0.282000000000000139,5.892669880652866787
0.283000000000000140,5.603516032043446948
0.284000000000000141,5.322365522547327643
0.285000000000000142,5.049064859261052973
0.286000000000000143,4.783459061620611408
0.287000000000000144,4.525392003064728108
0.288000000000000145,4.274706737839992776
0.289000000000000146,4.031245812589835609
0.290000000000000147,3.794851562477359330
0.291000000000000147,3.565366391692796011
0.292000000000000148,3.342633038287044833
0.293000000000000149,3.126494823356585240
0.294000000000000150,2.916795884679675321
0.295000000000000151,2.713381394971585703
0.296000000000000152,2.516097764986651608
0.297000000000000153,2.324792831748518473
0.298000000000000154,2.139316032236409981
0.299000000000000155,1.959518562896209959
0.300000000000000155,1.785253525379774775
0.301000000000000156,1.616376058945628857
0.302000000000000157,1.452743459978323770
0.303000000000000158,1.294215289103924693
0.304000000000000159,1.140653466394278670
0.305000000000000160,0.991922355164562730
0.306000000000000161,0.847888834876387554
0.307000000000000162,0.708422363663402832
0.308000000000000163,0.573395030998160138
0.309000000000000163,0.442681601017851256
0.310000000000000164,0.316159547023080356
0.311000000000000165,0.193709077658363066
0.312000000000000166,0.075213155275338867
0.313000000000000167,-0.039442493029341198
0.314000000000000168,-0.150369371220210990
0.315000000000000169,-0.257676216503947564
0.316000000000000170,-0.361469007428883771
0.317000000000000171,-0.461850977460492751
0.318000000000000171,-0.558922633605143604
0.319000000000000172,-0.652781779669636242
0.320000000000000173,-0.743523543759599947
0.321000000000000174,-0.831240409635930710
0.322000000000000175,-0.916022251564777457
0.323000000000000176,-0.997956372312808648
0.324000000000000177,-1.077127543956076350
0.325000000000000178,-1.153618051186908522
0.326000000000000179,-1.227507736819830164
0.327000000000000179,-1.298874049213218695
0.328000000000000180,-1.367792091339343763
0.329000000000000181,-1.434334671251087601
0.330000000000000182,-1.498572353708406357
0.331000000000000183,-1.560573512742885027
0.332000000000000184,-1.620404384952653043
0.333000000000000185,-1.678129123334154205
0.334000000000000186,-1.733809851470651253
0.335000000000000187,-1.787506717910363863
0.336000000000000187,-1.839277950579764065
0.337000000000000188,-1.889179911089321706
0.338000000000000189,-1.937267148800931649
0.339000000000000190,-1.983592454537010941
0.340000000000000191,-2.028206913821780422
0.341000000000000192,-2.071159959555501029
0.342000000000000193,-2.112499424031749840
0.343000000000000194,-2.152271590217107011
0.344000000000000195,-2.190521242220816678
0.345000000000000195,-2.227291714890685892
0.346000000000000196,-2.262624942478468792
0.347000000000000197,-2.296561506325698776
0.348000000000000198,-2.329140681527390289
0.349000000000000199,-2.360400482537490241
0.350000000000000200,-2.390377707685875208
0.351000000000000201,-2.419107982582178185
0.352000000000000202,-2.446625802386899640
0.353000000000000203,-2.472964572935071992
0.354000000000000203,-2.498156650702174630
0.355000000000000204,-2.522233381605974323
0.356000000000000205,-2.545225138641918683
0.357000000000000206,-2.567161358353151179
0.358000000000000207,-2.588070576139168910
0.359000000000000208,-2.607980460410349366
0.360000000000000209,-2.626917845598065515
0.361000000000000210,-2.644908764032415149
0.362000000000000210,-2.661978476701921448
0.363000000000000211,-2.678151502911291892
0.364000000000000212,-2.693451648855254454
0.365000000000000213,-2.707902035127796037
0.366000000000000214,-2.721525123187622519
0.367000000000000215,-2.734342740801703364
0.368000000000000216,-2.746376106489920588
0.369000000000000217,-2.757645852994452973
0.370000000000000218,-2.768172049798512724
0.371000000000000218,-2.777974224719338192
0.372000000000000219,-2.787071384601038648
0.373000000000000220,-2.795482035133114884
0.374000000000000221,-2.803224199820747220
0.375000000000000222,-2.810315438132915844
0.376000000000000223,-2.816772862854895809
0.377000000000000224,-2.822613156671127221
0.378000000000000225,-2.827852588004696965
0.379000000000000226,-2.832507026139372108
0.380000000000000226,-2.836591955649990116
0.381000000000000227,-2.840122490166530067
0.382000000000000228,-2.843113385497118450
0.383000000000000229,-2.845579052134637799
0.384000000000000230,-2.847533567171237401
0.385000000000000231,-2.848990685644744669
0.386000000000000232,-2.849963851340199472
0.387000000000000233,-2.850466207069578761
0.388000000000000234,-2.850510604451883978
0.389000000000000234,-2.850109613215580762
0.390000000000000235,-2.849275530044488747
0.391000000000000236,-2.848020386987908825
0.392000000000000237,-2.846355959454963003
0.393000000000000238,-2.844293773812759163
0.394000000000000239,-2.841845114607137734
0.395000000000000240,-2.839021031424427299
0.396000000000000241,-2.835832345411810174
0.397000000000000242,-2.832289655473410939
0.398000000000000242,-2.828403344158636479
0.399000000000000243,-2.824183583258624619
0.400000000000000244,-2.819640339126119333
0.401000000000000245,-2.814783377733582448
0.402000000000000246,-2.809622269483560419
0.403000000000000247,-2.804166393785041844
0.404000000000000248,-2.798424943408773125
0.405000000000000249,-2.792406928634070251
0.406000000000000250,-2.786121181199038954
0.407000000000000250,-2.779576358065731334
0.408000000000000251,-2.772780945011112941
0.409000000000000252,-2.765743260054308372
0.410000000000000253,-2.758471456730093863
0.411000000000000254,-2.750973527218117720
0.412000000000000255,-2.743257305336866292
0.413000000000000256,-2.735330469411033416
0.414000000000000257,-2.727200545020345146
0.415000000000000258,-2.718874907637728544
0.416000000000000258,-2.710360785164032116
0.417000000000000259,-2.701665260366366006
0.418000000000000260,-2.692795273226587849
0.419000000000000261,-2.683757623206174614
0.420000000000000262,-2.674558971433345977
0.421000000000000263,-2.665205842818034299
0.422000000000000264,-2.655704628099827325
0.423000000000000265,-2.646061585833858754
0.424000000000000266,-2.636282844319310925
0.425000000000000266,-2.626374403474717845
0.426000000000000267,-2.616342136664282947
0.427000000000000268,-2.606191792478927738
0.428000000000000269,-2.595928996475618256
0.429000000000000270,-2.585559252878369740
0.430000000000000271,-2.575087946243888926
0.431000000000000272,-2.564520343094867094
0.432000000000000273,-2.553861593523477413
0.433000000000000274,-2.543116732767628285
0.434000000000000274,-2.532290682762226020
0.435000000000000275,-2.521388253667557588
0.436000000000000276,-2.510414145376770989
0.437000000000000277,-2.499372949004192268
0.438000000000000278,-2.488269148356160976
0.439000000000000279,-2.477107121385865973
0.440000000000000280,-2.465891141633542283
0.441000000000000281,-2.454625379653232020
0.442000000000000282,-2.443313904427355077
0.443000000000000282,-2.431960684769883585
0.444000000000000283,-2.420569590719256148
0.445000000000000284,-2.409144394921672649
0.446000000000000285,-2.397688774005506840
0.447000000000000286,-2.386206309947580539
0.448000000000000287,-2.374700491431648963
0.449000000000000288,-2.363174715199774401
0.450000000000000289,-2.351632287396809851
0.451000000000000290,-2.340076424908447805
0.452000000000000290,-2.328510256693073099
0.453000000000000291,-2.316936825107608566
0.454000000000000292,-2.305359087227584869
0.455000000000000293,-2.293779916161483357
0.456000000000000294,-2.282202102359494056
0.457000000000000295,-2.270628354916696789
0.458000000000000296,-2.259061302870646326
0.459000000000000297,-2.247503496493377995
0.460000000000000298,-2.235957408577726735
0.461000000000000298,-2.224425435717905852
0.462000000000000299,-2.212909899584210471
0.463000000000000300,-2.201413048191696920
0.464000000000000301,-2.189937057162734568
0.465000000000000302,-2.178484030983217856
0.466000000000000303,-2.167056004252241763
0.467000000000000304,-2.155654942925093742
0.468000000000000305,-2.144282745549301428
0.469000000000000306,-2.132941244493536281
0.470000000000000306,-2.121632207169183548
0.471000000000000307,-2.110357337244260556
0.472000000000000308,-2.099118275849540360
0.473000000000000309,-2.087916602776595631
0.474000000000000310,-2.076753837667511426
0.475000000000000311,-2.065631441196052354
0.476000000000000312,-2.054550816240053202
0.477000000000000313,-2.043513309044751924
0.478000000000000314,-2.032520210376845604
0.479000000000000314,-2.021572756669082427
0.480000000000000315,-2.010672131155063269
0.481000000000000316,-1.999819464994150975
0.482000000000000317,-1.989015838386132939
0.483000000000000318,-1.978262281675549961
0.484000000000000319,-1.967559776445383379
0.485000000000000320,-1.956909256599974167
0.486000000000000321,-1.946311609436936152
0.487000000000000322,-1.935767676707894624
0.488000000000000322,-1.925278255667842497
0.489000000000000323,-1.914844100113017422
0.490000000000000324,-1.904465921407057838
0.491000000000000325,-1.894144389495328484
0.492000000000000326,-1.883880133907242849
0.493000000000000327,-1.873673744746495062
0.494000000000000328,-1.863525773669012509
0.495000000000000329,-1.853436734848573852
0.496000000000000330,-1.843407105929898648
0.497000000000000330,-1.833437328969246938
0.498000000000000331,-1.823527811362235962
0.499000000000000332,-1.813678926759011434
0.500000000000000333,-1.803891015966558653
0.501000000000000334,-1.794164387838084851
0.502000000000000335,-1.784499320149514956
0.503000000000000336,-1.774896060462963110
0.504000000000000337,-1.765354826977178604
0.505000000000000338,-1.755875809364921825
0.506000000000000338,-1.746459169597267547
0.507000000000000339,-1.737105042754793160
0.508000000000000340,-1.727813537825638290
0.509000000000000341,-1.718584738490510633
0.510000000000000342,-1.709418703894524993
0.511000000000000343,-1.700315469406006086
0.512000000000000344,-1.691275047362181372
0.513000000000000345,-1.682297427801859202
0.514000000000000346,-1.673382579185126673
0.515000000000000346,-1.664530449100039222
0.516000000000000347,-1.655740964956414318
0.517000000000000348,-1.647014034666803184
0.518000000000000349,-1.638349547314605248
0.519000000000000350,-1.629747373809492528
0.520000000000000351,-1.621207367530135723
0.521000000000000352,-1.612729364954387679
0.522000000000000353,-1.604313186276914438
0.523000000000000353,-1.595958636014422449
0.524000000000000354,-1.587665503598574279
0.525000000000000355,-1.579433563956637032
0.526000000000000356,-1.571262578080002470
0.527000000000000357,-1.563152293580692520
0.528000000000000358,-1.555102445235889475
0.529000000000000359,-1.547112755520711147
0.530000000000000360,-1.539182935129208118
0.531000000000000361,-1.531312683483831094
0.532000000000000361,-1.523501689233386358
0.533000000000000362,-1.515749630739670728
0.534000000000000363,-1.508056176552856176
0.535000000000000364,-1.500420985875805746
0.536000000000000365,-1.492843709017390941
0.537000000000000366,-1.485323987835010628
0.538000000000000367,-1.477861456166346787
0.539000000000000368,-1.470455740250635523
0.540000000000000369,-1.463106459139415616
0.541000000000000369,-1.455813225097074559
0.542000000000000370,-1.448575643991158124
0.543000000000000371,-1.441393315672722997
0.544000000000000372,-1.434265834346793778
0.545000000000000373,-1.427192788933106637
0.546000000000000374,-1.420173763417245993
0.547000000000000375,-1.413208337192355168
0.548000000000000376,-1.406296085391547379
0.549000000000000377,-1.399436579211172482
0.550000000000000377,-1.392629386225059607
0.551000000000000378,-1.385874070689906645
0.552000000000000379,-1.379170193841963599
0.553000000000000380,-1.372517314185136339
0.554000000000000381,-1.365914987770646460
0.555000000000000382,-1.359362768468467264
0.556000000000000383,-1.352860208230546091
0.557000000000000384,-1.346406857346114094
0.558000000000000385,-1.340002264689081013
0.559000000000000385,-1.333645977957776285
0.560000000000000386,-1.327337543907106454
0.561000000000000387,-1.321076508573291619
0.562000000000000388,-1.314862417491325930
0.563000000000000389,-1.308694815905316444
0.564000000000000390,-1.302573248971797160
0.565000000000000391,-1.296497261956205183
0.566000000000000392,-1.290466400422611626
0.567000000000000393,-1.284480210416906854
0.568000000000000393,-1.278538238643482261
0.569000000000000394,-1.272640032635633522
0.570000000000000395,-1.266785140919774788
0.571000000000000396,-1.260973113173572191
0.572000000000000397,-1.255203500378206716
0.573000000000000398,-1.249475854964789967
0.574000000000000399,-1.243789730955157991
0.575000000000000400,-1.238144684097096659
0.576000000000000401,-1.232540271994153169
0.577000000000000401,-1.226976054230197732
0.578000000000000402,-1.221451592488759452
0.579000000000000403,-1.215966450667336662
0.580000000000000404,-1.210520194986801412
0.581000000000000405,-1.205112394095944062
0.582000000000000406,-1.199742619171370706
0.583000000000000407,-1.194410444012768746
0.584000000000000408,-1.189115445133746451
0.585000000000000409,-1.183857201848280472
0.586000000000000409,-1.178635296352925410
0.587000000000000410,-1.173449313804896033
0.588000000000000411,-1.168298842396074066
0.589000000000000412,-1.163183473423139880
0.590000000000000413,-1.158102801353817046
0.591000000000000414,-1.153056423889423199
0.592000000000000415,-1.148043942023801778
0.593000000000000416,-1.143064960098686855
0.594000000000000417,-1.138119085855654244
0.595000000000000417,-1.133205930484769475
0.596000000000000418,-1.128325108669905763
0.597000000000000419,-1.123476238631000879
0.598000000000000420,-1.118658942163178960
0.599000000000000421,-1.113872844672936679
0.600000000000000422,-1.109117575211426399
0.601000000000000423,-1.104392766504922463
0.602000000000000424,-1.099698054982594098
0.603000000000000425,-1.095033080801622649
0.604000000000000425,-1.090397487869751769
0.605000000000000426,-1.085790923865369351
0.606000000000000427,-1.081213040255209812
0.607000000000000428,-1.076663492309646752
0.608000000000000429,-1.072141939115869080
0.609000000000000430,-1.067648043588718121
0.610000000000000431,-1.063181472479554301
0.611000000000000432,-1.058741896383005088
0.612000000000000433,-1.054328989741746714
0.613000000000000433,-1.049942430849425845
