# Montmorillonite-001-NaCEC87_THEOBROMINE-AC
# h[nm],U(h)[kJ/mol]
0.149999999999999994,141.249470739753860471
0.150999999999999995,138.640942336979691163
0.151999999999999996,136.729319772984183601
0.152999999999999997,134.920809759091866908
0.153999999999999998,133.017677121214944691
0.154999999999999999,131.001115252099197050
0.156000000000000000,128.916489768887885248
0.157000000000000001,126.818082730963098470
0.158000000000000002,124.746814044027502177
0.159000000000000002,122.724976090326634903
0.160000000000000003,120.758721295600068402
0.161000000000000004,118.843207252837288479
0.162000000000000005,116.967820007932161275
0.163000000000000006,115.120358960660581715
0.164000000000000007,113.289871170091259955
0.165000000000000008,111.468226676657337748
0.166000000000000009,109.650695759970631116
0.167000000000000010,107.835828505183826564
0.168000000000000010,106.024910922357889831
0.169000000000000011,104.221218217739490797
0.170000000000000012,102.429226032462082685
0.171000000000000013,100.653885555297819110
0.172000000000000014,98.900023163341174381
0.173000000000000015,97.171890860559159364
0.174000000000000016,95.472869588142145858
0.175000000000000017,93.805311922025367721
0.176000000000000018,92.170501931505114612
0.177000000000000018,90.568706287879535921
0.178000000000000019,88.999290543687678223
0.179000000000000020,87.460876592811331420
0.180000000000000021,85.951520695094998814
0.181000000000000022,84.468895389239918359
0.182000000000000023,83.010462625125242653
0.183000000000000024,81.573629196694668053
0.184000000000000025,80.155878858673531795
0.185000000000000026,78.754878273083789963
0.186000000000000026,77.368556132721749918
0.187000000000000027,75.995156472461701469
0.188000000000000028,74.633268357557568606
0.189000000000000029,73.281834897946936280
0.190000000000000030,71.940144951158799813
0.191000000000000031,70.607811014930803140
0.192000000000000032,69.284736740036507285
0.193000000000000033,67.971077272586711615
0.194000000000000034,66.667195313135408696
0.195000000000000034,65.373615398483224226
0.196000000000000035,64.090978503973786928
0.197000000000000036,62.819998654568507845
0.198000000000000037,61.561422840631017550
0.199000000000000038,60.315995172041844796
0.200000000000000039,59.084425880202729786
0.201000000000000040,57.867365496105250600
0.202000000000000041,56.665384295436581397
0.203000000000000042,55.478956907974385615
0.204000000000000042,54.308451836001324864
0.205000000000000043,53.154125511798682169
0.206000000000000044,52.016120443453999656
0.207000000000000045,50.894466946920168482
0.208000000000000046,49.789087936091377173
0.209000000000000047,48.699806237335117487
0.210000000000000048,47.626353906400012761
0.211000000000000049,46.568383050201376250
0.212000000000000050,45.525477690345660164
0.213000000000000050,44.497166246477931395
0.214000000000000051,43.482934263113911300
0.215000000000000052,42.482237051442645281
0.216000000000000053,41.494511965920821694
0.217000000000000054,40.519190082933135955
0.218000000000000055,39.555707094282055891
0.219000000000000056,38.603513270985502004
0.220000000000000057,37.662082392226452043
0.221000000000000058,36.730919569949207926
0.222000000000000058,35.809567931322007439
0.223000000000000059,34.897614149030800945
0.224000000000000060,33.994692833173395741
0.225000000000000061,33.100489818526476427
0.226000000000000062,32.214744397356483319
0.227000000000000063,31.337250560986252168
0.228000000000000064,30.467857323291461569
0.229000000000000065,29.606468206476286298
0.230000000000000066,28.753039974175408133
0.231000000000000066,27.907580699445908579
0.232000000000000067,27.070147255847917478
0.233000000000000068,26.240842318844403991
0.234000000000000069,25.419810962447243696
0.235000000000000070,24.607236932641704641
0.236000000000000071,23.803338674863546487
0.237000000000000072,23.008365187881281599
0.238000000000000073,22.222591771037166097
0.239000000000000073,21.446315726083486908
0.240000000000000074,20.679852068951809940
0.241000000000000075,19.923529300839572187
0.242000000000000076,19.177685282085619178
0.243000000000000077,18.442663246522464249
0.244000000000000078,17.718807988406972243
0.245000000000000079,17.006462248695953576
0.246000000000000080,16.305963322394852355
0.247000000000000081,15.617639903992166950
0.248000000000000081,14.941809183626210356
0.249000000000000082,14.278774202623726097
0.250000000000000111,13.628821473407677800
0.251000000000000112,12.992218865494630009
0.252000000000000113,12.369213756382706038
0.253000000000000114,11.760031443562573017
0.254000000000000115,11.164873811647508361
0.255000000000000115,10.583918246703994726
0.256000000000000116,10.017316788248791681
0.257000000000000117,9.465195508045477268
0.258000000000000118,8.927654103761742732
0.259000000000000119,8.404765694717442059
0.260000000000000120,7.896576806341019328
0.261000000000000121,7.403107529540183585
0.262000000000000122,6.924351840957872817
0.263000000000000123,6.460278070010640583
0.264000000000000123,6.010829498671640181
0.265000000000000124,5.575925080149332302
0.266000000000000125,5.155460262907046953
0.267000000000000126,4.749307906853259098
0.268000000000000127,4.357319278991893086
0.269000000000000128,3.979325116344495594
0.270000000000000129,3.615136744527703172
0.271000000000000130,3.264547240979033482
0.272000000000000131,2.927332632463000905
0.273000000000000131,2.603253117146415718
0.274000000000000132,2.292054302200284610
0.275000000000000133,1.993468448557627948
0.276000000000000134,1.707215715125568023
0.277000000000000135,1.433005395412040972
0.278000000000000136,1.170537140174874979
0.279000000000000137,0.919502160333102281
0.280000000000000138,0.679584404991724567
0.281000000000000139,0.450461710019036399
0.282000000000000139,0.231806913179497087
0.283000000000000140,0.023288932360999447
0.284000000000000141,-0.175426196055814609
0.285000000000000142,-0.364674321159441706
0.286000000000000143,-0.544792225823785281
0.287000000000000144,-0.716116720981431865
0.288000000000000145,-0.878983787066317523
0.289000000000000146,-1.033727763475788652
0.290000000000000147,-1.180680586570112434
0.291000000000000147,-1.320171076421908785
0.292000000000000148,-1.452524272251100701
0.293000000000000149,-1.578060816228996632
0.294000000000000150,-1.697096385109588823
0.295000000000000151,-1.809941168943889789
0.296000000000000152,-1.916899395954231977
0.297000000000000153,-2.018268902488273842
0.298000000000000154,-2.114340746835686957
0.299000000000000155,-2.205398865573234168
0.300000000000000155,-2.291719771004651740
0.301000000000000156,-2.373572288179195411
0.302000000000000157,-2.451217329906155040
0.303000000000000158,-2.524907708130263995
0.304000000000000159,-2.594887979994007665
0.305000000000000160,-2.661394326886131090
0.306000000000000161,-2.724654464760194905
0.307000000000000162,-2.784887584001743299
0.308000000000000163,-2.842304317126201685
0.309000000000000163,-2.897106732602018120
0.310000000000000164,-2.949488353112818650
0.311000000000000165,-2.999634196598340630
0.312000000000000166,-3.047720838445763913
0.313000000000000167,-3.093916493239702525
0.314000000000000168,-3.138381114520250481
0.315000000000000169,-3.181266511043316481
0.316000000000000170,-3.222716478085462022
0.317000000000000171,-3.262866942385715952
0.318000000000000171,-3.301846119369572286
0.319000000000000172,-3.339774681354413133
0.320000000000000173,-3.376765935490934289
0.321000000000000174,-3.412926010251015718
0.322000000000000175,-3.448354049329316773
0.323000000000000176,-3.483142411882094169
0.324000000000000177,-3.517376878083478431
0.325000000000000178,-3.551136859035165738
0.326000000000000179,-3.584495610121096298
0.327000000000000179,-3.617520446952919855
0.328000000000000180,-3.650272963105615442
0.329000000000000181,-3.682809248894999055
0.330000000000000182,-3.715180110499503030
0.331000000000000183,-3.747431288778597214
0.332000000000000184,-3.779603677187744815
0.333000000000000185,-3.811733538236592889
0.334000000000000186,-3.843852717981694589
0.335000000000000187,-3.875988858088120992
0.336000000000000187,-3.908165605035887502
0.337000000000000188,-3.940402816086262305
0.338000000000000189,-3.972716761661456708
0.339000000000000190,-4.005120323826796280
0.340000000000000191,-4.037623190598893075
0.341000000000000192,-4.070232045836166712
0.342000000000000193,-4.102950754498468022
0.343000000000000194,-4.135780543092242745
0.344000000000000195,-4.168720175144531304
0.345000000000000195,-4.201766121575682966
0.346000000000000196,-4.234912725864304228
0.347000000000000197,-4.268152363921116077
0.348000000000000198,-4.301475598609437512
0.349000000000000199,-4.334871328869861706
0.350000000000000200,-4.368326933425126235
0.351000000000000201,-4.401828409058139435
0.352000000000000202,-4.435360503471864391
0.353000000000000203,-4.468906842754448050
0.354000000000000203,-4.502450053486055204
0.355000000000000204,-4.535971879536154105
0.356000000000000205,-4.569453293611101863
0.357000000000000206,-4.602874603622014504
0.358000000000000207,-4.636215553951670287
0.359000000000000208,-4.669455421707709775
0.360000000000000209,-4.702573108056498974
0.361000000000000210,-4.735547224738280825
0.362000000000000210,-4.768356175870224867
0.363000000000000211,-4.800978235148546602
0.364000000000000212,-4.833391618565316961
0.365000000000000213,-4.865574552758955562
0.366000000000000214,-4.897505339120471035
0.367000000000000215,-4.929162413779744512
0.368000000000000216,-4.960524403598236987
0.369000000000000217,-4.991570178295440030
0.370000000000000218,-5.022278898837755357
0.371000000000000218,-5.052630062218490536
0.372000000000000219,-5.082603542758119985
0.373000000000000220,-5.112179630053419466
0.374000000000000221,-5.141339063703565415
0.375000000000000222,-5.170063064940267239
0.376000000000000223,-5.198333365288070773
0.377000000000000224,-5.226132232379166354
0.378000000000000225,-5.253442493045656470
0.379000000000000226,-5.280247553810156091
0.380000000000000226,-5.306531418893845498
0.381000000000000227,-5.332278705858414902
0.382000000000000228,-5.357474658996531858
0.383000000000000229,-5.382105160582561609
0.384000000000000230,-5.406156740092853852
0.385000000000000231,-5.429616581502373585
0.386000000000000232,-5.452472528761360238
0.387000000000000233,-5.474713089553308265
0.388000000000000234,-5.496327437432273477
0.389000000000000234,-5.517305412435065115
0.390000000000000235,-5.537637520260504154
0.391000000000000236,-5.557314930105378359
0.392000000000000237,-5.576329471243466784
0.393000000000000238,-5.594673628431341861
0.394000000000000239,-5.612340536221427811
0.395000000000000240,-5.629323972260118936
0.396000000000000241,-5.645618349645730838
0.397000000000000242,-5.661218708418185308
0.398000000000000242,-5.676120706249598413
0.399000000000000243,-5.690320608401934876
0.400000000000000244,-5.703815277015412022
0.401000000000000245,-5.716602159788395809
0.402000000000000246,-5.728679278106928230
0.403000000000000247,-5.740045214679548202
0.404000000000000248,-5.750699100730305879
0.405000000000000249,-5.760640602800579657
0.406000000000000250,-5.769869909207676173
0.407000000000000250,-5.778387716206038860
0.408000000000000251,-5.786195213894359313
0.409000000000000252,-5.793294071909818932
0.410000000000000253,-5.799686424948406582
0.411000000000000254,-5.805374858148149464
0.412000000000000255,-5.810362392370073792
0.413000000000000256,-5.814652469409773872
0.414000000000000257,-5.818248937170318769
0.415000000000000258,-5.821156034825759384
0.416000000000000258,-5.823378378002264100
0.417000000000000259,-5.824920944002572654
0.418000000000000260,-5.825789057097482626
0.419000000000000261,-5.825988373906733742
0.420000000000000262,-5.825524868889897512
0.421000000000000263,-5.824404819966604308
0.422000000000000264,-5.822634794283791493
0.423000000000000265,-5.820221634146482081
0.424000000000000266,-5.817172443127338610
0.425000000000000266,-5.813494572368613333
0.426000000000000267,-5.809195607089486124
0.427000000000000268,-5.804283353310162319
0.428000000000000269,-5.798765824803236768
0.429000000000000270,-5.792651230281822272
0.430000000000000271,-5.785947960832777959
0.431000000000000272,-5.778664577602658170
0.432000000000000273,-5.770809799742889545
0.433000000000000274,-5.762392492620024953
0.434000000000000274,-5.753421656295992115
0.435000000000000275,-5.743906414282535344
0.436000000000000276,-5.733856002573388899
0.437000000000000277,-5.723279758956898000
0.438000000000000278,-5.712187112611326611
0.439000000000000279,-5.700587573984385870
0.440000000000000280,-5.688490724957948608
0.441000000000000281,-5.675906209298437588
0.442000000000000282,-5.662843723392868789
0.443000000000000282,-5.649313007269928910
0.444000000000000283,-5.635323835905297507
0.445000000000000284,-5.620886010809718947
0.446000000000000285,-5.606009351898107340
0.447000000000000286,-5.590703689637727791
0.448000000000000287,-5.574978857472774330
0.449000000000000288,-5.558844684522921575
0.450000000000000289,-5.542310988552579865
0.451000000000000290,-5.525387569207760308
0.452000000000000290,-5.508084201517033485
0.453000000000000291,-5.490410629652785701
0.454000000000000292,-5.472376560948978508
0.455000000000000293,-5.453991660171253031
0.456000000000000294,-5.435265544035184249
0.457000000000000295,-5.416207775968291394
0.458000000000000296,-5.396827861111275659
0.459000000000000297,-5.377135241553926193
0.460000000000000298,-5.357139291800893766
0.461000000000000298,-5.336849314462641658
0.462000000000000299,-5.316274536166628373
0.463000000000000300,-5.295424103683800787
0.464000000000000301,-5.274307080265496772
0.465000000000000302,-5.252932442185686668
0.466000000000000303,-5.231309075483531856
0.467000000000000304,-5.209445772901251104
0.468000000000000305,-5.187351231012207187
0.469000000000000306,-5.165034047534134309
0.470000000000000306,-5.142502718822607122
0.471000000000000307,-5.119765637539479997
0.472000000000000308,-5.096831090491537708
0.473000000000000309,-5.073707256634246932
0.474000000000000310,-5.050402205235701381
0.475000000000000311,-5.026923894195848952
0.476000000000000312,-5.003280168516224258
0.477000000000000313,-4.979478758915281134
0.478000000000000314,-4.955527280584626659
0.479000000000000314,-4.931433232081527507
0.480000000000000315,-4.907203994352935084
0.481000000000000316,-4.882846829886617002
0.482000000000000317,-4.858368881984778120
0.483000000000000318,-4.833777174155832412
0.484000000000000319,-4.809078609619942490
0.485000000000000320,-4.784279970924073311
0.486000000000000321,-4.759387919662370514
0.487000000000000322,-4.734408996297719163
0.488000000000000322,-4.709349620080433674
0.489000000000000323,-4.684216089060244670
0.490000000000000324,-4.659014580187557542
0.491000000000000325,-4.633751149500275446
0.492000000000000326,-4.608431732392463509
0.493000000000000327,-4.583062143961272206
0.494000000000000328,-4.557648079428491705
0.495000000000000329,-4.532195114633422506
0.496000000000000330,-4.506708706593513192
0.497000000000000330,-4.481194194129707320
0.498000000000000331,-4.455656798553055964
0.499000000000000332,-4.430101624409692462
0.500000000000000333,-4.404533660281038543
0.501000000000000334,-4.378957779636238001
0.502000000000000335,-4.353378741734081459
0.503000000000000336,-4.327801192571540057
0.504000000000000337,-4.302229665876258657
0.505000000000000338,-4.276668584140306706
0.506000000000000338,-4.251122259692744265
0.507000000000000339,-4.225594895808446161
0.508000000000000340,-4.200090587850800361
0.509000000000000341,-4.174613324446069917
0.510000000000000342,-4.149166988687000845
0.511000000000000343,-4.123755359363657114
0.512000000000000344,-4.098382112219285389
0.513000000000000345,-4.073050821229243112
0.514000000000000346,-4.047764959901039461
0.515000000000000346,-4.022527902593520999
0.516000000000000347,-3.997342925853443862
0.517000000000000348,-3.972213209767731179
0.518000000000000349,-3.947141839329540325
0.519000000000000350,-3.922131805816746919
0.520000000000000351,-3.897186008181060313
0.521000000000000352,-3.872307254446448521
0.522000000000000353,-3.847498263115272543
0.523000000000000353,-3.822761664580818231
0.524000000000000354,-3.798100002544932519
0.525000000000000355,-3.773515735439349150
0.526000000000000356,-3.749011237849606992
0.527000000000000357,-3.724588801940350358
0.528000000000000358,-3.700250638880822063
0.529000000000000359,-3.675998880269607305
0.530000000000000360,-3.651835579557453748
0.531000000000000361,-3.627762713467311606
0.532000000000000361,-3.603782183410588313
0.533000000000000362,-3.579895816898766014
0.534000000000000363,-3.556105368949516787
0.535000000000000364,-3.532412523486525568
0.536000000000000365,-3.508818894732239180
0.537000000000000366,-3.485326028592868219
0.538000000000000367,-3.461935404034838459
0.539000000000000368,-3.438648434452249880
0.540000000000000369,-3.415466469024477814
0.541000000000000369,-3.392390794063576465
0.542000000000000370,-3.369422634350755175
0.543000000000000371,-3.346563154461538403
0.544000000000000372,-3.323813460079077409
0.545000000000000373,-3.301174599295182421
0.546000000000000374,-3.278647563898631212
0.547000000000000375,-3.256233290650386358
0.548000000000000376,-3.233932662545370817
0.549000000000000377,-3.211746510060440762
0.550000000000000377,-3.189675612388238157
0.551000000000000378,-3.167720698656649070
0.552000000000000379,-3.145882449133644787
0.553000000000000380,-3.124161496417186434
0.554000000000000381,-3.102558426610014575
0.555000000000000382,-3.081073780479192781
0.556000000000000383,-3.059708054600066340
0.557000000000000384,-3.038461702484690719
0.558000000000000385,-3.017335135694383830
0.559000000000000385,-2.996328724936445642
0.560000000000000386,-2.975442801144851934
0.561000000000000387,-2.954677656544876463
0.562000000000000388,-2.934033545701516310
0.563000000000000389,-2.913510686551787909
0.564000000000000390,-2.893109261420690803
0.565000000000000391,-2.872829418020943937
0.566000000000000392,-2.852671270436414996
0.567000000000000393,-2.832634900089293417
0.568000000000000393,-2.812720356690937340
0.569000000000000394,-2.792927659176501098
0.570000000000000395,-2.773256796623361886
0.571000000000000396,-2.753707729153320294
0.572000000000000397,-2.734280388818750573
0.573000000000000398,-2.714974680472644675
0.574000000000000399,-2.695790482622723694
0.575000000000000400,-2.676727648269603410
0.576000000000000401,-2.657786005729185774
0.577000000000000401,-2.638965359439370495
0.578000000000000402,-2.620265490751085835
0.579000000000000403,-2.601686158703882867
0.580000000000000404,-2.583227100786169128
0.581000000000000405,-2.564888033680130963
0.582000000000000406,-2.546668653991606579
0.583000000000000407,-2.528568638964904913
0.584000000000000408,-2.510587647182839000
0.585000000000000409,-2.492725319252014238
0.586000000000000409,-2.474981278473576740
0.587000000000000410,-2.457355131499580292
0.588000000000000411,-2.439846468975058080
0.589000000000000412,-2.422454866166080301
0.590000000000000413,-2.405179883573810962
0.591000000000000414,-2.388021067534853437
0.592000000000000415,-2.370977950808019763
0.593000000000000416,-2.354050053147616062
0.594000000000000417,-2.337236881863521631
0.595000000000000417,-2.320537932368236689
0.596000000000000418,-2.303952688710906305
0.597000000000000419,-2.287480624098770399
0.598000000000000420,-2.271121201405950085
0.599000000000000421,-2.254873873669942963
0.600000000000000422,-2.238738084575902398
0.601000000000000423,-2.222713268928907304
0.602000000000000424,-2.206798853114444459
0.603000000000000425,-2.190994255547211722
0.604000000000000425,-2.175298887108480184
0.605000000000000426,-2.159712151572167560
0.606000000000000427,-2.144233446019871536
0.607000000000000428,-2.128862161244862161
0.608000000000000429,-2.113597682145520462
0.609000000000000430,-2.098439388108040760
0.610000000000000431,-2.083386653378919373
0.611000000000000432,-2.068438847427150229
0.612000000000000433,-2.053595335296436453
