# Montmorillonite-001-NaCEC87_TANNIC-ARM-ANION-AC
# h[nm],U(h)[kJ/mol]
0.149999999999999994,120.081221378499506613
0.150999999999999995,117.353185904216019253
0.151999999999999996,115.930132182053057477
0.152999999999999997,114.829025784743492977
0.153999999999999998,113.663025494089495737
0.154999999999999999,112.337451549668841722
0.156000000000000000,110.880937879404882551
0.157000000000000001,109.357853524803587675
0.158000000000000002,107.827806066818453701
0.159000000000000002,106.331024239563546985
0.160000000000000003,104.886842661342370775
0.161000000000000004,103.497884687082319033
0.162000000000000005,102.155891182510259796
0.163000000000000006,100.847174548800765592
0.164000000000000007,99.556860813583256231
0.165000000000000008,98.271732804987095733
0.166000000000000009,96.981811468584425029
0.167000000000000010,95.680944448292720494
0.168000000000000010,94.366696339088733225
0.169000000000000011,93.039806256115667793
0.170000000000000012,91.703427037316203041
0.171000000000000013,90.362304354580629706
0.172000000000000014,89.022002549359328327
0.173000000000000015,87.688241235610490776
0.174000000000000016,86.366373714047099952
0.175000000000000017,85.061014477332463457
0.176000000000000018,83.775807246778128956
0.177000000000000018,82.513315498560501737
0.178000000000000019,81.275012769856559203
0.179000000000000020,80.061348812983737844
0.180000000000000021,78.871868749970602153
0.181000000000000022,77.705364872046644109
0.182000000000000023,76.560043950984820071
0.183000000000000024,75.433696395544501456
0.184000000000000025,74.323856966147047842
0.185000000000000026,73.227949846683117130
0.186000000000000026,72.143413548856955231
0.187000000000000027,71.067803343653565662
0.188000000000000028,69.998870674692710736
0.189000000000000029,68.934620337875770701
0.190000000000000030,67.873347157112689843
0.191000000000000031,66.813654502114914635
0.192000000000000032,65.754457338726211901
0.193000000000000033,64.694972630658895696
0.194000000000000034,63.634699874899204985
0.195000000000000034,62.573394396513378979
0.196000000000000035,61.511035790568030279
0.197000000000000036,60.447793611136297898
0.198000000000000037,59.383992095335180750
0.199000000000000038,58.320075393719491785
0.200000000000000039,57.256574471802380799
0.201000000000000040,56.194076561331051778
0.202000000000000041,55.133197781009677385
0.203000000000000042,54.074559318538618413
0.204000000000000042,53.018767370771321623
0.205000000000000043,51.966396876405056560
0.206000000000000044,50.917978944581221867
0.207000000000000045,49.873991780870980506
0.208000000000000046,48.834854836598552197
0.209000000000000047,47.800925855235561812
0.210000000000000048,46.772500457504847304
0.211000000000000049,45.749813891712037162
0.212000000000000050,44.733044574667339077
0.213000000000000050,43.722319058575848771
0.214000000000000051,42.717718077918000574
0.215000000000000052,41.719283355360445853
0.216000000000000053,40.727024875162378237
0.217000000000000054,39.740928364693878905
0.218000000000000055,38.760962758154377639
0.219000000000000056,37.787087450220248286
0.220000000000000057,36.819259180236663553
0.221000000000000058,35.857438418997652718
0.222000000000000058,34.901595159587373018
0.223000000000000059,33.951714040828548491
0.224000000000000060,33.007798756351874658
0.225000000000000061,32.069875724044990761
0.226000000000000062,31.137997009625962619
0.227000000000000063,30.212242514353921052
0.228000000000000064,29.292721450538095951
0.229000000000000065,28.379573139672867654
0.230000000000000066,27.472967176886744056
0.231000000000000066,26.573103012134208001
0.232000000000000067,25.680209003389354194
0.233000000000000068,24.794541000223951244
0.234000000000000069,23.916380517780631010
0.235000000000000070,23.046032561484334877
0.236000000000000071,22.183823162067607626
0.237000000000000072,21.330096678797204390
0.238000000000000073,20.485212926352691198
0.239000000000000073,19.649544177777251264
0.240000000000000074,18.823472092432414371
0.241000000000000075,18.007384614075924389
0.242000000000000076,17.201672880148301203
0.243000000000000077,16.406728179200150919
0.244000000000000078,15.622938989202051374
0.245000000000000079,14.850688125320283817
0.246000000000000080,14.090350021678187176
0.247000000000000081,13.342288167696915835
0.248000000000000081,12.606852715865683123
0.249000000000000082,11.884378274255706032
0.250000000000000111,11.175181893787595300
0.251000000000000112,10.479561257204441205
0.252000000000000113,9.797793073899718763
0.253000000000000114,9.130131682208354249
0.254000000000000115,8.476807858484876945
0.255000000000000115,7.838027830266513618
0.256000000000000116,7.213972489039764291
0.257000000000000117,6.604796796589972985
0.258000000000000118,6.010629377602733747
0.259000000000000119,5.431572290090048050
0.260000000000000120,4.867700964320057722
0.261000000000000121,4.319064300223419473
0.262000000000000122,3.785684912714870620
0.263000000000000123,3.267559513993330000
0.264000000000000123,2.764659421650247140
0.265000000000000124,2.276931181312109143
0.266000000000000125,1.804297292552976772
0.267000000000000126,1.346657026924450218
0.268000000000000127,0.903887327149285880
0.269000000000000128,0.475843776801212759
0.270000000000000129,0.062361630133136538
0.271000000000000130,-0.336743107890273841
0.272000000000000131,-0.721672560860708301
0.273000000000000131,-1.092645828527384344
0.274000000000000132,-1.449897811263097358
0.275000000000000133,-1.793678019407497048
0.276000000000000134,-2.124249374968110615
0.277000000000000135,-2.441887012620040931
0.278000000000000136,-2.746877086406209756
0.279000000000000137,-3.039515588002959845
0.280000000000000138,-3.320107181886628123
0.281000000000000139,-3.588964062219237583
0.282000000000000139,-3.846404835767055719
0.283000000000000140,-4.092753434678716218
0.284000000000000141,-4.328338062480616699
0.285000000000000142,-4.553490176199026074
0.286000000000000143,-4.768543507091303368
0.287000000000000144,-4.973833122064059253
0.288000000000000145,-5.169694527475317436
0.289000000000000146,-5.356462816659152359
0.290000000000000147,-5.534471862178151902
0.291000000000000147,-5.704053553497698381
0.292000000000000148,-5.865537080489827915
0.293000000000000149,-6.019248262909514757
0.294000000000000150,-6.165508925745140978
0.295000000000000151,-6.304636320124872739
0.296000000000000152,-6.436942589261763992
0.297000000000000153,-6.562734278742093252
0.298000000000000154,-6.682311890302223389
0.299000000000000155,-6.795969478098752070
0.300000000000000155,-6.903994286353603016
0.301000000000000156,-7.006666427149215615
0.302000000000000157,-7.104258597058422886
0.303000000000000158,-7.197035831217045931
0.304000000000000159,-7.285255293385207942
0.305000000000000160,-7.369166100493119487
0.306000000000000161,-7.449009180129595009
0.307000000000000162,-7.525017159404337797
0.308000000000000163,-7.597414283597774265
0.309000000000000163,-7.666416363004623591
0.310000000000000164,-7.732230746377671160
0.311000000000000165,-7.795056319386032939
0.312000000000000166,-7.855083526517191217
0.313000000000000167,-7.912494414872709214
0.314000000000000168,-7.967462698333683591
0.315000000000000169,-8.020153840603139628
0.316000000000000170,-8.070725155667615169
0.317000000000000171,-8.119325924258697924
0.318000000000000171,-8.166097524937274699
0.319000000000000172,-8.211173578467548140
0.320000000000000173,-8.254680104194259016
0.321000000000000174,-8.296735687184717989
0.322000000000000175,-8.337451654946811175
0.323000000000000176,-8.376932262584519506
0.324000000000000177,-8.415274885303585251
0.325000000000000178,-8.452570217231228256
0.326000000000000179,-8.488902475565559769
0.327000000000000179,-8.524349609121369298
0.328000000000000180,-8.558983510389882809
0.329000000000000181,-8.592870230280732713
0.330000000000000182,-8.626070194763332921
0.331000000000000183,-8.658638422674217239
0.332000000000000184,-8.690624744003862645
0.333000000000000185,-8.722074018023391773
0.334000000000000186,-8.753026350656524457
0.335000000000000187,-8.783517310546109513
0.336000000000000187,-8.813578143307069013
0.337000000000000188,-8.843235983498288988
0.338000000000000189,-8.872514063885926561
0.339000000000000190,-8.901431921608288889
0.340000000000000191,-8.930005600888719641
0.341000000000000192,-8.958247851978226706
0.342000000000000193,-8.986168326042264454
0.343000000000000194,-9.013773765738431365
0.344000000000000195,-9.041068191261160791
0.345000000000000195,-9.068053081659096293
0.346000000000000196,-9.094727551256852394
0.347000000000000197,-9.121088521039332875
0.348000000000000198,-9.147130884880237289
0.349000000000000199,-9.172847670519479024
0.350000000000000200,-9.198230195215280958
0.351000000000000201,-9.223268216016721865
0.352000000000000202,-9.247950074621014593
0.353000000000000203,-9.272262836797263930
0.354000000000000203,-9.296192426374423334
0.355000000000000204,-9.319723753805966737
0.356000000000000205,-9.342840839337799963
0.357000000000000206,-9.365526930818408147
0.358000000000000207,-9.387764616201762280
0.359000000000000208,-9.409535930804336701
0.360000000000000209,-9.430822459387012913
0.361000000000000210,-9.451605433141462953
0.362000000000000210,-9.471865821668412622
0.363000000000000211,-9.491584420042183723
0.364000000000000212,-9.510741931062312915
0.365000000000000213,-9.529319042798185535
0.366000000000000214,-9.547296501537900326
0.367000000000000215,-9.564655180256185218
0.368000000000000216,-9.581376142720285927
0.369000000000000217,-9.597440703355051284
0.370000000000000218,-9.612830482991432390
0.371000000000000218,-9.627527460623982236
0.372000000000000219,-9.641514021304697479
0.373000000000000220,-9.654773000301400288
0.374000000000000221,-9.667287723649319986
0.375000000000000222,-9.679042045224710122
0.376000000000000223,-9.690020380469432482
0.377000000000000224,-9.700207736894498112
0.378000000000000225,-9.709589741490066928
0.379000000000000226,-9.718152665168217297
0.380000000000000226,-9.725883444363574881
0.381000000000000227,-9.732769699915021278
0.382000000000000228,-9.738799753350523503
0.383000000000000229,-9.743962640694556754
0.384000000000000230,-9.748248123915924879
0.385000000000000231,-9.751646700131454182
0.386000000000000232,-9.754149608678460481
0.387000000000000233,-9.755748836166720395
0.388000000000000234,-9.756437119617746845
0.389000000000000234,-9.756207947796943003
0.390000000000000235,-9.755055560840919071
0.391000000000000236,-9.752974948280044742
0.392000000000000237,-9.749961845552984840
0.393000000000000238,-9.746012729107494721
0.394000000000000239,-9.741124810178485305
0.395000000000000240,-9.735296027331791890
0.396000000000000241,-9.728525037859013125
0.397000000000000242,-9.720811208105715195
0.398000000000000242,-9.712154602812837823
0.399000000000000243,-9.702555973547683621
0.400000000000000244,-9.692016746298481422
0.401000000000000245,-9.680539008303453485
0.402000000000000246,-9.668125494182453039
0.403000000000000247,-9.654779571436648666
0.404000000000000248,-9.640505225378877441
0.405000000000000249,-9.625307043554673925
0.406000000000000250,-9.609190199711196811
0.407000000000000250,-9.592160437368955073
0.408000000000000251,-9.574224053048450145
0.409000000000000252,-9.555387879201491685
0.410000000000000253,-9.535659266894523256
0.411000000000000254,-9.515046068288937064
0.412000000000000255,-9.493556618960955262
0.413000000000000256,-9.471199720101640906
0.414000000000000257,-9.447984620635109465
0.415000000000000258,-9.423920999291258482
0.416000000000000258,-9.399018946666927832
0.417000000000000259,-9.373288947307699459
0.418000000000000260,-9.346741861840472509
0.419000000000000261,-9.319388909185098768
0.420000000000000262,-9.291241648871610082
0.421000000000000263,-9.262311963487844579
0.422000000000000264,-9.232612041280507498
0.423000000000000265,-9.202154358931167621
0.424000000000000266,-9.170951664527231983
0.425000000000000266,-9.139016960746175755
0.426000000000000267,-9.106363488270160289
0.427000000000000268,-9.073004709446657046
0.428000000000000269,-9.038954292209300689
0.429000000000000270,-9.004226094272235414
0.430000000000000271,-8.968834147609475949
0.431000000000000272,-8.932792643230349938
0.432000000000000273,-8.896115916260260548
0.433000000000000274,-8.858818431335556909
0.434000000000000274,-8.820914768319878974
0.435000000000000275,-8.782419608348629225
0.436000000000000276,-8.743347720207241380
0.437000000000000277,-8.703713947047949873
0.438000000000000278,-8.663533193449181269
0.439000000000000279,-8.622820412820706437
0.440000000000000280,-8.581590595156963985
0.441000000000000281,-8.539858755140439683
0.442000000000000282,-8.497639920596231633
0.443000000000000282,-8.454949121298124481
0.444000000000000283,-8.411801378126384066
0.445000000000000284,-8.368211692576389638
0.446000000000000285,-8.324195036617094701
0.447000000000000286,-8.279766342897762144
0.448000000000000287,-8.234940495300712371
0.449000000000000288,-8.189732319837862207
0.450000000000000289,-8.144156575887956606
0.451000000000000290,-8.098227947771354351
0.452000000000000290,-8.051961036658926929
0.453000000000000291,-8.005370352810890822
0.454000000000000292,-7.958470308141772698
0.455000000000000293,-7.911275209106774398
0.456000000000000294,-7.863799249905096822
0.457000000000000295,-7.816056505995237380
0.458000000000000296,-7.768060927917176173
0.459000000000000297,-7.719826335416303031
0.460000000000000298,-7.671366411863509427
0.461000000000000298,-7.622694698966067328
0.462000000000000299,-7.573824591763491654
0.463000000000000300,-7.524769333902618484
0.464000000000000301,-7.475542013186067258
0.465000000000000302,-7.426155557388118389
0.466000000000000303,-7.376622730331898303
0.467000000000000304,-7.326956128221891795
0.468000000000000305,-7.277168176225616847
0.469000000000000306,-7.227271125298287302
0.470000000000000306,-7.177277049244399798
0.471000000000000307,-7.127197842009873163
0.472000000000000308,-7.077045215198809913
0.473000000000000309,-7.026830695808492067
0.474000000000000310,-6.976565624176619629
0.475000000000000311,-6.926261152134540744
0.476000000000000312,-6.875928241360581339
0.477000000000000313,-6.825577661927169970
0.478000000000000314,-6.775219991035953626
0.479000000000000314,-6.724865611934918164
0.480000000000000315,-6.674524713011534161
0.481000000000000316,-6.624207287056252724
0.482000000000000317,-6.573923130690440431
0.483000000000000318,-6.523681843953188952
0.484000000000000319,-6.473492830041297275
0.485000000000000320,-6.423365295196982849
0.486000000000000321,-6.373308248737822979
0.487000000000000322,-6.323330503223568044
0.488000000000000322,-6.273440674754509061
0.489000000000000323,-6.223647183396396443
0.490000000000000324,-6.173958253726573808
0.491000000000000325,-6.124381915496528883
0.492000000000000326,-6.074926004405815760
0.493000000000000327,-6.025598162982705119
0.494000000000000328,-5.976405841566689858
0.495000000000000329,-5.927356299388393701
0.496000000000000330,-5.878456605742246488
0.497000000000000330,-5.829713641247677103
0.498000000000000331,-5.781134099194291665
0.499000000000000332,-5.732724486967136102
0.500000000000000333,-5.684491127547697253
0.501000000000000334,-5.636440161086722078
0.502000000000000335,-5.588577546544987840
0.503000000000000336,-5.540909063398220091
0.504000000000000337,-5.493440313402419228
0.505000000000000338,-5.446176722416019800
0.506000000000000338,-5.399123542275401810
0.507000000000000339,-5.352285852720318537
0.508000000000000340,-5.305668563365920853
0.509000000000000341,-5.259276415718288078
0.510000000000000342,-5.213113985230157787
0.511000000000000343,-5.167185683394007079
0.512000000000000344,-5.121495759869428177
0.513000000000000345,-5.076048304642060138
0.514000000000000346,-5.030847250211290422
0.515000000000000346,-4.985896373804036941
0.516000000000000347,-4.941199299612058837
0.517000000000000348,-4.896759501050403252
0.518000000000000349,-4.852580303034377707
0.519000000000000350,-4.808664884272981332
0.520000000000000351,-4.765016279576332003
0.521000000000000352,-4.721637382175134512
0.522000000000000353,-4.678530946049948902
0.523000000000000353,-4.635699588268322735
0.524000000000000354,-4.593145791327950533
0.525000000000000355,-4.550871905503820258
0.526000000000000356,-4.508880151197732111
0.527000000000000357,-4.467172621288454160
0.528000000000000358,-4.425751283480744647
0.529000000000000359,-4.384617982651919377
0.530000000000000360,-4.343774443194166501
0.531000000000000361,-4.303222271351436312
0.532000000000000361,-4.262962957549332188
0.533000000000000362,-4.222997878716803655
0.534000000000000363,-4.183328300598337712
0.535000000000000364,-4.143955380055454718
0.536000000000000365,-4.104880167356373732
0.537000000000000366,-4.066103608452792173
0.538000000000000367,-4.027626547242634913
0.539000000000000368,-3.989449727818013436
0.540000000000000369,-3.951573796697174235
0.541000000000000369,-3.913999305039852494
0.542000000000000370,-3.876726710844972335
0.543000000000000371,-3.839756381130018159
0.544000000000000372,-3.803088594091345698
0.545000000000000373,-3.766723541244702655
0.546000000000000374,-3.730661329545275073
0.547000000000000375,-3.694901983486731378
0.548000000000000376,-3.659445447178643285
0.549000000000000377,-3.624291586401747089
0.550000000000000377,-3.589440190640554196
0.551000000000000378,-3.554890975092865002
0.552000000000000379,-3.520643582655770043
0.553000000000000380,-3.486697585887715611
0.554000000000000381,-3.453052488946265264
0.555000000000000382,-3.419707729501354265
0.556000000000000383,-3.386662680623518717
0.557000000000000384,-3.353916652647078056
0.558000000000000385,-3.321468895007829936
0.559000000000000385,-3.289318598055197107
0.560000000000000386,-3.257464894838531855
0.561000000000000387,-3.225906862867502944
0.562000000000000388,-3.194643525846353249
0.563000000000000389,-3.163673855382003186
0.564000000000000390,-3.132996772665815222
0.565000000000000391,-3.102611150129039430
0.566000000000000392,-3.072515813071828639
0.567000000000000393,-3.042709541265848472
0.568000000000000393,-3.013191070530423676
0.569000000000000394,-2.983959094282245594
0.570000000000000395,-2.955012265058736709
0.571000000000000396,-2.926349196014968790
0.572000000000000397,-2.897968462394371336
0.573000000000000398,-2.869868602973148608
0.574000000000000399,-2.842048121478617073
0.575000000000000400,-2.814505487981463716
0.576000000000000401,-2.787239140262110393
0.577000000000000401,-2.760247485151336111
0.578000000000000402,-2.733528899845185656
0.579000000000000403,-2.707081733194406148
0.580000000000000404,-2.680904306968607820
0.581000000000000405,-2.654994917095181428
0.582000000000000406,-2.629351834873322247
0.583000000000000407,-2.603973308163205935
0.584000000000000408,-2.578857562550619154
0.585000000000000409,-2.554002802487206125
0.586000000000000409,-2.529407212406535432
0.587000000000000410,-2.505068957816255715
0.588000000000000411,-2.480986186366506807
0.589000000000000412,-2.457157028894900730
0.590000000000000413,-2.433579600448206204
0.591000000000000414,-2.410252001281085299
0.592000000000000415,-2.387172317832095381
0.593000000000000416,-2.364338623677161966
0.594000000000000417,-2.341748980460842677
0.595000000000000417,-2.319401438805693605
0.596000000000000418,-2.297294039199793581
0.597000000000000419,-2.275424812863010793
0.598000000000000420,-2.253791782591963333
0.599000000000000421,-2.232392963584204804
0.600000000000000422,-2.211226364241742903
0.601000000000000423,-2.190289986954263579
0.602000000000000424,-2.169581828862297890
0.603000000000000425,-2.149099882600625122
0.604000000000000425,-2.128842137022200376
0.605000000000000426,-2.108806577902865520
0.606000000000000427,-2.088991188627217888
0.607000000000000428,-2.069393950855702435
0.608000000000000429,-2.050012845173569964
0.609000000000000430,-2.030845851721561068
0.610000000000000431,-2.011890950809000156
0.611000000000000432,-1.993146123509291545
0.612000000000000433,-1.974609352238231752
