# TricalciumSilicate001_ASNSCA-AC
# h[nm],U(h)[kJ/mol]
0.200000000000000011,50.448774867579786019
0.201000000000000012,49.220794495795935575
0.202000000000000013,48.249981972712433276
0.203000000000000014,47.394777400810134793
0.204000000000000015,46.573918873508851846
0.205000000000000016,45.745394137663147660
0.206000000000000016,44.891739626035857214
0.207000000000000017,44.009973563275366359
0.208000000000000018,43.104874689829621559
0.209000000000000019,42.184644275187103801
0.210000000000000020,41.258238330248616421
0.211000000000000021,40.333846456547561843
0.212000000000000022,39.418137080274924244
0.213000000000000023,38.515996486225610340
0.214000000000000024,37.630569358118393097
0.215000000000000024,36.763467893194750502
0.216000000000000025,35.915060001450171967
0.217000000000000026,35.084778505740828791
0.218000000000000027,34.271415625350265088
0.219000000000000028,33.473382656381694744
0.220000000000000029,32.688925420517797704
0.221000000000000030,31.916293081122557140
0.222000000000000031,31.153862337525406900
0.223000000000000032,30.400221567301457526
0.224000000000000032,29.654220760747382002
0.225000000000000033,28.914993500944341065
0.226000000000000034,28.181957092696187317
0.227000000000000035,27.454796454175578901
0.228000000000000036,26.733436711584477763
0.229000000000000037,26.018008686601795887
0.230000000000000038,25.308810710296103963
0.231000000000000039,24.606269480983186781
0.232000000000000040,23.910902033983596482
0.233000000000000040,23.223280321981199847
0.234000000000000041,22.543999420231962461
0.235000000000000042,21.873649969735183163
0.236000000000000043,21.212795148369774978
0.237000000000000044,20.561952207440803875
0.238000000000000045,19.921578420531822928
0.239000000000000046,19.292061154201196160
0.240000000000000047,18.673711677304432044
0.241000000000000048,18.066762269555464826
0.242000000000000048,17.471366163083814627
0.243000000000000049,16.887599846772850753
0.244000000000000050,16.315467276515054351
0.245000000000000051,15.754905560456759162
0.246000000000000052,15.205791722892604056
0.247000000000000053,14.667950190474140726
0.248000000000000054,14.141160687231025150
0.249000000000000055,13.625166268533012826
0.250000000000000056,13.119681266993158175
0.251000000000000056,12.624398964278745083
0.252000000000000057,12.138998841047717647
0.253000000000000058,11.663153292231655200
0.254000000000000059,11.196533726332564385
0.255000000000000060,10.738815995159146865
0.256000000000000061,10.289685124502936375
0.257000000000000062,9.848839336755418117
0.258000000000000063,9.415993373576512226
0.259000000000000064,8.990881140678773420
0.260000000000000064,8.573257707857427690
0.261000000000000065,8.162900705861158457
0.262000000000000066,7.759611167851883984
0.263000000000000067,7.363213867334491347
0.264000000000000068,6.973557206826070498
0.265000000000000069,6.590512712442619936
0.266000000000000070,6.213974189255712766
0.267000000000000071,5.843856590935013529
0.268000000000000071,5.480094655050800512
0.269000000000000072,5.122641352643803714
0.270000000000000073,4.771466197439474755
0.271000000000000074,4.426553456530175623
0.272000000000000075,4.087900300591969405
0.273000000000000076,3.755514927846346218
0.274000000000000077,3.429414692105946294
0.275000000000000078,3.109624261429151382
0.276000000000000079,2.796173830207845157
0.277000000000000079,2.489097403969995348
0.278000000000000080,2.188431172830358484
0.279000000000000081,1.894211986390444746
0.280000000000000082,1.606475939992840996
0.281000000000000083,1.325257079582519593
0.282000000000000084,1.050586230025000845
0.283000000000000085,0.782489949576500310
0.284000000000000086,0.520989611289781829
0.285000000000000087,0.266100610465146492
0.286000000000000087,0.017831695806676429
0.287000000000000088,-0.223815579290855993
0.288000000000000089,-0.458847289933117686
0.289000000000000090,-0.687277462852014187
0.290000000000000091,-0.909128295598173986
0.291000000000000092,-1.124430278451755472
0.292000000000000093,-1.333222226079697315
0.293000000000000094,-1.535551226217243936
0.294000000000000095,-1.731472512787443296
0.295000000000000095,-1.921049270908856244
0.296000000000000096,-2.104352381190522259
0.297000000000000097,-2.281460110587741674
0.298000000000000098,-2.452457756902598263
0.299000000000000099,-2.617437253770640737
0.300000000000000100,-2.776496742688645547
0.301000000000000101,-2.929740118317588404
0.302000000000000102,-3.077276552946401456
0.303000000000000103,-3.219220005635032411
0.304000000000000103,-3.355688721173493150
0.305000000000000104,-3.486804723605241296
0.306000000000000105,-3.612693308671516057
0.307000000000000106,-3.733482539143223811
0.308000000000000107,-3.849302746622470295
0.309000000000000108,-3.960286043019404012
0.310000000000000109,-4.066565844545322328
0.311000000000000110,-4.168276410710636704
0.312000000000000111,-4.265552400480245865
0.313000000000000111,-4.358528447417944207
0.314000000000000112,-4.447338755349004025
0.315000000000000113,-4.532116715785214467
0.316000000000000114,-4.612994548090693314
0.317000000000000115,-4.690102963119493928
0.318000000000000116,-4.763570850827726133
0.319000000000000117,-4.833524992153183319
0.320000000000000118,-4.900089795264099379
0.321000000000000119,-4.963387056105386996
0.322000000000000119,-5.023535743014472921
0.323000000000000120,-5.080651805039509306
0.324000000000000121,-5.134848003469492994
0.325000000000000122,-5.186233765977593890
0.326000000000000123,-5.234915062685308484
0.327000000000000124,-5.280994303374932031
0.328000000000000125,-5.324570255010662834
0.329000000000000126,-5.365737978673032593
0.330000000000000127,-5.404588784967115700
0.331000000000000127,-5.441210206930887416
0.332000000000000128,-5.475685989445254087
0.333000000000000129,-5.508096094131376574
0.334000000000000130,-5.538516718712427789
0.335000000000000131,-5.567020329816044999
0.336000000000000132,-5.593675708198653673
0.337000000000000133,-5.618548005384008448
0.338000000000000134,-5.641698810724181889
0.339000000000000135,-5.663186227911600312
0.340000000000000135,-5.683064959995133947
0.341000000000000136,-5.701386401980785834
0.342000000000000137,-5.718198740128004331
0.343000000000000138,-5.733547057085401022
0.344000000000000139,-5.747473442044507941
0.345000000000000140,-5.760017105126370218
0.346000000000000141,-5.771214495253193633
0.347000000000000142,-5.781099420795595911
0.348000000000000143,-5.789703172324733416
0.349000000000000143,-5.797054646837601410
0.350000000000000144,-5.803180472862845107
0.351000000000000145,-5.808105135893187665
0.352000000000000146,-5.811851103629040338
0.353000000000000147,-5.814438950555511632
0.354000000000000148,-5.815887481412223003
0.355000000000000149,-5.816213853151386282
0.356000000000000150,-5.815433695014805338
0.357000000000000151,-5.813561226394550197
0.358000000000000151,-5.810609372174975640
0.359000000000000152,-5.806589875285312452
0.360000000000000153,-5.801513406222687408
0.361000000000000154,-5.795389669334205074
0.362000000000000155,-5.788227505674671036
0.363000000000000156,-5.780034992282756967
0.364000000000000157,-5.770819537743336447
0.365000000000000158,-5.760587973927497885
0.366000000000000159,-5.749346643823677994
0.367000000000000159,-5.737101485394447309
0.368000000000000160,-5.723858111412897465
0.369000000000000161,-5.709621885250767193
0.370000000000000162,-5.694397992607415304
0.371000000000000163,-5.678191509184449259
0.372000000000000164,-5.661007464325130023
0.373000000000000165,-5.642850900651173340
0.374000000000000166,-5.623726929741555303
0.375000000000000167,-5.603640783908989675
0.376000000000000167,-5.582597864139899002
0.377000000000000168,-5.560603784272544203
0.378000000000000169,-5.537664411496061589
0.379000000000000170,-5.513785903260428611
0.380000000000000171,-5.488974740693447707
0.381000000000000172,-5.463237758626425133
0.382000000000000173,-5.436582172334845531
0.383000000000000174,-5.409015601104323778
0.384000000000000175,-5.380546088735335353
0.385000000000000175,-5.351182121102837641
0.386000000000000176,-5.320932640888985432
0.387000000000000177,-5.289807059608439666
0.388000000000000178,-5.257815267046930252
0.389000000000000179,-5.224967638233886547
0.390000000000000180,-5.191275038070275016
0.391000000000000181,-5.156748823732059783
0.392000000000000182,-5.121400844969166144
0.393000000000000183,-5.085243442418552640
0.394000000000000183,-5.048289444048579711
0.395000000000000184,-5.010552159850197640
0.396000000000000185,-4.972045374888398150
0.397000000000000186,-4.932783340825253049
0.398000000000000187,-4.892780766023404837
0.399000000000000188,-4.852052804336301151
0.400000000000000189,-4.810615042688713316
0.401000000000000190,-4.768483487548205169
0.402000000000000191,-4.725674550385255301
0.403000000000000191,-4.682205032216587348
0.404000000000000192,-4.638092107323178226
0.405000000000000193,-4.593353306231113820
0.406000000000000194,-4.548006498040228607
0.407000000000000195,-4.502069872182252297
0.408000000000000196,-4.455561919686631178
0.409000000000000197,-4.408501414029139198
0.410000000000000198,-4.360907391634943231
0.411000000000000199,-4.312799132104419897
0.412000000000000199,-4.264196138226870936
0.413000000000000200,-4.215118115843980107
0.414000000000000201,-4.165584953621644715
0.415000000000000202,-4.115616702785614756
0.416000000000000203,-4.065233556873402598
0.417000000000000204,-4.014455831551679843
0.418000000000000205,-3.963303944545589097
0.419000000000000206,-3.911798395723398158
0.420000000000000207,-3.859959747376974892
0.421000000000000207,-3.807808604736099944
0.422000000000000208,-3.755365596751514268
0.423000000000000209,-3.702651357179429503
0.424000000000000210,-3.649686505997384423
0.425000000000000211,-3.596491631178984960
0.426000000000000212,-3.543087270852820492
0.427000000000000213,-3.489493895868323481
0.428000000000000214,-3.435731892789456676
0.429000000000000214,-3.381821547334714406
0.430000000000000215,-3.327783028280080657
0.431000000000000216,-3.273636371839679704
0.432000000000000217,-3.219401466536802925
0.433000000000000218,-3.165098038576450445
0.434000000000000219,-3.110745637728713486
0.435000000000000220,-3.056363623730768087
0.436000000000000221,-3.001971153213683241
0.437000000000000222,-2.947587167158828514
0.438000000000000222,-2.893230378887321930
0.439000000000000223,-2.838919262584591596
0.440000000000000224,-2.784672042360977873
0.441000000000000225,-2.730506681848049233
0.442000000000000226,-2.676440874329403918
0.443000000000000227,-2.622492033403459377
0.444000000000000228,-2.568677284175034714
0.445000000000000229,-2.515013454971470885
0.446000000000000230,-2.461517069578257999
0.447000000000000230,-2.408204339988440523
0.448000000000000231,-2.355091159659262967
0.449000000000000232,-2.302193097268863120
0.450000000000000233,-2.249525390965396721
0.451000000000000234,-2.197102943100119443
0.452000000000000235,-2.144940315435788669
0.453000000000000236,-2.093051724820980564
0.454000000000000237,-2.041451039320803407
0.455000000000000238,-1.990151774793834871
0.456000000000000238,-1.939167091905062090
0.457000000000000239,-1.888509793564047801
0.458000000000000240,-1.838192322777584042
0.459000000000000241,-1.788226760905548662
0.460000000000000242,-1.738624826308878824
0.461000000000000243,-1.689397873378044590
0.462000000000000244,-1.640556891930653904
0.463000000000000245,-1.592112506966350871
0.464000000000000246,-1.544074978767506989
0.465000000000000246,-1.496454203333845934
0.466000000000000247,-1.449259713139284589
0.467000000000000248,-1.402500678199243733
0.468000000000000249,-1.356185907436778804
0.469000000000000250,-1.310323850335775475
0.470000000000000251,-1.264922598869728798
0.471000000000000252,-1.219989889694496288
0.472000000000000253,-1.175533106593742216
0.473000000000000254,-1.131559283165694652
0.474000000000000254,-1.088075105740119231
0.475000000000000255,-1.045086916514483821
0.476000000000000256,-1.002600716898446986
0.477000000000000257,-0.960622171056035201
0.478000000000000258,-0.919156609634906752
0.479000000000000259,-0.878209033672460060
0.480000000000000260,-0.837784118668608024
0.481000000000000261,-0.797886218815236026
0.482000000000000262,-0.758519371372697870
0.483000000000000262,-0.719687301183745243
0.484000000000000263,-0.681393425315603318
0.485000000000000264,-0.643640857821101697
0.486000000000000265,-0.606432414609984427
0.487000000000000266,-0.569770618421742592
0.488000000000000267,-0.533657703891544211
0.489000000000000268,-0.498095622701105412
0.490000000000000269,-0.463086048806465755
0.491000000000000270,-0.428630383735027098
0.492000000000000270,-0.394729761944256574
0.493000000000000271,-0.361385056234868107
0.494000000000000272,-0.328596883211391688
0.495000000000000273,-0.296365608783298318
0.496000000000000274,-0.264691353700185594
0.497000000000000275,-0.233573999114547265
0.498000000000000276,-0.203013192166088652
0.499000000000000277,-0.173008351581640740
0.500000000000000222,-0.143558673284954502
0.501000000000000334,-0.114663136010954458
0.502000000000000224,-0.086320506919185247
0.503000000000000336,-0.058529347201332717
0.504000000000000226,-0.031288017678116994
0.505000000000000338,-0.004594684380750858
0.506000000000000227,0.021552675887256269
0.507000000000000339,0.047156270012417068
0.508000000000000229,0.072218483061517708
0.509000000000000341,0.096741872803858792
0.510000000000000231,0.120729164268923841
0.511000000000000343,0.144183244343192685
0.512000000000000233,0.167107156409183805
0.513000000000000345,0.189504095030020581
0.514000000000000234,0.211377400682301347
0.515000000000000346,0.232730554540269668
0.516000000000000236,0.253567173313693606
0.517000000000000348,0.273891004142093608
0.518000000000000238,0.293705919547503691
0.519000000000000350,0.313015912448040445
0.520000000000000240,0.331825091234197067
0.521000000000000352,0.350137674909806518
0.522000000000000242,0.367957988299379424
0.523000000000000353,0.385290457323449298
0.524000000000000243,0.402139604343367263
0.525000000000000355,0.418510043576945878
0.526000000000000245,0.434406476586121859
0.527000000000000357,0.449833687837838725
0.528000000000000247,0.464796540339048936
0.529000000000000359,0.479299971346839548
0.530000000000000249,0.493348988154368673
0.531000000000000361,0.506948663953391998
0.532000000000000250,0.520104133773879651
0.533000000000000362,0.532820590501318914
0.534000000000000252,0.545103280972023652
0.535000000000000364,0.556957502146823047
0.536000000000000254,0.568388597363335135
0.537000000000000366,0.579401952667035536
0.538000000000000256,0.590002993221113492
0.539000000000000368,0.600197179795233238
0.540000000000000258,0.609990005333029162
0.541000000000000369,0.619386991598313119
0.542000000000000259,0.628393685899702015
0.543000000000000371,0.637015657893499343
0.544000000000000261,0.645258496464456432
0.545000000000000373,0.653127806684089207
0.546000000000000263,0.660629206846104933
0.547000000000000375,0.667768325578507849
0.548000000000000265,0.674550799031810366
0.549000000000000377,0.680982268142863667
0.550000000000000266,0.687068375973656331
0.551000000000000378,0.692814765124451948
0.552000000000000268,0.698227075220606563
0.553000000000000380,0.703310940472337665
0.554000000000000270,0.708071987306696959
0.555000000000000382,0.712515832070996336
0.556000000000000272,0.716648078806841560
0.557000000000000384,0.720474317094005778
0.558000000000000274,0.724000119963205568
0.559000000000000385,0.727231041876994166
0.560000000000000275,0.730172616777790218
0.561000000000000387,0.732830356202174960
0.562000000000000277,0.735209747460520480
0.563000000000000389,0.737316251880966833
0.564000000000000279,0.739155303116809437
0.565000000000000391,0.740732305516305756
0.566000000000000281,0.742052632553929614
0.567000000000000393,0.743121625322041290
0.568000000000000282,0.743944591081985851
0.569000000000000394,0.744526801873603095
0.570000000000000284,0.744873493182127810
0.571000000000000396,0.744989862661431634
0.572000000000000286,0.744881068912589761
0.573000000000000398,0.744552230316757546
0.574000000000000288,0.744008423921285411
0.575000000000000400,0.743254684378032104
0.576000000000000290,0.742296002932897769
0.577000000000000401,0.741137326465451940
0.578000000000000291,0.739783556577692014
0.579000000000000403,0.738239548730872275
0.580000000000000293,0.736510111429373948
0.581000000000000405,0.734600005450579685
0.582000000000000295,0.732513943119774358
0.583000000000000407,0.730256587628997478
0.584000000000000297,0.727832552398900212
0.585000000000000409,0.725246400482536746
0.586000000000000298,0.722502644010179274
0.587000000000000410,0.719605743674068488
0.588000000000000300,0.716560108252219163
0.589000000000000412,0.713370094170235225
0.590000000000000302,0.710040005100227689
0.591000000000000414,0.706574091595817189
0.592000000000000304,0.702976550762372532
0.593000000000000416,0.699251525961457343
0.594000000000000306,0.695403106548627137
0.595000000000000417,0.691435327643629916
0.596000000000000307,0.687352169932158086
0.597000000000000419,0.683157559498193234
0.598000000000000309,0.678855367686119981
0.599000000000000421,0.674449410991747156
0.600000000000000311,0.669943450981343780
0.601000000000000423,0.665341194237874856
0.602000000000000313,0.660646292333619045
0.603000000000000425,0.655862341828329698
0.604000000000000314,0.650992884292145302
0.605000000000000426,0.646041406352458880
0.606000000000000316,0.641011339763976840
0.607000000000000428,0.635906061501187780
0.608000000000000318,0.630728893872499641
0.609000000000000430,0.625483104655294442
0.610000000000000320,0.620171907251205079
0.611000000000000432,0.614798460860844775
0.612000000000000322,0.609365870677366805
0.613000000000000433,0.603877188098086437
0.614000000000000323,0.598335410953556246
0.615000000000000435,0.592743483753384259
0.616000000000000325,0.587104297948199294
0.617000000000000437,0.581420692207067824
0.618000000000000327,0.575695452709793054
0.619000000000000439,0.569931313453458821
0.620000000000000329,0.564130956572627351
0.621000000000000441,0.558297012672602344
0.622000000000000330,0.552432061175207045
0.623000000000000442,0.546538630676472348
0.624000000000000332,0.540619199315763299
0.625000000000000444,0.534676195155707634
0.626000000000000334,0.528711996572518550
0.627000000000000446,0.522728932656092105
0.628000000000000336,0.516729283619472235
0.629000000000000448,0.510715281217126615
0.630000000000000338,0.504689109171620687
0.631000000000000449,0.498652903608152065
0.632000000000000339,0.492608753496583840
0.633000000000000451,0.486558701100448132
0.634000000000000341,0.480504742432565357
0.635000000000000453,0.474448827716781207
0.636000000000000343,0.468392861855523535
0.637000000000000455,0.462338704902642950
0.638000000000000345,0.456288172541291615
0.639000000000000457,0.450243036566347954
0.640000000000000346,0.444205025371111784
0.641000000000000458,0.438175824437835260
0.642000000000000348,0.432157076831824138
0.643000000000000460,0.426150383698692736
0.644000000000000350,0.420157304764522732
0.645000000000000462,0.414179358838536960
0.646000000000000352,0.408218024318055650
0.647000000000000464,0.402274739695354877
0.648000000000000353,0.396350904066228749
0.649000000000000465,0.390447877639875984
0.650000000000000355,0.384566982249940181
0.651000000000000467,0.378709501866354770
0.652000000000000357,0.372876683107795481
0.653000000000000469,0.367069735754462445
0.654000000000000359,0.361289833260968640
0.655000000000000471,0.355538113269100564
0.656000000000000361,0.349815678120229956
0.657000000000000473,0.344123595367148316
0.658000000000000362,0.338462898285140812
0.659000000000000474,0.332834586382082631
0.660000000000000364,0.327239625907367437
0.661000000000000476,0.321678950359472637
0.662000000000000366,0.316153460992019408
0.663000000000000478,0.310664027318091340
0.664000000000000368,0.305211487612722432
0.665000000000000480,0.299796649413312633
0.666000000000000369,0.294420290017902264
0.667000000000000481,0.289083156981078337
