# TricalciumSilicate001_CHL-AC
# h[nm],U(h)[kJ/mol]
0.200000000000000011,163.275472199406294749
0.201000000000000012,159.789503971181460429
0.202000000000000013,157.271965088433773872
0.203000000000000014,155.253610119483397511
0.204000000000000015,153.453340665162443202
0.205000000000000016,151.713992436745741088
0.206000000000000016,149.957404802591611315
0.207000000000000017,148.153537887906225023
0.208000000000000018,146.299715850495033465
0.209000000000000019,144.407078416880210625
0.210000000000000020,142.492085996239353562
0.211000000000000021,140.571501357207750971
0.212000000000000022,138.659705647403029616
0.213000000000000023,136.767531727530979424
0.214000000000000024,134.902039244737977697
0.215000000000000024,133.066833635427741456
0.216000000000000025,131.262660825748355364
0.217000000000000026,129.488102729624728227
0.218000000000000027,127.740264895147447533
0.219000000000000028,126.015393826270013733
0.220000000000000029,124.309392938127842854
0.221000000000000030,122.618226824243990336
0.222000000000000031,120.938216556004320523
0.223000000000000032,119.266236364528793956
0.224000000000000032,117.599825950329815782
0.225000000000000033,115.937234057472693394
0.226000000000000034,114.277408728127241488
0.227000000000000035,112.619948457341862991
0.228000000000000036,110.965026743069984150
0.229000000000000037,109.313300578428339804
0.230000000000000038,107.665811463982919349
0.231000000000000039,106.023885654826514724
0.232000000000000040,104.389038674288599395
0.233000000000000040,102.762887659998568779
0.234000000000000041,101.147073870057994327
0.235000000000000042,99.543196662016313780
0.236000000000000043,97.952759449657875734
0.237000000000000044,96.377127521008631561
0.238000000000000045,94.817497141537401717
0.239000000000000046,93.274875044881483177
0.240000000000000047,91.750067206063476988
0.241000000000000048,90.243675677384885603
0.242000000000000048,88.756102225472417899
0.243000000000000049,87.287557522258452991
0.244000000000000050,85.838074698380268046
0.245000000000000051,84.407526152299539035
0.246000000000000052,82.995642612273442751
0.247000000000000053,81.602033562982725812
0.248000000000000054,80.226208267705629851
0.249000000000000055,78.867596735459500223
0.250000000000000056,77.525570096824864663
0.251000000000000056,76.199459959576302026
0.252000000000000057,74.888576414002187676
0.253000000000000058,73.592224446833554907
0.254000000000000059,72.309718601497849022
0.255000000000000060,71.040395790893100525
0.256000000000000061,69.783626227276300824
0.257000000000000062,68.538822482658730451
0.258000000000000063,67.305446732944986366
0.259000000000000064,66.083016270689739713
0.260000000000000064,64.871107395585781319
0.261000000000000065,63.669357809472479914
0.262000000000000066,62.477467654581822387
0.263000000000000067,61.295199340728302673
0.264000000000000068,60.122376309942680450
0.265000000000000069,58.958880886357874829
0.266000000000000070,57.804651355619469655
0.267000000000000071,56.659678412292542760
0.268000000000000071,55.524001106193473731
0.269000000000000072,54.397702409743246221
0.270000000000000073,53.280904518715658469
0.271000000000000074,52.173763988481958620
0.272000000000000075,51.076466797317380042
0.273000000000000076,49.989223417780095815
0.274000000000000077,48.912263966790604286
0.275000000000000078,47.845833494991495627
0.276000000000000079,46.790187466374405290
0.277000000000000079,45.745587470115289364
0.278000000000000080,44.712297198129498099
0.279000000000000081,43.690578714084104206
0.280000000000000082,42.680689032516070824
0.281000000000000083,41.682877020303408244
0.282000000000000084,40.697380627024230648
0.283000000000000085,39.724424445694999974
0.284000000000000086,38.764217600981830003
0.285000000000000087,37.816951958198743000
0.286000000000000087,36.882800643206934410
0.287000000000000088,35.961916860669937535
0.288000000000000089,35.054432995965065345
0.289000000000000090,34.160459984352328888
0.290000000000000091,33.280086929724760125
0.291000000000000092,32.413380954358288477
0.292000000000000093,31.560387260512698049
0.293000000000000094,30.721129384462223300
0.294000000000000095,29.895609623522716447
0.295000000000000095,29.083809616852231983
0.296000000000000096,28.285691061206044594
0.297000000000000097,27.501196543389323068
0.298000000000000098,26.730250471847817550
0.299000000000000099,25.972760090639006592
0.300000000000000100,25.228616559914517126
0.301000000000000101,24.497696087992810732
0.302000000000000102,23.779861101097147014
0.303000000000000103,23.074961437853062307
0.304000000000000103,22.382835556676091926
0.305000000000000104,21.703311745214172390
0.306000000000000105,21.036209322033577962
0.307000000000000106,20.381339821741711660
0.308000000000000107,19.738508155716267822
0.309000000000000108,19.107513741553567854
0.310000000000000109,18.488151595250300829
0.311000000000000110,17.880213380995421346
0.312000000000000111,17.283488414259057464
0.313000000000000111,16.697764614632685465
0.314000000000000112,16.122829405588131380
0.315000000000000113,15.558470558987128385
0.316000000000000114,15.004476982786624006
0.317000000000000115,14.460639450947567752
0.318000000000000116,13.926751275067971392
0.319000000000000117,13.402608917726109183
0.320000000000000118,12.888012547937558239
0.321000000000000119,12.382766539502416236
0.322000000000000119,11.886679913348947579
0.323000000000000120,11.399566725269032474
0.324000000000000121,10.921246400689556211
0.325000000000000122,10.451544018338246644
0.326000000000000123,9.990290544841167630
0.327000000000000124,9.537323022436149600
0.328000000000000125,9.092484712104177191
0.329000000000000126,8.655625194511411991
0.330000000000000127,8.226600431219244669
0.331000000000000127,7.805272788662944272
0.332000000000000128,7.391511027420888169
0.333000000000000129,6.985190259299332460
0.334000000000000130,6.586191874744462993
0.335000000000000131,6.194403443064031123
0.336000000000000132,5.809718587900275288
0.337000000000000133,5.432036840341483597
0.338000000000000134,5.061263471996538144
0.339000000000000135,4.697309310285818107
0.340000000000000135,4.340090538121384789
0.341000000000000136,3.989528480065814620
0.342000000000000137,3.645549376968476363
0.343000000000000138,3.308084150985239003
0.344000000000000139,2.977068162790611705
0.345000000000000140,2.652440962694088356
0.346000000000000141,2.334146037272545104
0.347000000000000142,2.022130553031494138
0.348000000000000143,1.716345098508272216
0.349000000000000143,1.416743426132078154
0.350000000000000144,1.123282195058293187
0.351000000000000145,0.835920716099657346
0.352000000000000146,0.554620699782984006
0.353000000000000147,0.279346008470035989
0.354000000000000148,0.010062413392810932
0.355000000000000149,-0.253262642631385426
0.356000000000000150,-0.510660276121275514
0.357000000000000151,-0.762160386884161434
0.358000000000000151,-1.007791874469366578
0.359000000000000152,-1.247582846663545242
0.360000000000000153,-1.481560819637119497
0.361000000000000154,-1.709752909414360200
0.362000000000000155,-1.932186014401293672
0.363000000000000156,-2.148886988761720129
0.364000000000000157,-2.359882806485240625
0.365000000000000158,-2.565200716041490914
0.366000000000000159,-2.764868385560123265
0.367000000000000159,-2.958914038520371825
0.368000000000000160,-3.147366579972556089
0.369000000000000161,-3.330255713351205848
0.370000000000000162,-3.507612047972643587
0.371000000000000163,-3.679467197340098750
0.372000000000000164,-3.845853868407438370
0.373000000000000165,-4.006805941976990582
0.374000000000000166,-4.162358544429812568
0.375000000000000167,-4.312548111005407137
0.376000000000000167,-4.457412440866521663
0.377000000000000168,-4.596990744198828693
0.378000000000000169,-4.731323681608610165
0.379000000000000170,-4.860453396092515810
0.380000000000000171,-4.984423537862711306
0.381000000000000172,-5.103279282317608967
0.382000000000000173,-5.217067341454573182
0.383000000000000174,-5.325835969024841354
0.384000000000000175,-5.429634959733648181
0.385000000000000175,-5.528515642789827211
0.386000000000000176,-5.622530870109827106
0.387000000000000177,-5.711734999479199715
0.388000000000000178,-5.796183872973800888
0.389000000000000179,-5.875934790938853070
0.390000000000000180,-5.951046481821211209
0.391000000000000181,-6.021579068145127778
0.392000000000000182,-6.087594028916564426
0.393000000000000183,-6.149154158735626652
0.394000000000000183,-6.206323523889911264
0.395000000000000184,-6.259167415694994574
0.396000000000000185,-6.307752301340803669
0.397000000000000186,-6.352145772495079612
0.398000000000000187,-6.392416491907266796
0.399000000000000188,-6.428634138247889318
0.400000000000000189,-6.460869349410001128
0.401000000000000190,-6.489193664491091695
0.402000000000000191,-6.513679464664820173
0.403000000000000191,-6.534399913143356109
0.404000000000000192,-6.551428894422508975
0.405000000000000193,-6.564840952992669898
0.406000000000000194,-6.574711231690294255
0.407000000000000195,-6.581115409855651244
0.408000000000000196,-6.584129641453929871
0.409000000000000197,-6.583830493308537868
0.410000000000000198,-6.580294883586825350
0.411000000000000199,-6.573600020670011368
0.412000000000000199,-6.563823342531589056
0.413000000000000200,-6.551042456739733844
0.414000000000000201,-6.535335081192243933
0.415000000000000202,-6.516778985684368308
0.416000000000000203,-6.495451934402905358
0.417000000000000204,-6.471431629432546906
0.418000000000000205,-6.444795655353689590
0.419000000000000206,-6.415621425004114364
0.420000000000000207,-6.383986126470261979
0.421000000000000207,-6.349966671368163063
0.422000000000000208,-6.313639644467057721
0.423000000000000209,-6.275081254704078404
0.424000000000000210,-6.234367287631853216
0.425000000000000211,-6.191573059336014317
0.426000000000000212,-6.146773371854560075
0.427000000000000213,-6.100042470125699445
0.428000000000000214,-6.051454000486698348
0.429000000000000214,-6.001080970741416110
0.430000000000000215,-5.948995711810182385
0.431000000000000216,-5.895269840971760544
0.432000000000000217,-5.839974226703128934
0.433000000000000218,-5.783178955119447018
0.434000000000000219,-5.724953298013175207
0.435000000000000220,-5.665365682488166854
0.436000000000000221,-5.604483662181467096
0.437000000000000222,-5.542373890062870956
0.438000000000000222,-5.479102092799802648
0.439000000000000223,-5.414733046672436600
0.440000000000000224,-5.349330555021937883
0.441000000000000225,-5.282957427212363832
0.442000000000000226,-5.215675459085344912
0.443000000000000227,-5.147545414884186599
0.444000000000000228,-5.078627010623167237
0.445000000000000229,-5.008978898875758645
0.446000000000000230,-4.938658654954385163
0.447000000000000230,-4.867722764453353612
0.448000000000000231,-4.796226612125070510
0.449000000000000232,-4.724224472058912383
0.450000000000000233,-4.651769499131617636
0.451000000000000234,-4.578913721696535433
0.452000000000000235,-4.505708035479395690
0.453000000000000236,-4.432202198646856495
0.454000000000000237,-4.358444828014382821
0.455000000000000238,-4.284483396359108909
0.456000000000000238,-4.210364230803456564
0.457000000000000239,-4.136132512234839353
0.458000000000000240,-4.061832275726961150
0.459000000000000241,-3.987506411927733474
0.460000000000000242,-3.913196669379503501
0.461000000000000243,-3.838943657736670012
0.462000000000000244,-3.764786851846646076
0.463000000000000245,-3.690764596659453556
0.464000000000000246,-3.616914112932579251
0.465000000000000246,-3.543271503696984404
0.466000000000000247,-3.469871761451162051
0.467000000000000248,-3.396748776050268592
0.468000000000000249,-3.323935343257906627
0.469000000000000250,-3.251463173928418993
0.470000000000000251,-3.179362903788214290
0.471000000000000252,-3.107664103785012344
0.472000000000000253,-3.036395290974700067
0.473000000000000254,-2.965583939915591216
0.474000000000000254,-2.895256494541032399
0.475000000000000255,-2.825438380481406053
0.476000000000000256,-2.756154017807508794
0.477000000000000257,-2.687426834167846668
0.478000000000000258,-2.619279278292883983
0.479000000000000259,-2.551732833840206105
0.480000000000000260,-2.484808033554976703
0.481000000000000261,-2.418524473720817802
0.482000000000000262,-2.352900828877018569
0.483000000000000262,-2.287954866778538765
0.484000000000000263,-2.223703463575873229
0.485000000000000264,-2.160162619192829148
0.486000000000000265,-2.097347472880601860
0.487000000000000266,-2.035272318927362711
0.488000000000000267,-1.973950622503362284
0.489000000000000268,-1.913395035622000417
0.490000000000000269,-1.853617413198093145
0.491000000000000270,-1.794628829185330732
0.492000000000000270,-1.736439592775285146
0.493000000000000271,-1.679059264641336258
0.494000000000000272,-1.622496673211265561
0.495000000000000273,-1.566759930952888347
0.496000000000000274,-1.511856450658014328
0.497000000000000275,-1.457792961710196566
0.498000000000000276,-1.404575526322759504
0.499000000000000277,-1.352209555733886459
0.500000000000000222,-1.300699826346207066
0.501000000000000334,-1.250050495799060801
0.502000000000000224,-1.200265118961926003
0.503000000000000336,-1.151346663838140882
0.504000000000000226,-1.103297527368761966
0.505000000000000338,-1.056119551126490252
0.506000000000000227,-1.009814036890752220
0.507000000000000339,-0.964381762094753681
0.508000000000000229,-0.919822995136564514
0.509000000000000341,-0.876137510546100673
0.510000000000000231,-0.833324604001005831
0.511000000000000343,-0.791383107184106094
0.512000000000000233,-0.750311402476353528
0.513000000000000345,-0.710107437478878389
0.514000000000000234,-0.670768739358906352
0.515000000000000346,-0.632292429013795343
0.516000000000000236,-0.594675235048874318
0.517000000000000348,-0.557913507564214095
0.518000000000000238,-0.522003231746497320
0.519000000000000350,-0.486940041261993806
0.520000000000000240,-0.452719231447434978
0.521000000000000352,-0.419335772295608755
0.522000000000000242,-0.386784321232874262
0.523000000000000353,-0.355059235686206620
0.524000000000000243,-0.324154585437533171
0.525000000000000355,-0.294064164763545688
0.526000000000000245,-0.264781504359340669
0.527000000000000357,-0.236299883044489706
0.528000000000000247,-0.208612339250573708
0.529000000000000359,-0.181711682289139198
0.530000000000000249,-0.155590503399650026
0.531000000000000361,-0.130241186576869505
0.532000000000000250,-0.105655919177594981
0.533000000000000362,-0.081826702306676213
0.534000000000000252,-0.058745360982568662
0.535000000000000364,-0.036403554082817501
0.536000000000000254,-0.014792784070044857
0.537000000000000366,0.006095593500916823
0.538000000000000256,0.026270360693657395
0.539000000000000368,0.045740428117770640
0.540000000000000258,0.064514826071960379
0.541000000000000369,0.082602695901583451
0.542000000000000259,0.100013281568925610
0.543000000000000371,0.116755921434844173
0.544000000000000261,0.132840040249955799
0.545000000000000373,0.148275141353601259
0.546000000000000263,0.163070799078684520
0.547000000000000375,0.177236651360448944
0.548000000000000265,0.190782392546927165
0.549000000000000377,0.203717766409142964
0.550000000000000266,0.216052559348579504
0.551000000000000378,0.227796593799757197
0.552000000000000268,0.238959721825472121
0.553000000000000380,0.249551818902232381
0.554000000000000270,0.259582777893398953
0.555000000000000382,0.269062503207548764
0.556000000000000272,0.278000905139282994
0.557000000000000384,0.286407894390077633
0.558000000000000274,0.294293376766223913
0.559000000000000385,0.301667248051400549
0.560000000000000275,0.308539389050921486
0.561000000000000387,0.314919660805004387
0.562000000000000277,0.320817899968256992
0.563000000000000389,0.326243914352497333
0.564000000000000279,0.331207478630136165
0.565000000000000391,0.335718330195279857
0.566000000000000281,0.339786165179665978
0.567000000000000393,0.343420634620600740
0.568000000000000282,0.346631340778005448
0.569000000000000394,0.349427833597750925
0.570000000000000284,0.351819607318396177
0.571000000000000396,0.353816097218444259
0.572000000000000286,0.355426676501292282
0.573000000000000398,0.356660653315064136
0.574000000000000288,0.357527267904434176
0.575000000000000400,0.358035689891605113
0.576000000000000290,0.358195015683752116
0.577000000000000401,0.358014266003987280
0.578000000000000291,0.357502383543195745
0.579000000000000403,0.356668230729914160
0.580000000000000293,0.355520587615566763
0.581000000000000405,0.354068149872305893
0.582000000000000295,0.352319526900813973
0.583000000000000407,0.350283240045357325
0.584000000000000297,0.347967720913536671
0.585000000000000409,0.345381309797980152
0.586000000000000298,0.342532254197604746
0.587000000000000410,0.339428707435652566
0.588000000000000300,0.336078727372206565
0.589000000000000412,0.332490275208534081
0.590000000000000302,0.328671214380912069
0.591000000000000414,0.324629309541336120
0.592000000000000304,0.320372225622969353
0.593000000000000416,0.315907526987740217
0.594000000000000306,0.311242676653850137
0.595000000000000417,0.306385035600921563
0.596000000000000307,0.301341862150501516
0.597000000000000419,0.296120311419638738
0.598000000000000309,0.290727434845414578
0.599000000000000421,0.285170179778293231
0.600000000000000311,0.279455389142045152
0.601000000000000423,0.273589801158282242
0.602000000000000313,0.267580049133505748
0.603000000000000425,0.261432661306657210
0.604000000000000314,0.255154060755161338
0.605000000000000426,0.248750565357585274
0.606000000000000316,0.242228387810970169
0.607000000000000428,0.235593635700925758
0.608000000000000318,0.228852311622732701
0.609000000000000430,0.222010313351589550
0.610000000000000320,0.215073434060269436
0.611000000000000432,0.208047362582425510
0.612000000000000322,0.200937683719938809
0.613000000000000433,0.193749878592492875
0.614000000000000323,0.186489325027933223
0.615000000000000435,0.179161297991648677
0.616000000000000325,0.171770970053585298
0.617000000000000437,0.164323411891224569
0.618000000000000327,0.156823592827120051
0.619000000000000439,0.149276381399536279
0.620000000000000329,0.141686545964745225
0.621000000000000441,0.134058755329561435
0.622000000000000330,0.126397579412871219
0.623000000000000442,0.118707489934658558
0.624000000000000332,0.110992861131450904
0.625000000000000444,0.103257970496676427
0.626000000000000334,0.095506999544947804
0.627000000000000446,0.087744034598880943
0.628000000000000336,0.079973067597397973
0.629000000000000448,0.072197996924291380
0.630000000000000338,0.064422628256043918
0.631000000000000449,0.056650675427662667
0.632000000000000339,0.048885761315686116
0.633000000000000451,0.041131418737108204
0.634000000000000341,0.033391091363449789
0.635000000000000453,0.025668134648766272
0.636000000000000343,0.017965816770921912
0.637000000000000455,0.010287319584943689
0.638000000000000345,0.002635739587765162
0.639000000000000457,-0.004985911106608787
0.640000000000000346,-0.012574703782321678
0.641000000000000458,-0.020127792128091893
0.642000000000000348,-0.027642411235631742
0.643000000000000460,-0.035115876590860531
0.644000000000000350,-0.042545583058556477
0.645000000000000462,-0.049929003861342768
0.646000000000000352,-0.057263689553488040
0.647000000000000464,-0.064547266990406083
0.648000000000000353,-0.071777438294359369
0.649000000000000465,-0.078951979817092413
0.650000000000000355,-0.086068741099937382
0.651000000000000467,-0.093125643832038918
0.652000000000000357,-0.100120680807261594
0.653000000000000469,-0.107051914880298610
0.654000000000000359,-0.113917477922561794
0.655000000000000471,-0.120715569778319279
0.656000000000000361,-0.127444457221636526
0.657000000000000473,-0.134102472914538945
0.658000000000000362,-0.140688014366909087
0.659000000000000474,-0.147199542898524827
0.660000000000000364,-0.153635582603678877
0.661000000000000476,-0.159994719318815676
0.662000000000000366,-0.166275599593519258
0.663000000000000478,-0.172476929665318773
0.664000000000000368,-0.178597474438568937
0.665000000000000480,-0.184636056467878590
