# TricalciumSilicate001_GLUSCA-JS
# h[nm],U(h)[kJ/mol]
0.200000000000000011,79.655705368818431111
0.201000000000000012,78.222422330938712776
0.202000000000000013,76.874480475575921901
0.203000000000000014,75.572091102536248286
0.204000000000000015,74.290584944027585834
0.205000000000000016,73.015866861902367191
0.206000000000000016,71.741011110794559613
0.207000000000000017,70.463752695597207776
0.208000000000000018,69.184674959302910224
0.209000000000000019,67.905931583368627003
0.210000000000000020,66.630373254601067856
0.211000000000000021,65.360976001890918496
0.212000000000000022,64.100490295375337269
0.213000000000000023,62.851248068287610238
0.214000000000000024,61.615079461767990665
0.215000000000000024,60.393302843560164206
0.216000000000000025,59.186760991010473276
0.217000000000000026,57.995883675190576412
0.218000000000000027,56.820762596822433466
0.219000000000000028,55.661229013356432915
0.220000000000000029,54.516927719307091138
0.221000000000000030,53.387383515425014480
0.222000000000000031,52.272058105863060007
0.223000000000000032,51.170396643431047323
0.224000000000000032,50.081864021171156764
0.225000000000000033,49.005971580511733521
0.226000000000000034,47.942295249473417584
0.227000000000000035,46.890486300032065969
0.228000000000000036,45.850275969759437089
0.229000000000000037,44.821475166436030690
0.230000000000000038,43.803970393869136046
0.231000000000000039,42.797716924039221453
0.232000000000000040,41.802730110724525048
0.233000000000000040,40.819075604303165505
0.234000000000000041,39.846859094445065352
0.235000000000000042,38.886216082183985066
0.236000000000000043,37.937302068691579393
0.237000000000000044,37.000283446750778182
0.238000000000000045,36.075329293138494791
0.239000000000000046,35.162604185798066680
0.240000000000000047,34.262262108190057575
0.241000000000000048,33.374441453604205776
0.242000000000000048,32.499261103335584266
0.243000000000000049,31.636817523221857584
0.244000000000000050,30.787182801842646995
0.245000000000000051,29.950403539455230373
0.246000000000000052,29.126500488332020211
0.247000000000000053,28.315468841500894825
0.248000000000000054,27.517279067014214888
0.249000000000000055,26.731878187938452385
0.250000000000000056,25.959191413526987446
0.251000000000000056,25.199124033883169460
0.252000000000000057,24.451563498311713829
0.253000000000000058,23.716381606053268172
0.254000000000000059,22.993436746844224672
0.255000000000000060,22.282576137459027876
0.256000000000000061,21.583638008854645562
0.257000000000000062,20.896453706582907017
0.258000000000000063,20.220849674647304539
0.259000000000000064,19.556649299878266390
0.260000000000000064,18.903674600136774586
0.261000000000000065,18.261747745212687732
0.262000000000000066,17.630692404156611985
0.263000000000000067,17.010334916995127230
0.264000000000000068,16.400505292352040243
0.265000000000000069,15.801038035473112586
0.266000000000000070,15.211772813572867591
0.267000000000000071,14.632554967334005624
0.268000000000000071,14.063235878845725679
0.269000000000000072,13.503673207313008575
0.270000000000000073,12.953731004556033213
0.271000000000000074,12.413279722693458140
0.272000000000000075,11.882196126509523282
0.273000000000000076,11.360363122886214526
0.274000000000000077,10.847669519374997904
0.275000000000000078,10.344009723524530742
0.276000000000000079,9.849283394003114367
0.277000000000000079,9.363395053884485009
0.278000000000000080,8.886253675731413892
0.279000000000000081,8.417772247331358315
0.280000000000000082,7.957867326135388275
0.281000000000000083,7.506458589638508094
0.282000000000000084,7.063468388133252063
0.283000000000000085,6.628821305478263426
0.284000000000000086,6.202443732758872841
0.285000000000000087,5.784263458987172868
0.286000000000000087,5.374209282296786405
0.287000000000000088,4.972210644439817528
0.288000000000000089,4.578197290791417018
0.289000000000000090,4.192098957512953916
0.290000000000000091,3.813845087020069080
0.291000000000000092,3.443364572443999183
0.292000000000000093,3.080585531366318186
0.293000000000000094,2.725435108744354018
0.294000000000000095,2.377839308627288428
0.295000000000000095,2.037722853987529614
0.296000000000000096,1.705009073758162685
0.297000000000000097,1.379619815970237529
0.298000000000000098,1.061475385722795650
0.299000000000000099,0.750494506589424737
0.300000000000000100,0.446594303966711237
0.301000000000000101,0.149690308797556682
0.302000000000000102,-0.140303519944112887
0.303000000000000103,-0.423474755647259227
0.304000000000000103,-0.699912448981222179
0.305000000000000104,-0.969707058971381541
0.306000000000000105,-1.232950371841536219
0.307000000000000106,-1.489735409192799453
0.308000000000000107,-1.740156327039662276
0.309000000000000108,-1.984308307165218555
0.310000000000000109,-2.222287442192387719
0.311000000000000110,-2.454190615695595934
0.312000000000000111,-2.680115378602653031
0.313000000000000111,-2.900159823056482900
0.314000000000000112,-3.114422454825868325
0.315000000000000113,-3.323002065272000038
0.316000000000000114,-3.525997603795398394
0.317000000000000115,-3.723508051605867841
0.318000000000000116,-3.915632297577858800
0.319000000000000117,-4.102469016874771057
0.320000000000000118,-4.284116552949351231
0.321000000000000119,-4.460672803453905821
0.322000000000000119,-4.632235110523117427
0.323000000000000120,-4.798900155824829206
0.324000000000000121,-4.960763860710695639
0.325000000000000122,-5.117921291737841827
0.326000000000000123,-5.270466571776308840
0.327000000000000124,-5.418492796864206262
0.328000000000000125,-5.562091958923595314
0.329000000000000126,-5.701354874404528594
0.330000000000000127,-5.836371118883413089
0.331000000000000127,-5.967228967603650958
0.332000000000000128,-6.094015341912178307
0.333000000000000129,-6.216815761514572714
0.334000000000000130,-6.335714302443355095
0.335000000000000131,-6.450793560610134314
0.336000000000000132,-6.562134620789846551
0.337000000000000133,-6.669817030867315921
0.338000000000000134,-6.773918781160094049
0.339000000000000135,-6.874516288617698478
0.340000000000000135,-6.971684385686900853
0.341000000000000136,-7.065496313623140345
0.342000000000000137,-7.156023720021764234
0.343000000000000138,-7.243336660337362787
0.344000000000000139,-7.327503603156744205
0.345000000000000140,-7.408591438989032163
0.346000000000000141,-7.486665492336402217
0.347000000000000142,-7.561789536809989443
0.348000000000000143,-7.634025813057988330
0.349000000000000143,-7.703435049276086133
0.350000000000000144,-7.770076484074918355
0.351000000000000145,-7.834007891484151109
0.352000000000000146,-7.895285607878841816
0.353000000000000147,-7.953964560620010005
0.354000000000000148,-8.010098298208514933
0.355000000000000149,-8.063739021758596692
0.356000000000000150,-8.114937617605338716
0.357000000000000151,-8.163743690868319192
0.358000000000000151,-8.210205599802019805
0.359000000000000152,-8.254370490771867352
0.360000000000000153,-8.296284333703592750
0.361000000000000154,-8.335991957861699220
0.362000000000000155,-8.373537087821802061
0.363000000000000156,-8.408962379509839380
0.364000000000000157,-8.442309456189521555
0.365000000000000158,-8.473618944287977683
0.366000000000000159,-8.502930508957176059
0.367000000000000159,-8.530282889277128078
0.368000000000000160,-8.555713933014260419
0.369000000000000161,-8.579260630856055059
0.370000000000000162,-8.600959150050172752
0.371000000000000163,-8.620844867383514298
0.372000000000000164,-8.638952401443082962
0.373000000000000165,-8.655315644107352213
0.374000000000000166,-8.669967791222864761
0.375000000000000167,-8.682941372426549620
0.376000000000000167,-8.694268280080258648
0.377000000000000168,-8.703979797289026266
0.378000000000000169,-8.712106624979687908
0.379000000000000170,-8.718678908021415097
0.380000000000000171,-8.723726260374011332
0.381000000000000172,-8.727277789254134888
0.382000000000000173,-8.729362118313501284
0.383000000000000174,-8.730007409826882281
0.384000000000000175,-8.729241385890954774
0.385000000000000175,-8.727091348638357005
0.386000000000000176,-8.723584199474256451
0.387000000000000177,-8.718746457345115886
0.388000000000000178,-8.712604276052287489
0.389000000000000179,-8.705183460624713376
0.390000000000000180,-8.696509482767506682
0.391000000000000181,-8.686607495404782497
0.392000000000000182,-8.675502346336633863
0.393000000000000183,-8.663218591031846216
0.394000000000000183,-8.649780504578957974
0.395000000000000184,-8.635212092819509522
0.396000000000000185,-8.619537102688219932
0.397000000000000186,-8.602779031785564356
0.398000000000000187,-8.584961137208996007
0.399000000000000188,-8.566106443669472270
0.400000000000000189,-8.546237750920331777
0.401000000000000190,-8.525377640525963585
0.402000000000000191,-8.503548481997764696
0.403000000000000191,-8.480772438324972740
0.404000000000000192,-8.457071470928045898
0.405000000000000193,-8.432467344062002823
0.406000000000000194,-8.406981628697069553
0.407000000000000195,-8.380635705903715760
0.408000000000000196,-8.353450769768754114
0.409000000000000197,-8.325447829868913630
0.410000000000000198,-8.296647713327846674
0.411000000000000199,-8.267071066481907593
0.412000000000000199,-8.236738356179770904
0.413000000000000200,-8.205669870740127436
0.414000000000000201,-8.173885720591353987
0.415000000000000202,-8.141405838616185164
0.416000000000000203,-8.108249980223963149
0.417000000000000204,-8.074437723172279036
0.418000000000000205,-8.039988467159131957
0.419000000000000206,-8.004921433206060755
0.420000000000000207,-7.969255662851921329
0.421000000000000207,-7.933010017176454376
0.422000000000000208,-7.896203175671695718
0.423000000000000209,-7.858853634979010572
0.424000000000000210,-7.820979707508425527
0.425000000000000211,-7.782599519956354683
0.426000000000000212,-7.743731011737224890
0.427000000000000213,-7.704391933343399224
0.428000000000000214,-7.664599844647634441
0.429000000000000214,-7.624372113161046016
0.430000000000000215,-7.583725912259278168
0.431000000000000216,-7.542678219388736061
0.432000000000000217,-7.501245814263984180
0.433000000000000218,-7.459445277066945046
0.434000000000000219,-7.417292986657749054
0.435000000000000220,-7.374805118806550652
0.436000000000000221,-7.331997644454972374
0.437000000000000222,-7.288886328015192539
0.438000000000000222,-7.245486725714274101
0.439000000000000223,-7.201814183990623341
0.440000000000000224,-7.157883837949006178
0.441000000000000225,-7.113710609879926317
0.442000000000000226,-7.069309207848908372
0.443000000000000227,-7.024694124360351566
0.444000000000000228,-6.979879635100603608
0.445000000000000229,-6.934879797764054388
0.446000000000000230,-6.889708450965825293
0.447000000000000230,-6.844379213244269344
0.448000000000000231,-6.798905482155900515
0.449000000000000232,-6.753300433465109442
0.450000000000000233,-6.707577020430744774
0.451000000000000234,-6.661747973191064709
0.452000000000000235,-6.615825798248519796
0.453000000000000236,-6.569822778055180557
0.454000000000000237,-6.523750970699754070
0.455000000000000238,-6.477622209696377809
0.456000000000000238,-6.431448103875522015
0.457000000000000239,-6.385240037376819444
0.458000000000000240,-6.339009169743581751
0.459000000000000241,-6.292766436118342632
0.460000000000000242,-6.246522547538837955
0.461000000000000243,-6.200287991333305548
0.462000000000000244,-6.154073031614220035
0.463000000000000245,-6.107887709868849768
0.464000000000000246,-6.061741845645561177
0.465000000000000246,-6.015645037334001799
0.466000000000000247,-5.969606663037611227
0.467000000000000248,-5.923635881536529091
0.468000000000000249,-5.877741633339041094
0.469000000000000250,-5.831932641819457253
0.470000000000000251,-5.786217414440313789
0.471000000000000252,-5.740604244056637384
0.472000000000000253,-5.695101210300114403
0.473000000000000254,-5.649716181040625784
0.474000000000000254,-5.604456813922920055
0.475000000000000255,-5.559330557975839859
0.476000000000000256,-5.514344655291697705
0.477000000000000257,-5.469506142773225221
0.478000000000000258,-5.424821853945539729
0.479000000000000259,-5.380298420830621708
0.480000000000000260,-5.335942275881620844
0.481000000000000261,-5.291759653974448696
0.482000000000000262,-5.247756594454058288
0.483000000000000262,-5.203938943232822467
0.484000000000000263,-5.160312354938350943
0.485000000000000264,-5.116882295108270640
0.486000000000000265,-5.073654042429330602
0.487000000000000266,-5.030632691018278813
0.488000000000000267,-4.987823152742043575
0.489000000000000268,-4.945230159574682816
0.490000000000000269,-4.902858265988607300
0.491000000000000270,-4.860711851377727655
0.492000000000000270,-4.818795122509987650
0.493000000000000271,-4.777112116007048215
0.494000000000000272,-4.735666700848732091
0.495000000000000273,-4.694462580899899429
0.496000000000000274,-4.653503297457625365
0.497000000000000275,-4.612792231816352562
0.498000000000000276,-4.572332607848961672
0.499000000000000277,-4.532127494601610351
0.500000000000000222,-4.492179808900260696
0.501000000000000334,-4.452492317966947333
0.502000000000000224,-4.413067642043784211
0.503000000000000336,-4.373908257022792512
0.504000000000000226,-4.335016497079754672
0.505000000000000338,-4.296394557310181384
0.506000000000000227,-4.258044496365823051
0.507000000000000339,-4.219968239089767259
0.508000000000000229,-4.182167579148766023
0.509000000000000341,-4.144644181660916971
0.510000000000000231,-4.107399585817456789
0.511000000000000343,-4.070435207496862162
0.512000000000000233,-4.033752341870115110
0.513000000000000345,-3.997352165995486928
0.514000000000000234,-3.961235741401821109
0.515000000000000346,-3.925404016658648576
0.516000000000000236,-3.889857829932296340
0.517000000000000348,-3.854597911526497001
0.518000000000000238,-3.819624886406638886
0.519000000000000350,-3.784939276706309474
0.520000000000000240,-3.750541504215345157
0.521000000000000352,-3.716431892848259366
0.522000000000000242,-3.682610671092175103
0.523000000000000353,-3.649077974433325267
0.524000000000000243,-3.615833847761357411
0.525000000000000355,-3.582878247750548528
0.526000000000000245,-3.550211045217291250
0.527000000000000357,-3.517832027452993060
0.528000000000000247,-3.485740900531899999
0.529000000000000359,-3.453937291593029535
0.530000000000000249,-3.422420751095805791
0.531000000000000361,-3.391190755048675953
0.532000000000000250,-3.360246707210387651
0.533000000000000362,-3.329587941263254525
0.534000000000000252,-3.299213722958151518
0.535000000000000364,-3.269123252230705212
0.536000000000000254,-3.239315665288465595
0.537000000000000366,-3.209790036668495272
0.538000000000000256,-3.180545381265388549
0.539000000000000368,-3.151580656329121322
0.540000000000000258,-3.122894763432820575
0.541000000000000369,-3.094486550409921044
0.542000000000000259,-3.066354813260868450
0.543000000000000371,-3.038498298028899480
0.544000000000000261,-3.010915702645029945
0.545000000000000373,-2.983605678741995781
0.546000000000000263,-2.956566833437189956
0.547000000000000375,-2.929797731084378576
0.548000000000000265,-2.903296894994456867
0.549000000000000377,-2.877062809124892873
0.550000000000000266,-2.851093919738209248
0.551000000000000378,-2.825388637029288219
0.552000000000000268,-2.799945336721747502
0.553000000000000380,-2.774762361633324126
0.554000000000000270,-2.749838023210512628
0.555000000000000382,-2.725170603032390115
0.556000000000000272,-2.700758354283991913
0.557000000000000384,-2.676599503199122321
0.558000000000000274,-2.652692250473054347
0.559000000000000385,-2.629034772645006512
0.560000000000000275,-2.605625223450860783
0.561000000000000387,-2.582461735146112769
0.562000000000000277,-2.559542419799408997
0.563000000000000389,-2.536865370556836030
0.564000000000000279,-2.514428662877254084
0.565000000000000391,-2.492230355738866088
0.566000000000000281,-2.470268492817345951
0.567000000000000393,-2.448541103635750282
0.568000000000000282,-2.427046204686568842
0.569000000000000394,-2.405781800526063385
0.570000000000000284,-2.384745884841387831
0.571000000000000396,-2.363936441490595897
0.572000000000000286,-2.343351445516033582
0.573000000000000398,-2.322988864131245723
0.574000000000000288,-2.302846657681894005
0.575000000000000400,-2.282922780580901367
0.576000000000000290,-2.263215182218213162
0.577000000000000401,-2.243721807845465488
0.578000000000000291,-2.224440599435975052
0.579000000000000403,-2.205369496520297012
0.580000000000000293,-2.186506436997822878
0.581000000000000405,-2.167849357924616971
0.582000000000000295,-2.149396196278027027
0.583000000000000407,-2.131144889698244338
0.584000000000000297,-2.113093377207301060
0.585000000000000409,-2.095239599905796890
0.586000000000000298,-2.077581501647762341
0.587000000000000410,-2.060117029693948609
0.588000000000000300,-2.042844135344010770
0.589000000000000412,-2.025760774547808118
0.590000000000000302,-2.008864908496321267
0.591000000000000414,-1.992154504192465314
0.592000000000000304,-1.975627535002180579
0.593000000000000416,-1.959281981186124622
0.594000000000000306,-1.943115830412439182
0.595000000000000417,-1.927127078250775893
0.596000000000000307,-1.911313728648099231
0.597000000000000419,-1.895673794386502298
0.598000000000000309,-1.880205297523489305
0.599000000000000421,-1.864906269814954998
0.600000000000000311,-1.849774753121347759
0.601000000000000423,-1.834808799797225776
0.602000000000000313,-1.820006473064679442
0.603000000000000425,-1.805365847370815846
0.604000000000000314,-1.790885008729829142
0.605000000000000426,-1.776562055049769828
0.606000000000000316,-1.762395096444563602
0.607000000000000428,-1.748382255531424345
0.608000000000000318,-1.734521667714145066
0.609000000000000430,-1.720811481452437119
0.610000000000000320,-1.707249858517791541
0.611000000000000432,-1.693834974236022362
0.612000000000000322,-1.680565017716946441
0.613000000000000433,-1.667438192071398761
0.614000000000000323,-1.654452714615957776
0.615000000000000435,-1.641606817065644819
0.616000000000000325,-1.628898745714912222
0.617000000000000437,-1.616326761607192353
0.618000000000000327,-1.603889140693347981
0.619000000000000439,-1.591584173979219141
0.620000000000000329,-1.579410167662651521
0.621000000000000441,-1.567365443260213320
0.622000000000000330,-1.555448337723893015
0.623000000000000442,-1.543657203548053802
0.624000000000000332,-1.531990408866909403
0.625000000000000444,-1.520446337542771031
0.626000000000000334,-1.509023389245344182
0.627000000000000446,-1.497719979522293965
0.628000000000000336,-1.486534539861367188
0.629000000000000448,-1.475465517744286359
0.630000000000000338,-1.464511376692678501
0.631000000000000449,-1.453670596306249951
0.632000000000000339,-1.442941672293464039
0.633000000000000451,-1.432323116494934379
0.634000000000000341,-1.421813456899768457
0.635000000000000453,-1.411411237655077811
0.636000000000000343,-1.401115019068859713
0.637000000000000455,-1.390923377606479772
0.638000000000000345,-1.380834905880975239
0.639000000000000457,-1.370848212637315156
0.640000000000000346,-1.360961922730935303
0.641000000000000458,-1.351174677100609456
0.642000000000000348,-1.341485132735973362
0.643000000000000460,-1.331891962639787597
0.644000000000000350,-1.322393855785203298
0.645000000000000462,-1.312989517068157808
0.646000000000000352,-1.303677667255112027
0.647000000000000464,-1.294457042926261181
0.648000000000000353,-1.285326396414470107
0.649000000000000465,-1.276284495739974378
0.650000000000000355,-1.267330124541153902
0.651000000000000467,-1.258462082001395199
0.652000000000000357,-1.249679182772335251
0.653000000000000469,-1.240980256893506661
0.654000000000000359,-1.232364149708657930
0.655000000000000471,-1.223829721778775026
0.656000000000000361,-1.215375848792058733
0.657000000000000473,-1.207001421470890623
0.658000000000000362,-1.198705345476022366
0.659000000000000474,-1.190486541308022783
0.660000000000000364,-1.182343944206210251
0.661000000000000476,-1.174276504045099978
0.662000000000000366,-1.166283185228564223
0.663000000000000478,-1.158362966581782505
