# TricalciumSilicate001_GLY
# h[nm],U(h)[kJ/mol]
0.149999999999999994,133.050248282766602870
0.150999999999999995,131.037233392475172877
0.151999999999999996,129.183774731975290706
0.152999999999999997,127.351335535980339841
0.153999999999999998,125.499658124771400480
0.154999999999999999,123.630725347641984513
0.156000000000000000,121.760000442152403366
0.157000000000000001,119.903168261567998343
0.158000000000000002,118.071232697162301406
0.159000000000000002,116.269764081329867622
0.160000000000000003,114.499920289950296137
0.161000000000000004,112.759977716270441306
0.162000000000000005,111.046763569633370139
0.163000000000000006,109.356750361338683319
0.164000000000000007,107.686768342142869415
0.165000000000000008,106.034383388807810888
0.166000000000000009,104.398021264254708740
0.167000000000000010,102.776921854044161364
0.168000000000000010,101.170995312835898972
0.169000000000000011,99.580635375518568253
0.170000000000000012,98.006528362117066422
0.171000000000000013,96.449481968540695220
0.172000000000000014,94.910286608348954474
0.173000000000000015,93.389613858595524221
0.174000000000000016,91.887951076466350742
0.175000000000000017,90.405567957683075520
0.176000000000000018,88.942509157539006992
0.177000000000000018,87.498606604216135452
0.178000000000000019,86.073505400533321108
0.179000000000000020,84.666697923300759498
0.180000000000000021,83.277561660354379569
0.181000000000000022,81.905397315259762081
0.182000000000000023,80.549464655558608683
0.183000000000000024,79.209014421682724105
0.184000000000000025,77.883315320580408070
0.185000000000000026,76.571675692347582753
0.186000000000000026,75.273459865289794379
0.187000000000000027,73.988099518669557142
0.188000000000000028,72.715100570896453291
0.189000000000000029,71.454046223403693716
0.190000000000000030,70.204596835711015501
0.191000000000000031,68.966487302327749376
0.192000000000000032,67.739522562094833802
0.193000000000000033,66.523571807707796211
0.194000000000000034,65.318561887487788908
0.195000000000000034,64.124470310667902595
0.196000000000000035,62.941318187247205174
0.197000000000000036,61.769163357817625126
0.198000000000000037,60.608093900284053746
0.199000000000000038,59.458222140540385681
0.200000000000000039,58.319679243549920500
0.201000000000000040,57.192610419879073902
0.202000000000000041,56.077170750083368489
0.203000000000000042,54.973521604678879271
0.204000000000000042,53.881827619818331243
0.205000000000000043,52.802254177223723275
0.206000000000000044,51.734965330381292858
0.207000000000000045,50.680122116516344022
0.208000000000000046,49.637881194527174955
0.209000000000000047,48.608393752068778326
0.210000000000000048,47.591804629636634161
0.211000000000000049,46.588251615219014923
0.212000000000000050,45.597864869368486040
0.213000000000000050,44.620766447006580790
0.214000000000000051,43.657069888608006636
0.215000000000000052,42.706879859394888399
0.216000000000000053,41.770291820644480651
0.217000000000000054,40.847391722077098564
0.218000000000000055,39.938255708489506901
0.219000000000000056,39.042949837316342609
0.220000000000000057,38.161529806647237706
0.221000000000000058,37.294040695440301647
0.222000000000000058,36.440516719293199799
0.223000000000000059,35.600981006230469461
0.224000000000000060,34.775445397596044472
0.225000000000000061,33.963910279377046209
0.226000000000000062,33.166364449190481878
0.227000000000000063,32.382785023806121671
0.228000000000000064,31.613137391515095942
0.229000000000000065,30.857375212938201514
0.230000000000000066,30.115440473053240567
0.231000000000000066,29.387263586345547139
0.232000000000000067,28.672763556091314996
0.233000000000000068,27.971848187896476645
0.234000000000000069,27.284414356763921461
0.235000000000000070,26.610348326164807276
0.236000000000000071,25.949526116864397807
0.237000000000000072,25.301813922606683604
0.238000000000000073,24.667068569204850803
0.239000000000000073,24.045138013119082387
0.240000000000000074,23.435861875228219731
0.241000000000000075,22.839072005219971828
0.242000000000000076,22.254593071828857376
0.243000000000000077,21.682243174038426048
0.244000000000000078,21.121834468328856360
0.245000000000000079,20.573173807085307629
0.246000000000000080,20.036063383380231073
0.247000000000000081,19.510301377494638331
0.248000000000000081,18.995682600744139279
0.249000000000000082,18.491999132415795515
0.250000000000000111,17.999040945894765997
0.251000000000000112,17.516596520358987732
0.252000000000000113,17.044453434737494746
0.253000000000000114,16.582398940960541012
0.254000000000000115,16.130220513867207899
0.255000000000000115,15.687706375478523313
0.256000000000000116,15.254645991683139172
0.257000000000000117,14.830830539715822880
0.258000000000000118,14.416053345134177022
0.259000000000000119,14.010110287310187260
0.260000000000000120,13.612800172751139627
0.261000000000000121,13.223925075845452071
0.262000000000000122,12.843290646891835749
0.263000000000000123,12.470706387514516322
0.264000000000000123,12.105985893790846220
0.265000000000000124,11.748947067621951845
0.266000000000000125,11.399412297060081301
0.267000000000000126,11.057208606469982826
0.268000000000000127,10.722167777543884171
0.269000000000000128,10.394126442314405523
0.270000000000000129,10.072926149413834906
0.271000000000000130,9.758413404915259548
0.272000000000000131,9.450439689161022727
0.273000000000000131,9.148861451037296533
0.274000000000000132,8.853540081192393885
0.275000000000000133,8.564341865720738411
0.276000000000000134,8.281137921845965977
0.277000000000000135,8.003804117136803953
0.278000000000000136,7.732220973777836903
0.279000000000000137,7.466273559396976900
0.280000000000000138,7.205851365922441687
0.281000000000000139,6.950848177904726199
0.282000000000000139,6.701161931696324459
0.283000000000000140,6.456694566832490878
0.284000000000000141,6.217351870902812827
0.285000000000000142,5.983043319145635586
0.286000000000000143,5.753681909936380734
0.287000000000000144,5.529183997277955953
0.288000000000000145,5.309469121335737007
0.289000000000000146,5.094459837994454787
0.290000000000000147,4.884081548346574486
0.291000000000000147,4.678262328955884009
0.292000000000000148,4.476932763672967219
0.293000000000000149,4.280025777714162594
0.294000000000000150,4.087476474650985736
0.295000000000000151,3.899221976894078345
0.296000000000000152,3.715201270194691485
0.297000000000000153,3.535355052627544126
0.298000000000000154,3.359625588461779166
0.299000000000000155,3.187956567272281827
0.300000000000000155,3.020292968591288485
0.301000000000000156,2.856580932350821111
0.302000000000000157,2.696767635319191836
0.303000000000000158,2.540801173690961257
0.304000000000000159,2.388630451947722833
0.305000000000000160,2.240205078068650657
0.306000000000000161,2.095475265133233123
0.307000000000000162,1.954391739325301414
0.308000000000000163,1.816905654316588237
0.309000000000000163,1.682968511979655135
0.310000000000000164,1.552532089354269784
0.311000000000000165,1.425548371767944911
0.312000000000000166,1.301969491990198069
0.313000000000000167,1.181747675281379362
0.314000000000000168,1.064835190180251967
0.315000000000000169,0.951184304859858387
0.316000000000000170,0.840747248868552122
0.317000000000000171,0.733476180062359928
0.318000000000000171,0.629323156525780858
0.319000000000000172,0.528240113270560641
0.320000000000000173,0.430178843496363039
0.321000000000000174,0.335090984192700170
0.322000000000000175,0.242928005858358137
0.323000000000000176,0.153641206112838435
0.324000000000000177,0.067181706973479846
0.325000000000000178,-0.016499544427504498
0.326000000000000179,-0.097451771910857368
0.327000000000000179,-0.175724363325225785
0.328000000000000180,-0.251366860848708740
0.329000000000000181,-0.324428948732835232
0.330000000000000182,-0.394960438700221850
0.331000000000000183,-0.463011253202671558
0.332000000000000184,-0.528631406740715959
0.333000000000000185,-0.591870985440021480
0.334000000000000186,-0.652780125073882167
0.335000000000000187,-0.711408987714422070
0.336000000000000187,-0.767807737188628825
0.337000000000000188,-0.822026513507984946
0.338000000000000189,-0.874115406433866093
0.339000000000000190,-0.924124428333280235
0.340000000000000191,-0.972103486472269296
0.341000000000000192,-1.018102354887150618
0.342000000000000193,-1.062170645966184379
0.343000000000000194,-1.104357781867198351
0.344000000000000195,-1.144712965889000955
0.345000000000000195,-1.183285153907856158
0.346000000000000196,-1.220123025982529530
0.347000000000000197,-1.255274958224944504
0.348000000000000198,-1.288788995026400874
0.349000000000000199,-1.320712821722679120
0.350000000000000200,-1.351093737774943015
0.351000000000000201,-1.379978630536852213
0.352000000000000202,-1.407413949672292386
0.353000000000000203,-1.433445682282173061
0.354000000000000203,-1.458119328792969460
0.355000000000000204,-1.481479879654125753
0.356000000000000205,-1.503571792886259528
0.357000000000000206,-1.524438972516980906
0.358000000000000207,-1.544124747936079567
0.359000000000000208,-1.562671854197511756
0.360000000000000209,-1.580122413290979022
0.361000000000000210,-1.596517916401684278
0.362000000000000210,-1.611899207173011828
0.363000000000000211,-1.626306465982936489
0.364000000000000212,-1.639779195241558130
0.365000000000000213,-1.652356205713702009
0.366000000000000214,-1.664075603867458231
0.367000000000000215,-1.674974780246494932
0.368000000000000216,-1.685090398861448291
0.369000000000000217,-1.694458387592806314
0.370000000000000218,-1.703113929595697851
0.371000000000000218,-1.711091455694474517
0.372000000000000219,-1.718424637753234396
0.373000000000000220,-1.725146383006423978
0.374000000000000221,-1.731288829332033430
0.375000000000000222,-1.736883341448231421
0.376000000000000223,-1.741960508013248088
0.377000000000000224,-1.746550139606614094
0.378000000000000225,-1.750681267569138555
0.379000000000000226,-1.754382143677775119
0.380000000000000226,-1.757680240630934421
0.381000000000000227,-1.760602253318732435
0.382000000000000228,-1.763174100852394677
0.383000000000000229,-1.765420929326284805
0.384000000000000230,-1.767367115285625179
0.385000000000000231,-1.769036269872886091
0.386000000000000232,-1.770451243625208892
0.387000000000000233,-1.771634131895474695
0.388000000000000234,-1.772606280869212680
0.389000000000000234,-1.773388294149845112
0.390000000000000235,-1.774000039884584767
0.391000000000000236,-1.774460658403631985
0.392000000000000237,-1.774788570345348093
0.393000000000000238,-1.775001485240493393
0.394000000000000239,-1.775116410528722266
0.395000000000000240,-1.775149660981078625
0.396000000000000241,-1.775116868502450984
0.397000000000000242,-1.775032992288431588
0.398000000000000242,-1.774912329311552295
0.399000000000000243,-1.774768525112185191
0.400000000000000244,-1.774614584870089162
0.401000000000000245,-1.774462884733075896
0.402000000000000246,-1.774325183379678261
0.403000000000000247,-1.774212633793569083
0.404000000000000248,-1.774135795227802515
0.405000000000000249,-1.774104645337765351
0.406000000000000250,-1.774128592462175913
0.407000000000000250,-1.774216488032275052
0.408000000000000251,-1.774376639089824348
0.409000000000000252,-1.774616820895323688
0.410000000000000253,-1.774944289608374692
0.411000000000000254,-1.775365795022877835
0.412000000000000255,-1.775887593340282233
0.413000000000000256,-1.776515459964933097
0.414000000000000257,-1.777254702305940626
0.415000000000000258,-1.778110172570963154
0.416000000000000258,-1.779086280537593323
0.417000000000000259,-1.780187006288973750
0.418000000000000260,-1.781415912900633503
0.419000000000000261,-1.782776159066355559
0.420000000000000262,-1.784270511651315561
0.421000000000000263,-1.785901358161513297
0.422000000000000264,-1.787670719118867213
0.423000000000000265,-1.789580260332140016
0.424000000000000266,-1.791631305054356194
0.425000000000000266,-1.793824846017761487
0.426000000000000267,-1.796161557338197046
0.427000000000000268,-1.798641806281039646
0.428000000000000269,-1.801265664881489981
0.429000000000000270,-1.804032921412468182
0.430000000000000271,-1.806943091693832715
0.431000000000000272,-1.809995430237165248
0.432000000000000273,-1.813188941220719830
0.433000000000000274,-1.816522389289714656
0.434000000000000274,-1.819994310177434738
0.435000000000000275,-1.823603021143117120
0.436000000000000276,-1.827346631222976470
0.437000000000000277,-1.831223051291062109
0.438000000000000278,-1.835230003927076137
0.439000000000000279,-1.839365033088632417
0.440000000000000280,-1.843625513585700038
0.441000000000000281,-1.848008660355413113
0.442000000000000282,-1.852511537535734387
0.443000000000000282,-1.857131067336604158
0.444000000000000283,-1.861864038707807811
0.445000000000000284,-1.866707115802724859
0.446000000000000285,-1.871656846237623739
0.447000000000000286,-1.876709669146421122
0.448000000000000287,-1.881861923030838657
0.449000000000000288,-1.887109853406454318
0.450000000000000289,-1.892449620245055808
0.451000000000000290,-1.897877305214117793
0.452000000000000290,-1.903388918714347344
0.453000000000000291,-1.908980406716390466
0.454000000000000292,-1.914647657398049319
0.455000000000000293,-1.920386507583470515
0.456000000000000294,-1.926192748985923631
0.457000000000000295,-1.932062134255979613
0.458000000000000296,-1.937990382836954906
0.459000000000000297,-1.943973186629710526
0.460000000000000298,-1.950006215468933046
0.461000000000000298,-1.956085122413191879
0.462000000000000299,-1.962205548851142067
0.463000000000000300,-1.968363129426316194
0.464000000000000301,-1.974553496783118645
0.465000000000000302,-1.980772286136600613
0.466000000000000303,-1.987015139668760755
0.467000000000000304,-1.993277710754142618
0.468000000000000305,-1.999555668017551913
0.469000000000000306,-2.005844699226782879
0.470000000000000306,-2.012140515023340903
0.471000000000000307,-2.018438852494031099
0.472000000000000308,-2.024735478586549675
0.473000000000000309,-2.031026193372048372
0.474000000000000310,-2.037306833157745523
0.475000000000000311,-2.043573273452722994
0.476000000000000312,-2.049821431789947024
0.477000000000000313,-2.056047270407725058
0.478000000000000314,-2.062246798793609504
0.479000000000000314,-2.068416076094007572
0.480000000000000315,-2.074551213392514804
0.481000000000000316,-2.080648375860191024
0.482000000000000317,-2.086703784780833182
0.483000000000000318,-2.092713719454398991
0.484000000000000319,-2.098674518981669124
0.485000000000000320,-2.104582583933206408
0.486000000000000321,-2.110434377905723746
0.487000000000000322,-2.116226428968865036
0.488000000000000322,-2.121955331005403345
0.489000000000000323,-2.127617744947918776
0.490000000000000324,-2.133210399914849287
0.491000000000000325,-2.138730094248892044
0.492000000000000326,-2.144173696460624168
0.493000000000000327,-2.149538146080268497
0.494000000000000328,-2.154820454420377285
0.495000000000000329,-2.160017705252292419
0.496000000000000330,-2.165127055399071576
0.497000000000000330,-2.170145735247730023
0.498000000000000331,-2.175071049183290306
0.499000000000000332,-2.179900375947484203
0.500000000000000333,-2.184631168924603184
0.501000000000000334,-2.189260956357013121
0.502000000000000335,-2.193787341492984933
0.503000000000000336,-2.198208002669181926
0.504000000000000337,-2.202520693330319634
0.505000000000000338,-2.206723241988323370
0.506000000000000338,-2.210813552123365611
0.507000000000000339,-2.214789602029054727
0.508000000000000340,-2.218649444603998155
0.509000000000000341,-2.222391207092022647
0.510000000000000342,-2.226013090773091285
0.511000000000000343,-2.229513370607141720
0.512000000000000344,-2.232890394832816483
0.513000000000000345,-2.236142584523144627
0.514000000000000346,-2.239268433100189526
0.515000000000000346,-2.242266505810481814
0.516000000000000347,-2.245135439163200797
0.517000000000000348,-2.247873940332951737
0.518000000000000349,-2.250480786528835431
0.519000000000000350,-2.252954824331669048
0.520000000000000351,-2.255294969000952499
0.521000000000000352,-2.257500203753361578
0.522000000000000353,-2.259569579014223173
0.523000000000000353,-2.261502211643698690
0.524000000000000354,-2.263297284139104359
0.525000000000000355,-2.264954043814889850
0.526000000000000356,-2.266471801961691845
0.527000000000000357,-2.267849932985921413
0.528000000000000358,-2.269087873531175692
0.529000000000000359,-2.270185121582859455
0.530000000000000360,-2.271141235557228022
0.531000000000000361,-2.271955833376175793
0.532000000000000361,-2.272628591528908171
0.533000000000000362,-2.273159244121695011
0.534000000000000363,-2.273547581916822047
0.535000000000000364,-2.273793451361853180
0.536000000000000365,-2.273896753610224586
0.537000000000000366,-2.273857443534238687
0.538000000000000367,-2.273675528731371021
0.539000000000000368,-2.273351068524968266
0.540000000000000369,-2.272884172960087490
0.541000000000000369,-2.272275001795540206
0.542000000000000370,-2.271523763492836245
0.543000000000000371,-2.270630714202968914
0.544000000000000372,-2.269596156751774174
0.545000000000000373,-2.268420439624640128
0.546000000000000374,-2.267103955951298211
0.547000000000000375,-2.265647142491391097
0.548000000000000376,-2.264050478621522977
0.549000000000000377,-2.262314485324397051
0.550000000000000377,-2.260439724180705490
0.551000000000000378,-2.258426796364304323
0.552000000000000379,-2.256276341641339833
0.553000000000000380,-2.253989037373760773
0.554000000000000381,-2.251565597527798168
0.555000000000000382,-2.249006771687941608
0.556000000000000383,-2.246313344076755758
0.557000000000000384,-2.243486132581172132
0.558000000000000385,-2.240525987785492834
0.559000000000000385,-2.237433792011663591
0.560000000000000386,-2.234210458367119401
0.561000000000000387,-2.230856929800594912
0.562000000000000388,-2.227374178166223295
0.563000000000000389,-2.223763203296309943
0.564000000000000390,-2.220025032082996397
0.565000000000000391,-2.216160717569189309
0.566000000000000392,-2.212171338048972480
0.567000000000000393,-2.208057996177801297
0.568000000000000393,-2.203821818092656315
0.569000000000000394,-2.199463952542441980
0.570000000000000395,-2.194985570028822330
0.571000000000000396,-2.190387861957626026
0.572000000000000397,-2.185672039801112465
0.573000000000000398,-2.180839334271143848
0.574000000000000399,-2.175890994503501652
0.575000000000000400,-2.170828287253425248
0.576000000000000401,-2.165652496102522750
0.577000000000000401,-2.160364920677193545
0.578000000000000402,-2.154966875878598032
0.579000000000000403,-2.149459691124288252
0.580000000000000404,-2.143844709601643750
0.581000000000000405,-2.138123287533049144
0.582000000000000406,-2.132296793452996830
0.583000000000000407,-2.126366607497065075
0.584000000000000408,-2.120334120702880298
0.585000000000000409,-2.114200734323043562
0.586000000000000409,-2.107967859150043477
0.587000000000000410,-2.101636914853222127
0.588000000000000411,-2.095209329327686998
0.589000000000000412,-2.088686538055307018
0.590000000000000413,-2.082069983477624397
0.591000000000000414,-2.075361114380787519
0.592000000000000415,-2.068561385292425392
0.593000000000000416,-2.061672255890407257
0.594000000000000417,-2.054695190423484696
0.595000000000000417,-2.047631657143800243
0.596000000000000418,-2.040483127751075543
0.597000000000000419,-2.033251076848629602
0.598000000000000420,-2.025936981410945137
0.599000000000000421,-2.018542320262902035
0.600000000000000422,-2.011068573570473639
0.601000000000000423,-2.003517222342870774
0.602000000000000424,-1.995889747946061998
0.603000000000000425,-1.988187631627544860
0.604000000000000425,-1.980412354052295099
0.605000000000000426,-1.972565394849809195
0.606000000000000427,-1.964648232172182984
0.607000000000000428,-1.956662342262970977
0.608000000000000429,-1.948609199036997808
0.609000000000000430,-1.940490273670697263
0.610000000000000431,-1.932307034203155638
0.611000000000000432,-1.924060945147553436
0.612000000000000433,-1.915753467112974562
0.613000000000000433,-1.907386056436485733
