# TricalciumSilicate001_GLUPSCA-JS
# h[nm],U(h)[kJ/mol]
0.149999999999999994,133.710414663463268425
0.150999999999999995,132.059694312719699383
0.151999999999999996,130.331765463868748611
0.152999999999999997,128.612604451294117780
0.153999999999999998,126.926500778355034527
0.154999999999999999,125.271787908747270990
0.156000000000000000,123.639104133090427240
0.157000000000000001,122.019666745058586343
0.158000000000000002,120.408151995234760534
0.159000000000000002,118.802912384599338225
0.160000000000000003,117.205087475694512023
0.161000000000000004,115.617439757441800907
0.162000000000000005,114.043314438156016877
0.163000000000000006,112.485875046618275519
0.164000000000000007,110.947635024900051803
0.165000000000000008,109.430243177369035834
0.166000000000000009,107.934458452158281716
0.167000000000000010,106.460248612692140568
0.168000000000000010,105.006956673321639073
0.169000000000000011,103.573491969041285188
0.170000000000000012,102.158515815593915477
0.171000000000000013,100.760603134335127606
0.172000000000000014,99.378370494597533025
0.173000000000000015,98.010567703813393337
0.174000000000000016,96.656134602614955043
0.175000000000000017,95.314227479208625482
0.176000000000000018,93.984220911015114552
0.177000000000000018,92.665691248359891574
0.178000000000000019,91.358387695628323399
0.179000000000000020,90.062196276906760772
0.180000000000000021,88.777101091445544512
0.181000000000000022,87.503146310763014526
0.182000000000000023,86.240401440220665563
0.183000000000000024,84.988931524024238229
0.184000000000000025,83.748773247262477071
0.185000000000000026,82.519917295435874394
0.186000000000000026,81.302296870930547357
0.187000000000000027,80.095781928169827779
0.188000000000000028,78.900178460636524846
0.189000000000000029,77.715232037011631405
0.190000000000000030,76.540634723116042437
0.191000000000000031,75.376034524633809042
0.192000000000000032,74.221046527649804148
0.193000000000000033,73.075264986642167742
0.194000000000000034,71.938275701576600341
0.195000000000000034,70.809668128043227853
0.196000000000000035,69.689046769774577683
0.197000000000000036,68.576041505942470167
0.198000000000000037,67.470316602414968088
0.199000000000000038,66.371578244017342740
0.200000000000000039,65.279580502177140033
0.201000000000000040,64.194129718386733430
0.202000000000000041,63.115087338569779263
0.203000000000000042,62.042371277068809832
0.204000000000000042,60.975955922281379173
0.205000000000000043,59.915870919910048542
0.206000000000000044,58.862198885417477356
0.207000000000000045,57.815072205722685794
0.208000000000000046,56.774669092565297035
0.209000000000000047,55.741209047384288056
0.210000000000000048,54.714947891027421178
0.211000000000000049,53.696172502052561981
0.212000000000000050,52.685195395630138648
0.213000000000000050,51.682349261834509946
0.214000000000000051,50.687981568036562408
0.215000000000000052,49.702449315703788102
0.216000000000000053,48.726114027602051237
0.217000000000000054,47.759337027514121132
0.218000000000000055,46.802475061406639156
0.219000000000000056,45.855876296683817372
0.220000000000000057,44.919876724892951358
0.221000000000000058,43.994796983085493025
0.222000000000000058,43.080939600016108670
0.223000000000000059,42.178586665502315611
0.224000000000000060,41.287997914533555388
0.225000000000000061,40.409409212076411677
0.226000000000000062,39.543031419908338364
0.227000000000000063,38.689049623154211588
0.228000000000000064,37.847622691422039054
0.229000000000000065,37.018883147446587145
0.230000000000000066,36.202937314874468200
0.231000000000000066,35.399865716168910978
0.232000000000000067,34.609723691500818177
0.233000000000000068,33.832542209840468672
0.234000000000000069,33.068328844199932348
0.235000000000000070,32.317068884029154674
0.236000000000000071,31.578726559075903424
0.237000000000000072,30.853246350521612129
0.238000000000000073,30.140554366852633450
0.239000000000000073,29.440559763671693361
0.240000000000000074,28.753156188455925246
0.241000000000000075,28.078223233094700362
0.242000000000000076,27.415627878859076816
0.243000000000000077,26.765225920241555002
0.244000000000000078,26.126863355839919478
0.245000000000000079,25.500377736124214323
0.246000000000000080,24.885599459510235221
0.247000000000000081,24.282353009653586895
0.248000000000000081,23.690458128271600913
0.249000000000000082,23.109730919089447099
0.250000000000000111,22.539984879689917818
0.251000000000000112,21.981031859123135064
0.252000000000000113,21.432682940102903757
0.253000000000000114,20.894749245485471079
0.254000000000000115,20.367042669492782636
0.255000000000000115,19.849376534815267092
0.256000000000000116,19.341566177308948227
0.257000000000000117,18.843429460496643912
0.258000000000000118,18.354787222497225940
0.259000000000000119,17.875463658346443907
0.260000000000000120,17.405286640943131715
0.261000000000000121,16.944087984062750962
0.262000000000000122,16.491703651030398703
0.263000000000000123,16.047973912744431857
0.264000000000000123,15.612743458794483331
0.265000000000000124,15.185861465429713490
0.266000000000000125,14.767181624108729920
0.267000000000000126,14.356562134307864653
0.268000000000000127,13.953865664181316575
0.269000000000000128,13.558959282562877746
0.270000000000000129,13.171714365674239033
0.271000000000000130,12.792006481765573866
0.272000000000000131,12.419715256762581035
0.273000000000000131,12.054724223832719687
0.274000000000000132,11.696920659615546612
0.275000000000000133,11.346195409689347144
0.276000000000000134,11.002442705671272805
0.277000000000000135,10.665559976173113910
0.278000000000000136,10.335447653659551648
0.279000000000000137,10.012008979084061622
0.280000000000000138,9.695149806009052185
0.281000000000000139,9.384778405752523867
0.282000000000000139,9.080805274945285888
0.283000000000000140,8.783142946729970646
0.284000000000000141,8.491705806687583902
0.285000000000000142,8.206409914438271613
0.286000000000000143,7.927172831731695624
0.287000000000000144,7.653913457718769742
0.288000000000000145,7.386551871979882833
0.289000000000000146,7.125009185777043008
0.290000000000000147,6.869207401895964793
0.291000000000000147,6.619069283351549871
0.292000000000000148,6.374518231144145730
0.293000000000000149,6.135478171176043105
0.294000000000000150,5.901873450365962448
0.295000000000000151,5.673628741935031528
0.296000000000000152,5.450668959779699563
0.297000000000000153,5.232919181795352870
0.298000000000000154,5.020304581968564328
0.299000000000000155,4.812750371015785511
0.300000000000000155,4.610181745311399126
0.301000000000000156,4.412523843818330960
0.302000000000000157,4.219701712708856078
0.303000000000000158,4.031640277342834366
0.304000000000000159,3.848264321253318521
0.305000000000000160,3.669498471776728277
0.306000000000000161,3.495267191954854802
0.307000000000000162,3.325494778329439072
0.308000000000000163,3.160105364246523774
0.309000000000000163,2.999022928286481537
0.310000000000000164,2.842171307436964778
0.311000000000000165,2.689474214629358872
0.312000000000000166,2.540855260264447413
0.313000000000000167,2.396237977359914950
0.314000000000000168,2.255545849960626903
0.315000000000000169,2.118702344462154663
0.316000000000000170,1.985630943508527313
0.317000000000000171,1.856255182137026338
0.318000000000000171,1.730498685854913177
0.319000000000000172,1.608285210345898664
0.320000000000000173,1.489538682517700163
0.321000000000000174,1.374183242615792500
0.322000000000000175,1.262143287142311276
0.323000000000000176,1.153343512333484755
0.324000000000000177,1.047708957962993237
0.325000000000000178,0.945165051253149313
0.326000000000000179,0.845637650689560205
0.327000000000000179,0.749053089549289730
0.328000000000000180,0.655338218966100228
0.329000000000000181,0.564420450369802151
0.330000000000000182,0.476227797150193422
0.331000000000000183,0.390688915408550719
0.332000000000000184,0.307733143672448528
0.333000000000000185,0.227290541461554696
0.334000000000000186,0.149291926603670272
0.335000000000000187,0.073668911211603044
0.336000000000000187,0.000353936241971153
0.337000000000000188,-0.070719695432363699
0.338000000000000189,-0.139617787495191076
0.339000000000000190,-0.206405220254542610
0.340000000000000191,-0.271145922345519763
0.341000000000000192,-0.333902844100778196
0.342000000000000193,-0.394737932613031084
0.343000000000000194,-0.453712108506761080
0.344000000000000195,-0.510885244428980534
0.345000000000000195,-0.566316145263122461
0.346000000000000196,-0.620062530063334227
0.347000000000000197,-0.672181015701485363
0.348000000000000198,-0.722727102213660211
0.349000000000000199,-0.771755159828312554
0.350000000000000200,-0.819318417653871700
0.351000000000000201,-0.865468953999569246
0.352000000000000202,-0.910257688299634493
0.353000000000000203,-0.953734374607827062
0.354000000000000203,-0.995947596626254650
0.355000000000000204,-1.036944764229790872
0.356000000000000205,-1.076772111445168267
0.357000000000000206,-1.115474695841908837
0.358000000000000207,-1.153096399290154395
0.359000000000000208,-1.189679930039384548
0.360000000000000209,-1.225266826070603887
0.361000000000000210,-1.259897459673427145
0.362000000000000210,-1.293611043199017541
0.363000000000000211,-1.326445635938942047
0.364000000000000212,-1.358438152079846750
0.365000000000000213,-1.389624369683460037
0.366000000000000214,-1.420038940641518810
0.367000000000000215,-1.449715401555174754
0.368000000000000216,-1.478686185488865101
0.369000000000000217,-1.506982634548743150
0.370000000000000218,-1.534635013236554268
0.371000000000000218,-1.561672522530116902
0.372000000000000219,-1.588123314642566175
0.373000000000000220,-1.614014508413115223
0.374000000000000221,-1.639372205283020634
0.375000000000000222,-1.664221505811243729
0.376000000000000223,-1.688586526685668998
0.377000000000000224,-1.712490418186293883
0.378000000000000225,-1.735955382058316898
0.379000000000000226,-1.759002689753954796
0.380000000000000226,-1.781652701003208605
0.381000000000000227,-1.803924882674773134
0.382000000000000228,-1.825837827889748466
0.383000000000000229,-1.847409275351936442
0.384000000000000230,-1.868656128859788934
0.385000000000000231,-1.889594476966461212
0.386000000000000232,-1.910239612755517014
0.387000000000000233,-1.930606053701372060
0.388000000000000234,-1.950707561584551941
0.389000000000000234,-1.970557162433447917
0.390000000000000235,-1.990167166465205639
0.391000000000000236,-2.009549187999923880
0.392000000000000237,-2.028714165323338925
0.393000000000000238,-2.047672380474641063
0.394000000000000239,-2.066433478937034884
0.395000000000000240,-2.085006489210081249
0.396000000000000241,-2.103399842243837359
0.397000000000000242,-2.121621390716073918
0.398000000000000242,-2.139678428134942578
0.399000000000000243,-2.157577707750506502
0.400000000000000244,-2.175325461259691728
0.401000000000000245,-2.192927417290275294
0.402000000000000246,-2.210388819650333847
0.403000000000000247,-2.227714445330915005
0.404000000000000248,-2.244908622250279429
0.405000000000000249,-2.261975246729256206
0.406000000000000250,-2.278917800687970896
0.407000000000000250,-2.295739368555198556
0.408000000000000251,-2.312442653882322841
0.409000000000000252,-2.329029995654768648
0.410000000000000253,-2.345503384294482796
0.411000000000000254,-2.361864477347829006
0.412000000000000255,-2.378114614853914510
0.413000000000000256,-2.394254834389179631
0.414000000000000257,-2.410285885784515081
0.415000000000000258,-2.426208245512085249
0.416000000000000258,-2.442022130739318619
0.417000000000000259,-2.457727513048402646
0.418000000000000260,-2.473324131819901517
0.419000000000000261,-2.488811507279836910
0.420000000000000262,-2.504188953209889323
0.421000000000000263,-2.519455589321045519
0.422000000000000264,-2.534610353291179674
0.423000000000000265,-2.549652012467760631
0.424000000000000266,-2.564579175237131192
0.425000000000000266,-2.579390302062079421
0.426000000000000267,-2.594083716189998778
0.427000000000000268,-2.608657614034087135
0.428000000000000269,-2.623110075230334459
0.429000000000000270,-2.637439072373507720
0.430000000000000271,-2.651642480435345561
0.431000000000000272,-2.665718085868690412
0.432000000000000273,-2.679663595401281295
0.433000000000000274,-2.693476644523314256
0.434000000000000274,-2.707154805672971953
0.435000000000000275,-2.720695596124313553
0.436000000000000276,-2.734096485582143021
0.437000000000000277,-2.747354903488508082
0.438000000000000278,-2.760468246045729934
0.439000000000000279,-2.773433882960900210
0.440000000000000280,-2.786249163916921567
0.441000000000000281,-2.798911424775228252
0.442000000000000282,-2.811417993515522795
0.443000000000000282,-2.823766195917672306
0.444000000000000283,-2.835953360991323002
0.445000000000000284,-2.847976826158502117
0.446000000000000285,-2.859833942194705880
0.447000000000000286,-2.871522077934030026
0.448000000000000287,-2.883038624743685663
0.449000000000000288,-2.894381000773585733
0.450000000000000289,-2.905546654986374655
0.451000000000000290,-2.916533070973479802
0.452000000000000290,-2.927337770562699060
0.453000000000000291,-2.937958317222737481
0.454000000000000292,-2.948392319270186412
0.455000000000000293,-2.958637432884387408
0.456000000000000294,-2.968691364935502008
0.457000000000000295,-2.978551875631229251
0.458000000000000296,-2.988216780987345000
0.459000000000000297,-2.997683955127440569
0.460000000000000298,-3.006951332416949008
0.461000000000000298,-3.016016909436665117
0.462000000000000299,-3.024878746800800045
0.463000000000000300,-3.033534970824554033
0.464000000000000301,-3.041983775046224636
0.465000000000000302,-3.050223421608610153
0.466000000000000303,-3.058252242504605700
0.467000000000000304,-3.066068640691652636
0.468000000000000305,-3.073671091079675843
0.469000000000000306,-3.081058141397106098
0.470000000000000306,-3.088228412939473255
0.471000000000000307,-3.095180601204894799
0.472000000000000308,-3.101913476420869564
0.473000000000000309,-3.108425883966566605
0.474000000000000310,-3.114716744694717931
0.475000000000000311,-3.120785055157243804
0.476000000000000312,-3.126629887738531011
0.477000000000000313,-3.132250390700288101
0.478000000000000314,-3.137645788141720349
0.479000000000000314,-3.142815379878822757
0.480000000000000315,-3.147758541246314046
0.481000000000000316,-3.152474722825858944
0.482000000000000317,-3.156963450103917435
0.483000000000000318,-3.161224323062678643
0.484000000000000319,-3.165257015707313659
0.485000000000000320,-3.169061275532733646
0.486000000000000321,-3.172636922933008030
0.487000000000000322,-3.175983850556413746
0.488000000000000322,-3.179102022609066491
0.489000000000000323,-3.181991474110048124
0.490000000000000324,-3.184652310100740458
0.491000000000000325,-3.187084704811087299
0.492000000000000326,-3.189288900785396841
0.493000000000000327,-3.191265207970256146
0.494000000000000328,-3.193014002766952686
0.495000000000000329,-3.194535727050864082
0.496000000000000330,-3.195830887160028944
0.497000000000000330,-3.196900052855286223
0.498000000000000331,-3.197743856253917549
0.499000000000000332,-3.198362990739128442
0.500000000000000333,-3.198758209847237133
0.501000000000000334,-3.198930326134514335
0.502000000000000335,-3.198880210025664805
0.503000000000000336,-3.198608788645658230
0.504000000000000337,-3.198117044636732853
0.505000000000000338,-3.197406014962200782
0.506000000000000338,-3.196476789698731835
0.507000000000000339,-3.195330510818649383
0.508000000000000340,-3.193968370963717440
0.509000000000000341,-3.192391612211960883
0.510000000000000342,-3.190601524838749814
0.511000000000000343,-3.188599446073651755
0.512000000000000344,-3.186386758854172996
0.513000000000000345,-3.183964890577707152
0.514000000000000346,-3.181335311852876657
0.515000000000000346,-3.178499535251277930
0.516000000000000347,-3.175459114060806165
0.517000000000000348,-3.172215641041568723
0.518000000000000349,-3.168770747185288172
0.519000000000000350,-3.165126100479234150
0.520000000000000351,-3.161283404675455877
0.521000000000000352,-3.157244398066281210
0.522000000000000353,-3.153010852266755926
0.523000000000000353,-3.148584571004878097
0.524000000000000354,-3.143967388920317241
0.525000000000000355,-3.139161170372284371
0.526000000000000356,-3.134167808257193766
0.527000000000000357,-3.128989222836789263
0.528000000000000358,-3.123627360577207579
0.529000000000000359,-3.118084192999623916
0.530000000000000360,-3.112361715542868446
0.531000000000000361,-3.106461946438614063
0.532000000000000361,-3.100386925599490251
0.533000000000000362,-3.094138713520560913
0.534000000000000363,-3.087719390194560987
0.535000000000000364,-3.081131054041255091
0.536000000000000365,-3.074375820851214858
0.537000000000000366,-3.067455822744371119
0.538000000000000367,-3.060373207143534113
0.539000000000000368,-3.053130135763278297
0.540000000000000369,-3.045728783614252144
0.541000000000000369,-3.038171338023285095
0.542000000000000370,-3.030459997669331162
0.543000000000000371,-3.022596971635546304
0.544000000000000372,-3.014584478477558172
0.545000000000000373,-3.006424745308104995
0.546000000000000374,-2.998120006898104872
0.547000000000000375,-2.989672504794312680
0.548000000000000376,-2.981084486453577931
0.549000000000000377,-2.972358204393793280
0.550000000000000377,-2.963495915361592736
0.551000000000000378,-2.954499879516748528
0.552000000000000379,-2.945372359633406045
0.553000000000000380,-2.936115620318038744
0.554000000000000381,-2.926731927244150988
0.555000000000000382,-2.917223546403776346
0.556000000000000383,-2.907592743375563504
0.557000000000000384,-2.897841782609610561
0.558000000000000385,-2.887972926728786582
0.559000000000000385,-2.877988435846629223
0.560000000000000386,-2.867890566901645233
0.561000000000000387,-2.857681573007966325
0.562000000000000388,-2.847363702822208076
0.563000000000000389,-2.836939199926542088
0.564000000000000390,-2.826410302227706506
0.565000000000000391,-2.815779241371976660
0.566000000000000392,-2.805048242175867568
0.567000000000000393,-2.794219522072520334
0.568000000000000393,-2.783295290573524206
0.569000000000000394,-2.772277748746122761
0.570000000000000395,-2.761169088705624386
0.571000000000000396,-2.749971493122797206
0.572000000000000397,-2.738687134746203622
0.573000000000000398,-2.727318175939185352
0.574000000000000399,-2.715866768231419925
0.575000000000000400,-2.704335051884816377
0.576000000000000401,-2.692725155473579157
0.577000000000000401,-2.681039195478330583
0.578000000000000402,-2.669279275893973402
0.579000000000000403,-2.657447487851206436
0.580000000000000404,-2.645545909251524996
0.581000000000000405,-2.633576604415378775
0.582000000000000406,-2.621541623743469440
0.583000000000000407,-2.609443003390822469
0.584000000000000408,-2.597282764953592338
0.585000000000000409,-2.585062915168276909
0.586000000000000409,-2.572785445623198886
0.587000000000000410,-2.560452332482094473
0.588000000000000411,-2.548065536219479732
0.589000000000000412,-2.535627001367770639
0.590000000000000413,-2.523138656275777603
0.591000000000000414,-2.510602412878500722
0.592000000000000415,-2.498020166477983750
0.593000000000000416,-2.485393795534986960
0.594000000000000417,-2.472725161471310606
0.595000000000000417,-2.460016108482646846
0.596000000000000418,-2.447268463361536028
0.597000000000000419,-2.434484035330529039
0.598000000000000420,-2.421664615885074312
0.599000000000000421,-2.408811978646133500
0.600000000000000422,-2.395927879222220724
0.601000000000000423,-2.383014055080697080
0.602000000000000424,-2.370072225428145885
0.603000000000000425,-2.357104091099617271
0.604000000000000425,-2.344111334456527196
0.605000000000000426,-2.331095619293058974
0.606000000000000427,-2.318058590750905257
0.607000000000000428,-2.305001875241999620
0.608000000000000429,-2.291927080379343451
0.609000000000000430,-2.278835794915398338
0.610000000000000431,-2.265729588688179419
0.611000000000000432,-2.252610012574637999
0.612000000000000433,-2.239478598451256630
0.613000000000000433,-2.226336859161698545
