# TricalciumSilicate001_PROSCA-AC
# h[nm],U(h)[kJ/mol]
0.149999999999999994,137.473874544117336427
0.150999999999999995,136.127494629925365643
0.151999999999999996,134.167387506368811501
0.152999999999999997,132.050936322236452725
0.153999999999999998,129.975392977877959311
0.154999999999999999,128.001143089337489300
0.156000000000000000,126.124425671771291491
0.157000000000000001,124.317969592264944367
0.158000000000000002,122.551866875114228606
0.159000000000000002,120.802754327428289116
0.160000000000000003,119.056471681069950819
0.161000000000000004,117.307408920184570889
0.162000000000000005,115.556461071818915798
0.163000000000000006,113.808670344598382940
0.164000000000000007,112.071107449109106824
0.165000000000000008,110.351223725812360499
0.166000000000000009,108.655721958815504991
0.167000000000000010,106.989897351372476919
0.168000000000000010,105.357357773088551767
0.169000000000000011,103.760021867054405220
0.170000000000000012,102.198300468352570647
0.171000000000000013,100.671381885815407031
0.172000000000000014,99.177559380926467725
0.173000000000000015,97.714556468754068419
0.174000000000000016,96.279820835546004787
0.175000000000000017,94.870770051325408190
0.176000000000000018,93.484981764767368873
0.177000000000000018,92.120327931524144560
0.178000000000000019,90.775057228345616522
0.179000000000000020,89.447832575831540680
0.180000000000000021,88.137732053719290093
0.181000000000000022,86.844221822296745472
0.182000000000000023,85.567109282249859348
0.183000000000000024,84.306483872428401583
0.184000000000000025,83.062651822201047480
0.185000000000000026,81.836069992441167642
0.186000000000000026,80.627282763410306643
0.187000000000000027,79.436864830148664396
0.188000000000000028,78.265371789856274631
0.189000000000000029,77.113299573438894186
0.190000000000000030,75.981053091732547955
0.191000000000000031,74.868923931976013364
0.192000000000000032,73.777076540882305267
0.193000000000000033,72.705542051995138308
0.194000000000000034,71.654218739714437447
0.195000000000000034,70.622877992763108068
0.196000000000000035,69.611174678890151313
0.197000000000000036,68.618660804497991990
0.198000000000000037,67.644801443597771140
0.199000000000000038,66.688992007883300062
0.200000000000000039,65.750576043568784712
0.201000000000000040,64.828862862612680829
0.202000000000000041,63.923144439453650989
0.203000000000000042,63.032711124358549171
0.204000000000000042,62.156865837236317418
0.205000000000000043,61.294936508772160266
0.206000000000000044,60.446286627400084512
0.207000000000000045,59.610323830168525205
0.208000000000000046,58.786506542776784556
0.209000000000000047,57.974348729255872570
0.210000000000000048,57.173422855571097045
0.211000000000000049,56.383361204703852820
0.212000000000000050,55.603855704552223926
0.213000000000000050,54.834656445380986156
0.214000000000000051,54.075569071681869104
0.215000000000000052,53.326451235294278774
0.216000000000000053,52.587208293549679183
0.217000000000000054,51.857788429041548284
0.218000000000000055,51.138177357297898595
0.219000000000000056,50.428392775965804162
0.220000000000000057,49.728478694829000517
0.221000000000000058,49.038499770698088298
0.222000000000000058,48.358535755467421779
0.223000000000000059,47.688676149869294818
0.224000000000000060,47.029015140034104547
0.225000000000000061,46.379646879171936291
0.226000000000000062,45.740661162744565615
0.227000000000000063,45.112139532558934718
0.228000000000000064,44.494151833391072159
0.229000000000000065,43.886753235108855620
0.230000000000000066,43.289981723830599947
0.231000000000000066,42.703856057431515580
0.232000000000000067,42.128374173665626756
0.233000000000000068,41.563512033257097755
0.234000000000000069,41.009222875475281000
0.235000000000000070,40.465436859865796748
0.236000000000000071,39.932061064888813462
0.237000000000000072,39.408979812130695564
0.238000000000000073,38.896055283420949422
0.239000000000000073,38.393128397518246686
0.240000000000000074,37.900019912941409927
0.241000000000000075,37.416531723936969911
0.242000000000000076,36.942448317412960535
0.243000000000000077,36.477538359861775064
0.244000000000000078,36.021556384773319337
0.245000000000000079,35.574244552744069381
0.246000000000000080,35.135334458362692089
0.247000000000000081,34.704548959947508990
0.248000000000000081,34.281604010283331263
0.249000000000000082,33.866210468614184492
0.250000000000000111,33.458075876262462600
0.251000000000000112,33.056906180333854195
0.252000000000000113,32.662407392007565932
0.253000000000000114,32.274287167883286997
0.254000000000000115,31.892256304742101491
0.255000000000000115,31.516030139867758919
0.256000000000000116,31.145329850755029355
0.257000000000000117,30.779883649599288020
0.258000000000000118,30.419427869408870890
0.259000000000000119,30.063707939908880462
0.260000000000000120,29.712479252609846014
0.261000000000000121,29.365507915500028702
0.262000000000000122,29.022571398786244146
0.263000000000000123,28.683459073960655417
0.264000000000000123,28.347972649212994867
0.265000000000000124,28.015926504844600231
0.266000000000000125,27.687147932878719558
0.267000000000000126,27.361477285505696244
0.268000000000000127,27.038768037359222518
0.269000000000000128,26.718886766896702056
0.270000000000000129,26.401713062359334572
0.271000000000000130,26.087139357922826122
0.272000000000000131,25.775070705723077680
0.273000000000000131,25.465424489460083635
0.274000000000000132,25.158130085252452091
0.275000000000000133,24.853128475341019765
0.276000000000000134,24.550371820127850242
0.277000000000000135,24.249822993892131251
0.278000000000000136,23.951455089351355809
0.279000000000000137,23.655250896039557773
0.280000000000000138,23.361202357258989082
0.281000000000000139,23.069310010129662203
0.282000000000000139,22.779582413018623299
0.283000000000000140,22.492035564378277002
0.284000000000000141,22.206692316765970219
0.285000000000000142,21.923581789555907307
0.286000000000000143,21.642738783592768925
0.287000000000000144,21.364203200776696434
0.288000000000000145,21.088019471311330477
0.289000000000000146,20.814235991095181078
0.290000000000000147,20.542904571489408738
0.291000000000000147,20.274079903456900809
0.292000000000000148,20.007819037836171105
0.293000000000000149,19.744180883292575146
0.294000000000000150,19.483225723276934360
0.295000000000000151,19.225014753120309052
0.296000000000000152,18.969609638202150848
0.297000000000000153,18.717072093949354894
0.298000000000000154,18.467463488253724080
0.299000000000000155,18.220844466737496248
0.300000000000000155,17.977274601148980793
0.301000000000000156,17.736812061034001431
0.302000000000000157,17.499513308702677961
0.303000000000000158,17.265432817396010989
0.304000000000000159,17.034622812451196694
0.305000000000000160,16.807133035169222524
0.306000000000000161,16.583010529002358169
0.307000000000000162,16.362299447602200786
0.308000000000000163,16.145040884200831499
0.309000000000000163,15.931272721737721909
0.310000000000000164,15.721029503092930568
0.311000000000000165,15.514342320742642301
0.312000000000000166,15.311238725115462245
0.313000000000000167,15.111742650896669460
0.314000000000000168,14.915874360503133644
0.315000000000000169,14.723650403931959119
0.316000000000000170,14.535083594172315102
0.317000000000000171,14.350182997360917625
0.318000000000000171,14.168953936857059617
0.319000000000000172,13.991398010412751773
0.320000000000000173,13.817513119617075290
0.321000000000000174,13.647293510800560412
0.322000000000000175,13.480729826595293730
0.323000000000000176,13.317809167359333955
0.324000000000000177,13.158515161688828954
0.325000000000000178,13.002828045258848277
0.326000000000000179,12.850724747252849411
0.327000000000000179,12.702178983661763567
0.328000000000000180,12.557161356755841553
0.329000000000000181,12.415639460055661658
0.330000000000000182,12.277577988153499433
0.331000000000000183,12.142938850760936376
0.332000000000000184,12.011681290384709442
0.333000000000000185,11.883762003058922829
0.334000000000000186,11.759135261588140153
0.335000000000000187,11.637753040782580882
0.336000000000000187,11.519565144193244066
0.337000000000000188,11.404519331881465050
0.338000000000000189,11.292561448783533962
0.339000000000000190,11.183635553257136763
0.340000000000000191,11.077684045422214965
0.341000000000000192,10.974647794933741096
0.342000000000000193,10.874466267848839962
0.343000000000000194,10.777077652274620334
0.344000000000000195,10.682418982506829863
0.345000000000000195,10.590426261391829854
0.346000000000000196,10.501034580666939178
0.347000000000000197,10.414178239055335240
0.348000000000000198,10.329790857912321655
0.349000000000000199,10.247805494239720758
0.350000000000000200,10.168154750904069061
0.351000000000000201,10.090770883912730582
0.352000000000000202,10.015585906619319800
0.353000000000000203,9.942531690746568174
0.354000000000000203,9.871540064130671865
0.355000000000000204,9.802542905106088611
0.356000000000000205,9.735472233464191660
0.357000000000000206,9.670260297932451010
0.358000000000000207,9.606839660133873693
0.359000000000000208,9.545143274998107330
0.360000000000000209,9.485104567607045567
0.361000000000000210,9.426657506468268721
0.362000000000000210,9.369736673219493994
0.363000000000000211,9.314277328776388032
0.364000000000000212,9.260215475944605146
0.365000000000000213,9.207487918524790871
0.366000000000000214,9.156032316946554062
0.367000000000000215,9.105787240474183974
0.368000000000000216,9.056692216032754317
0.369000000000000217,9.008687773709256774
0.370000000000000218,8.961715488987902489
0.371000000000000218,8.915718021783897385
0.372000000000000219,8.870639152343503753
0.373000000000000220,8.826423814082257735
0.374000000000000221,8.783018123436114877
0.375000000000000222,8.740369406803415231
0.376000000000000223,8.698426224657470840
0.377000000000000224,8.657138392912163027
0.378000000000000225,8.616457001624231893
0.379000000000000226,8.576334431117487611
0.380000000000000226,8.536724365615150134
0.381000000000000227,8.497581804467390754
0.382000000000000228,8.458863071061566430
0.383000000000000229,8.420525819502916676
0.384000000000000230,8.382529039153556738
0.385000000000000231,8.344833057117339692
0.386000000000000232,8.307399538757795909
0.387000000000000233,8.270191486335781050
0.388000000000000234,8.233173235852719429
0.389000000000000234,8.196310452184366824
0.390000000000000235,8.159570122589007823
0.391000000000000236,8.122920548672826868
0.392000000000000237,8.086331336893820776
0.393000000000000238,8.049773387684325598
0.394000000000000239,8.013218883270571524
0.395000000000000240,7.976641274266232706
0.396000000000000241,7.940015265115197174
0.397000000000000242,7.903316798457028725
0.398000000000000242,7.866523038486853636
0.399000000000000243,7.829612353379542533
0.400000000000000244,7.792564296846236971
0.401000000000000245,7.755359588889104039
0.402000000000000246,7.717980095818774089
0.403000000000000247,7.680408809596279696
0.404000000000000248,7.642629826559991457
0.405000000000000249,7.604628325595589544
0.406000000000000250,7.566390545805377954
0.407000000000000250,7.527903763731150555
0.408000000000000251,7.489156270182919073
0.409000000000000252,7.450137346723742837
0.410000000000000253,7.410837241859060676
0.411000000000000254,7.371247146976889653
0.412000000000000255,7.331359172083426579
0.413000000000000256,7.291166321376600479
0.414000000000000257,7.250662468698370944
0.415000000000000258,7.209842332904608853
0.416000000000000258,7.168701453189733286
0.417000000000000259,7.127236164401345775
0.418000000000000260,7.085443572378513188
0.419000000000000261,7.043321529345559107
0.420000000000000262,7.000868609391571518
0.421000000000000263,6.958084084064251940
0.422000000000000264,6.914967898105118138
0.423000000000000265,6.871520645351519185
0.424000000000000266,6.827743544829393940
0.425000000000000266,6.783638417059364656
0.426000000000000267,6.739207660597152483
0.427000000000000268,6.694454228828076836
0.428000000000000269,6.649381607033997277
0.429000000000000270,6.603993789749749155
0.430000000000000271,6.558295258424942986
0.431000000000000272,6.512290959405683921
0.432000000000000273,6.465986282249721384
0.433000000000000274,6.419387038387315947
0.434000000000000274,6.372499440139024252
0.435000000000000275,6.325330080100697749
0.436000000000000276,6.277885910904794642
0.437000000000000277,6.230174225366238439
0.438000000000000278,6.182202637020182578
0.439000000000000279,6.133979061058035143
0.440000000000000280,6.085511695667308985
0.441000000000000281,6.036809003780128080
0.442000000000000282,5.987879695234211042
0.443000000000000282,5.938732709349753058
0.444000000000000283,5.889377197924583029
0.445000000000000284,5.839822508649517019
0.446000000000000285,5.790078168945140824
0.447000000000000286,5.740153870220579435
0.448000000000000287,5.690059452554337760
0.449000000000000288,5.639804889796659282
0.450000000000000289,5.589400275092397230
0.451000000000000290,5.538855806822898131
0.452000000000000290,5.488181774964865589
0.453000000000000291,5.437388547863866606
0.454000000000000292,5.386486559419640052
0.455000000000000293,5.335486296679976981
0.456000000000000294,5.284398287839684016
0.457000000000000295,5.233233090640712071
0.458000000000000296,5.182001281169243967
0.459000000000000297,5.130713443045318733
0.460000000000000298,5.079380157000144891
0.461000000000000298,5.028011990836235512
0.462000000000000299,4.976619489765009341
0.463000000000000300,4.925213167116547552
0.464000000000000301,4.873803495415784504
0.465000000000000302,4.822400897819441923
0.466000000000000303,4.771015739907654485
0.467000000000000304,4.719658321824272917
0.468000000000000305,4.668338870759614956
0.469000000000000306,4.617067533769308341
0.470000000000000306,4.565854370922859395
0.471000000000000307,4.514709348775385322
0.472000000000000308,4.463642334156013192
0.473000000000000309,4.412663088266202571
0.474000000000000310,4.361781261081466354
0.475000000000000311,4.311006386049580641
0.476000000000000312,4.260347875078791979
0.477000000000000313,4.209815013808976936
0.478000000000000314,4.159416957159261408
0.479000000000000314,4.109162725145155903
0.480000000000000315,4.059061198958540118
0.481000000000000316,4.009121117303754644
0.482000000000000317,3.959351072983079867
0.483000000000000318,3.909759509724932691
0.484000000000000319,3.860354719248154876
0.485000000000000320,3.811144838555816872
0.486000000000000321,3.762137847451961559
0.487000000000000322,3.713341566274833916
0.488000000000000322,3.664763653840182656
0.489000000000000323,3.616411605588264244
0.490000000000000324,3.568292751928259232
0.491000000000000325,3.520414256773919170
0.492000000000000326,3.472783116264268610
0.493000000000000327,3.425406157663355877
0.494000000000000328,3.378290038433051201
0.495000000000000329,3.331441245473016899
0.496000000000000330,3.284866094522094215
0.497000000000000330,3.238570729715307461
0.498000000000000331,3.192561123291022707
0.499000000000000332,3.146843075442636195
0.500000000000000333,3.101422214309383030
0.501000000000000334,3.056303996101045861
0.502000000000000335,3.011493705351198980
0.503000000000000336,2.966996455294034885
0.504000000000000337,2.922817188359593477
0.505000000000000338,2.878960676782616357
0.506000000000000338,2.835431523320131930
0.507000000000000339,2.792234162073071957
0.508000000000000340,2.749372859407369418
0.509000000000000341,2.706851714969938705
0.510000000000000342,2.664674662795252225
0.511000000000000343,2.622845472498082309
0.512000000000000344,2.581367750548340556
0.513000000000000345,2.540244941623847730
0.514000000000000346,2.499480330037024967
0.515000000000000346,2.459077041231692018
0.516000000000000347,2.419038043346101841
0.517000000000000348,2.379366148838566453
0.518000000000000349,2.340064016172046291
0.519000000000000350,2.301134151554236063
0.520000000000000351,2.262578910729741377
0.521000000000000352,2.224400500820996829
0.522000000000000353,2.186600982214810251
0.523000000000000353,2.149182270491281521
0.524000000000000354,2.112146138392218653
0.525000000000000355,2.075494217825977650
0.526000000000000356,2.039228001905998511
0.527000000000000357,2.003348847020198331
0.528000000000000358,1.967857974928569176
0.529000000000000359,1.932756474886429432
0.530000000000000360,1.898045305790807546
0.531000000000000361,1.863725298347508552
0.532000000000000361,1.829797157256570106
0.533000000000000362,1.796261463413830750
0.534000000000000363,1.763118676126453677
0.535000000000000364,1.730369135340229292
0.536000000000000365,1.698013063876754103
0.537000000000000366,1.666050569678398485
0.538000000000000367,1.634481648059294745
0.539000000000000368,1.603306183960450326
0.540000000000000369,1.572523954207294405
0.541000000000000369,1.542134629767953014
0.542000000000000370,1.512137778010704370
0.543000000000000371,1.482532864958970187
0.544000000000000372,1.453319257542465603
0.545000000000000373,1.424496225843031594
0.546000000000000374,1.396062945333801597
0.547000000000000375,1.368018499110422947
0.548000000000000376,1.340361880113070114
0.549000000000000377,1.313091993338096675
0.550000000000000377,1.286207658038116541
0.551000000000000378,1.259707609909576531
0.552000000000000379,1.233590503266638327
0.553000000000000380,1.207854913200512748
0.554000000000000381,1.182499337723272648
0.555000000000000382,1.157522199895241855
0.556000000000000383,1.132921849935204950
0.557000000000000384,1.108696567312547510
0.558000000000000385,1.084844562820698410
0.559000000000000385,1.061363980631071513
0.560000000000000386,1.038252900326904982
0.561000000000000387,1.015509338916373627
0.562000000000000388,0.993131252824393185
0.563000000000000389,0.971116539862530104
0.564000000000000390,0.949463041176596412
0.565000000000000391,0.928168543171373428
0.566000000000000392,0.907230779412099286
0.567000000000000393,0.886647432502240207
0.568000000000000393,0.866416135937264520
0.569000000000000394,0.846534475933996888
0.570000000000000395,0.826999993235290276
0.571000000000000396,0.807810184889738658
0.572000000000000397,0.788962506006122166
0.573000000000000398,0.770454371482429901
0.574000000000000399,0.752283157709214834
0.575000000000000400,0.734446204247108825
0.576000000000000401,0.716940815478383731
0.577000000000000401,0.699764262232355216
0.578000000000000402,0.682913783384611728
0.579000000000000403,0.666386587429934618
0.580000000000000404,0.650179854028822057
0.581000000000000405,0.634290735527669347
0.582000000000000406,0.618716358452446213
0.583000000000000407,0.603453824975996200
0.584000000000000408,0.588500214358872120
0.585000000000000409,0.573852584363795160
0.586000000000000409,0.559507972643763729
0.587000000000000410,0.545463398103835262
0.588000000000000411,0.531715862236757819
0.589000000000000412,0.518262350432390995
0.590000000000000413,0.505099833261170472
0.591000000000000414,0.492225267731625116
0.592000000000000415,0.479635598522114293
0.593000000000000416,0.467327759186937530
0.594000000000000417,0.455298673336933413
0.595000000000000417,0.443545255794745241
0.596000000000000418,0.432064413724943475
0.597000000000000419,0.420853047739136010
0.598000000000000420,0.409908052976315829
0.599000000000000421,0.399226320158591164
0.600000000000000422,0.388804736622524127
0.601000000000000423,0.378640187326322264
0.602000000000000424,0.368729555833041178
0.603000000000000425,0.359069725270049100
0.604000000000000425,0.349657579265040819
0.605000000000000426,0.340490002858752638
0.606000000000000427,0.331563883394658199
0.607000000000000428,0.322876111385953901
0.608000000000000429,0.314423581359941084
0.609000000000000430,0.306203192680259750
0.610000000000000431,0.298211850347043061
0.611000000000000432,0.290446465775395068
0.612000000000000433,0.282903957552404217
0.613000000000000433,0.275581252172953484
0.614000000000000434,0.268475284754643551
0.615000000000000435,0.261582999732067167
0.616000000000000436,0.254901351530755549
0.617000000000000437,0.248427305221006284
0.618000000000000438,0.242157837151965344
