# TricalciumSilicate001_CS-6332-AC
# h[nm],U(h)[kJ/mol]
0.200000000000000011,62.263439463440398924
0.201000000000000012,61.680725409485503974
0.202000000000000013,60.729769498133677530
0.203000000000000014,59.613911756367336636
0.204000000000000015,58.445326645217825501
0.205000000000000016,57.279758303272913622
0.206000000000000016,56.139691038516843946
0.207000000000000017,55.029410352786314320
0.208000000000000018,53.944462257544351758
0.209000000000000019,52.877314019405375234
0.210000000000000020,51.820498676808675498
0.211000000000000021,50.768143411363467976
0.212000000000000022,49.716503528906791587
0.213000000000000023,48.663923037829000862
0.214000000000000024,47.610499586467952327
0.215000000000000024,46.557630697706414935
0.216000000000000025,45.507548417929832851
0.217000000000000026,44.462902138366416693
0.218000000000000027,43.426418086185648804
0.219000000000000028,42.400644109955990757
0.220000000000000029,41.387776437793966977
0.221000000000000030,40.389558545371322396
0.222000000000000031,39.407239317024746583
0.223000000000000032,38.441577022104198136
0.224000000000000032,37.492876352732125156
0.225000000000000033,36.561047254121390893
0.226000000000000034,35.645676106090846247
0.227000000000000035,34.746101713692631563
0.228000000000000036,33.861490369685746771
0.229000000000000037,32.990905868371022791
0.230000000000000038,32.133371734798672037
0.231000000000000039,31.287924073807584335
0.232000000000000040,30.453654348415206243
0.233000000000000040,29.629742087351793600
0.234000000000000041,28.815478023719585110
0.235000000000000042,28.010278509723242735
0.236000000000000043,27.213692264659375297
0.237000000000000044,26.425400621457562522
0.238000000000000045,25.645212464843034184
0.239000000000000046,24.873055022314833451
0.240000000000000047,24.108961595046828563
0.241000000000000048,23.353057213905600520
0.242000000000000048,22.605543087578801931
0.243000000000000049,21.866680584362207185
0.244000000000000050,21.136775363328688115
0.245000000000000051,20.416162149417349525
0.246000000000000052,19.705190533945433629
0.247000000000000053,19.004212079416454628
0.248000000000000054,18.313568916561962396
0.249000000000000055,17.633583942829808677
0.250000000000000056,16.964552664963569839
0.251000000000000056,16.306736673432943974
0.252000000000000057,15.660358692508799194
0.253000000000000058,15.025599115780300608
0.254000000000000059,14.402593911825047002
0.255000000000000060,13.791433767471877658
0.256000000000000061,13.192164325542469427
0.257000000000000062,12.604787369070892922
0.258000000000000063,12.029262803788052238
0.259000000000000064,11.465511294211296445
0.260000000000000064,10.913417415175782565
0.261000000000000065,10.372833189356168049
0.262000000000000066,9.843581891615446722
0.263000000000000067,9.325462012339375661
0.264000000000000068,8.818251283805320639
0.265000000000000069,8.321710685711391164
0.266000000000000070,7.835588357945388438
0.267000000000000071,7.359623360253996438
0.268000000000000071,6.893549229493464381
0.269000000000000072,6.437097295461379431
0.270000000000000073,5.989999725828346833
0.271000000000000074,5.551992279347355286
0.272000000000000075,5.122816754284708729
0.273000000000000076,4.702223125885656607
0.274000000000000077,4.289971372671476324
0.275000000000000078,3.885832996494183789
0.276000000000000079,3.489592245590918740
0.277000000000000079,3.101047053431869038
0.278000000000000080,2.720009709001986131
0.279000000000000081,2.346307276354406390
0.280000000000000082,1.979781782887452435
0.281000000000000083,1.620290196886850609
0.282000000000000084,1.267704215503248966
0.283000000000000085,0.921909884560274229
0.284000000000000086,0.582807071465975102
0.285000000000000087,0.250308812085802690
0.286000000000000087,-0.075659448225592923
0.287000000000000088,-0.395160700095406714
0.288000000000000089,-0.708247283785333193
0.289000000000000090,-1.014961853842394790
0.290000000000000091,-1.315338378788468487
0.291000000000000092,-1.609403161171936159
0.292000000000000093,-1.897175864618221297
0.293000000000000094,-2.178670535839406064
0.294000000000000095,-2.453896610876364015
0.295000000000000095,-2.722859896134996127
0.296000000000000096,-2.985563516026060071
0.297000000000000097,-3.242008820217197496
0.298000000000000098,-3.492196244645443759
0.299000000000000099,-3.736126121514081522
0.300000000000000100,-3.973799434502732986
0.301000000000000101,-4.205218516352951852
0.302000000000000102,-4.430387686849075024
0.303000000000000103,-4.649313829998290792
0.304000000000000103,-4.862006909921758435
0.305000000000000104,-5.068480425604702688
0.306000000000000105,-5.268751805217584128
0.307000000000000106,-5.462842741216106468
0.308000000000000107,-5.650779467858329852
0.309000000000000108,-5.832592983144980536
0.310000000000000109,-6.008319217499142439
0.311000000000000110,-6.177999151755843243
0.312000000000000111,-6.341678887237158335
0.313000000000000111,-6.499409670845205156
0.314000000000000112,-6.651247878220523546
0.315000000000000113,-6.797254958088795540
0.316000000000000114,-6.937497340959675185
0.317000000000000115,-7.072046315350223544
0.318000000000000116,-7.200977874686946834
0.319000000000000117,-7.324372537996525878
0.320000000000000118,-7.442315147430636380
0.321000000000000119,-7.554894645586847091
0.322000000000000119,-7.662203835488398340
0.323000000000000120,-7.764339125973559241
0.324000000000000121,-7.861400265122677311
0.325000000000000122,-7.953490064219605138
0.326000000000000123,-8.040714114606627660
0.327000000000000124,-8.123180499649652830
0.328000000000000125,-8.200999503885435971
0.329000000000000126,-8.274283321275621716
0.330000000000000127,-8.343145764345738513
0.331000000000000127,-8.407701975841394670
0.332000000000000128,-8.468068144390050733
0.333000000000000129,-8.524361225515955098
0.334000000000000130,-8.576698669218353999
0.335000000000000131,-8.625198155190570759
0.336000000000000132,-8.669977336628900133
0.337000000000000133,-8.711153593457828137
0.338000000000000134,-8.748843795680844693
0.339000000000000135,-8.783164077454362229
0.340000000000000135,-8.814229622377570905
0.341000000000000136,-8.842154460391295601
0.342000000000000137,-8.867051276586558117
0.343000000000000138,-8.889031232136389349
0.344000000000000139,-8.908203797484434361
0.345000000000000140,-8.924676597849256154
0.346000000000000141,-8.938555271034976712
0.347000000000000142,-8.949943337476408800
0.348000000000000143,-8.958942082390146666
0.349000000000000143,-8.965650449851585435
0.350000000000000144,-8.970164948572103114
0.351000000000000145,-8.972579569109365494
0.352000000000000146,-8.972985712208014775
0.353000000000000147,-8.971472127936133134
0.354000000000000148,-8.968124865255964195
0.355000000000000149,-8.963027231644241866
0.356000000000000150,-8.956259762358222076
0.357000000000000151,-8.947900198928120830
0.358000000000000151,-8.938023476444202586
0.359000000000000152,-8.926701719197842166
0.360000000000000153,-8.914004244229682072
0.361000000000000154,-8.899997572334367391
0.362000000000000155,-8.884745446070386521
0.363000000000000156,-8.868308854324542523
0.364000000000000157,-8.850746062983834150
0.365000000000000158,-8.832112651272598924
0.366000000000000159,-8.812461553319156593
0.367000000000000159,-8.791843104524525998
0.368000000000000160,-8.770305092315078710
0.369000000000000161,-8.747892810871515934
0.370000000000000162,-8.724649119438009137
0.371000000000000163,-8.700614503827887702
0.372000000000000164,-8.675827140754988065
0.373000000000000165,-8.650322964633762268
0.374000000000000166,-8.624135736505154526
0.375000000000000167,-8.597297114759699710
0.376000000000000167,-8.569836727344279481
0.377000000000000168,-8.541782245153640929
0.378000000000000169,-8.513159456322886953
0.379000000000000170,-8.483992341152335470
0.380000000000000171,-8.454303147410854535
0.381000000000000172,-8.424112465778966552
0.382000000000000173,-8.393439305207392565
0.383000000000000174,-8.362301167981602390
0.384000000000000175,-8.330714124296804357
0.385000000000000175,-8.298692886161934013
0.386000000000000176,-8.266250880464903972
0.387000000000000177,-8.233400321044246795
0.388000000000000178,-8.200152279625681828
0.389000000000000179,-8.166516755494088287
0.390000000000000180,-8.132502743783629029
0.391000000000000181,-8.098118302280436609
0.392000000000000182,-8.063370616643144473
0.393000000000000183,-8.028266063957447685
0.394000000000000183,-7.992810274551001903
0.395000000000000184,-7.957008192004744629
0.396000000000000185,-7.920864131305942912
0.397000000000000186,-7.884381835097163282
0.398000000000000187,-7.847564527983712068
0.399000000000000188,-7.810414968869918262
0.400000000000000189,-7.772935501302164596
0.401000000000000190,-7.735128101803539380
0.402000000000000191,-7.696994426191603900
0.403000000000000191,-7.658535853876803579
0.404000000000000192,-7.619753530144964593
0.405000000000000193,-7.580648406432496600
0.406000000000000194,-7.541221278607951994
0.407000000000000195,-7.501472823278203528
0.408000000000000196,-7.461403632141562881
0.409000000000000197,-7.421014244414152472
0.410000000000000198,-7.380305177359393731
0.411000000000000199,-7.339276954953450449
0.412000000000000199,-7.297930134722601103
0.413000000000000200,-7.256265332791002720
0.414000000000000201,-7.214283247179556824
0.415000000000000202,-7.171984679398687668
0.416000000000000203,-7.129370554379652170
0.417000000000000204,-7.086441938790445150
0.418000000000000205,-7.043200057783759682
0.419000000000000206,-6.999646310225497992
0.420000000000000207,-6.955782282453178311
0.421000000000000207,-6.911609760614479292
0.422000000000000208,-6.867130741636257696
0.423000000000000209,-6.822347442875262402
0.424000000000000210,-6.777262310501467546
0.425000000000000211,-6.731878026665228276
0.426000000000000212,-6.686197515499401334
0.427000000000000213,-6.640223948007092147
0.428000000000000214,-6.593960745885699914
0.429000000000000214,-6.547411584337136325
0.430000000000000215,-6.500580393913745425
0.431000000000000216,-6.453471361448848143
0.432000000000000217,-6.406088930119858915
0.433000000000000218,-6.358437798691407572
0.434000000000000219,-6.310522919984878243
0.435000000000000220,-6.262349498619887989
0.436000000000000221,-6.213922988072233089
0.437000000000000222,-6.165249087091824620
0.438000000000000222,-6.116333735523074466
0.439000000000000223,-6.067183109569077359
0.440000000000000224,-6.017803616539796785
0.441000000000000225,-5.968201889123260884
0.442000000000000226,-5.918384779217801039
0.443000000000000227,-5.868359351361820408
0.444000000000000228,-5.818132875796751868
0.445000000000000229,-5.767712821197382489
0.446000000000000230,-5.717106847102593647
0.447000000000000230,-5.666322796078449464
0.448000000000000231,-5.615368685644171798
0.449000000000000232,-5.564252699990417383
0.450000000000000233,-5.512983181518185560
0.451000000000000234,-5.461568622225209779
0.452000000000000235,-5.410017654965871614
0.453000000000000236,-5.358339044609119028
0.454000000000000237,-5.306541679118157440
0.455000000000000238,-5.254634560574076296
0.456000000000000238,-5.202626796164923739
0.457000000000000239,-5.150527589160287967
0.458000000000000240,-5.098346229890646342
0.459000000000000241,-5.046092086749440320
0.460000000000000242,-4.993774597235132617
0.461000000000000243,-4.941403259049146790
0.462000000000000244,-4.888987621265014738
0.463000000000000245,-4.836537275582623252
0.464000000000000246,-4.784061847681132740
0.465000000000000246,-4.731570988682685552
0.466000000000000247,-4.679074366738523061
0.467000000000000248,-4.626581658748135872
0.468000000000000249,-4.574102542221352152
0.469000000000000250,-4.521646687292355082
0.470000000000000251,-4.469223748894054715
0.471000000000000252,-4.416843359100279365
0.472000000000000253,-4.364515119642843999
0.473000000000000254,-4.312248594609537911
0.474000000000000254,-4.260053303328771968
0.475000000000000255,-4.207938713445687817
0.476000000000000256,-4.155914234194208134
0.477000000000000257,-4.103989209868768029
0.478000000000000258,-4.052172913498938378
0.479000000000000259,-4.000474540729743289
0.480000000000000260,-3.948903203909861048
0.481000000000000261,-3.897467926389425408
0.482000000000000262,-3.846177637028829643
0.483000000000000262,-3.795041164919369159
0.484000000000000263,-3.744067234316165838
0.485000000000000264,-3.693264459783558440
0.486000000000000265,-3.642641341552637080
0.487000000000000266,-3.592206261090313379
0.488000000000000267,-3.541967476879047005
0.489000000000000268,-3.491933120405978030
0.490000000000000269,-3.442111192359919691
0.491000000000000270,-3.392509559034537769
0.492000000000000270,-3.343135948935548551
0.493000000000000271,-3.293997949589833496
0.494000000000000272,-3.245103004553912207
0.495000000000000273,-3.196458410619078983
0.496000000000000274,-3.148071315210493104
0.497000000000000275,-3.099948713977034753
0.498000000000000276,-3.052097448568868110
0.499000000000000277,-3.004524204599371195
0.500000000000000222,-2.957235509787934369
0.501000000000000334,-2.910237732280147149
0.502000000000000224,-2.863537079141690533
0.503000000000000336,-2.817139595022082776
0.504000000000000226,-2.771051160984644213
0.505000000000000338,-2.725277493498489356
0.506000000000000227,-2.679824143588910523
0.507000000000000339,-2.634696496141781363
0.508000000000000229,-2.589899769358228632
0.509000000000000341,-2.545439014355172613
0.510000000000000231,-2.501319114907962327
0.511000000000000343,-2.457544787330546487
0.512000000000000233,-2.414120580489414802
0.513000000000000345,-2.371050875946809633
0.514000000000000234,-2.328339888229402188
0.515000000000000346,-2.285991665217856905
0.516000000000000236,-2.244010088653591417
0.517000000000000348,-2.202398874758229930
0.518000000000000238,-2.161161574961970366
0.519000000000000350,-2.120301576736513649
0.520000000000000240,-2.079822104528783022
0.521000000000000352,-2.039726220791247435
0.522000000000000242,-2.000016827105032924
0.523000000000000353,-1.960696665391785887
0.524000000000000243,-1.921768319210571008
0.525000000000000355,-1.883234215135862755
0.526000000000000245,-1.845096624213024228
0.527000000000000357,-1.807357663487384247
0.528000000000000247,-1.770019297603527830
0.529000000000000359,-1.733083340470958689
0.530000000000000249,-1.696551456992863249
0.531000000000000361,-1.660425164854327562
0.532000000000000250,-1.624705836366824085
0.533000000000000362,-1.589394700365451163
0.534000000000000252,-1.554492844155883180
0.535000000000000364,-1.520001215507681636
0.536000000000000254,-1.485920624691055014
0.537000000000000366,-1.452251746553790301
0.538000000000000256,-1.418995122635718698
0.539000000000000368,-1.386151163317471902
0.540000000000000258,-1.353720150001090916
0.541000000000000369,-1.321702237319376305
0.542000000000000259,-1.290097455371664648
0.543000000000000371,-1.258905711983152376
0.544000000000000261,-1.228126794985445080
0.545000000000000373,-1.197760374515763671
0.546000000000000263,-1.167806005332554076
0.547000000000000375,-1.138263129144997388
0.548000000000000265,-1.109131076954497308
0.549000000000000377,-1.080409071405633581
0.550000000000000266,-1.052096229144805273
0.551000000000000378,-1.024191563184317699
0.552000000000000268,-0.996693985270112215
0.553000000000000380,-0.969602308251141132
0.554000000000000270,-0.942915248448707666
0.555000000000000382,-0.916631428023841677
0.556000000000000272,-0.890749377341252924
0.557000000000000384,-0.865267537327987113
0.558000000000000274,-0.840184261825503542
0.559000000000000385,-0.815497819933406531
0.560000000000000275,-0.791206398343655359
0.561000000000000387,-0.767308103663676411
0.562000000000000277,-0.743800964727193814
0.563000000000000389,-0.720682934891458293
0.564000000000000279,-0.697951894319727373
0.565000000000000391,-0.675605652247799671
0.566000000000000281,-0.653641949233571551
0.567000000000000393,-0.632058459388517457
0.568000000000000282,-0.610852792590225180
0.569000000000000394,-0.590022496674881602
0.570000000000000284,-0.569565059609031366
0.571000000000000396,-0.549477911639583594
0.572000000000000286,-0.529758427421468170
0.573000000000000398,-0.510403928122006301
0.574000000000000288,-0.491411683501483343
0.575000000000000400,-0.472778913969159054
0.576000000000000290,-0.454502792614154050
0.577000000000000401,-0.436580447210627554
0.578000000000000291,-0.419008962196752432
0.579000000000000403,-0.401785380626947131
0.580000000000000293,-0.384906706096995066
0.581000000000000405,-0.368369904641537294
0.582000000000000295,-0.352171906603688523
0.583000000000000407,-0.336309608476302757
0.584000000000000297,-0.320779874714695712
0.585000000000000409,-0.305579539520467791
0.586000000000000298,-0.290705408596244663
0.587000000000000410,-0.276154260871067425
0.588000000000000300,-0.261922850196309231
0.589000000000000412,-0.248007907011888046
0.590000000000000302,-0.234406139982722056
0.591000000000000414,-0.221114237605291031
0.592000000000000304,-0.208128869784218018
0.593000000000000416,-0.195446689378825755
0.594000000000000306,-0.183064333719677175
0.595000000000000417,-0.170978426095026281
0.596000000000000307,-0.159185577207248047
0.597000000000000419,-0.147682386599262888
0.598000000000000309,-0.136465444051035167
0.599000000000000421,-0.125531330946159259
0.600000000000000311,-0.114876621608726068
0.601000000000000423,-0.104497884610472047
0.602000000000000313,-0.094391684048456784
0.603000000000000425,-0.084554580793260947
0.604000000000000314,-0.074983133708065891
0.605000000000000426,-0.065673900838564211
0.606000000000000316,-0.056623440574091508
0.607000000000000428,-0.047828312780020643
0.608000000000000318,-0.039285079901754741
0.609000000000000430,-0.030990308040447157
0.610000000000000320,-0.022940568000763651
0.611000000000000432,-0.015132436310864394
0.612000000000000322,-0.007562496214920699
0.613000000000000433,-0.000227338638387764
0.614000000000000323,0.006876436873659497
0.615000000000000435,0.013752221244864377
0.616000000000000325,0.020403394982303296
0.617000000000000437,0.026833327317282406
0.618000000000000327,0.033045375371896044
0.619000000000000439,0.039042883351075024
0.620000000000000329,0.044829181759758786
0.621000000000000441,0.050407586644905314
0.622000000000000330,0.055781398862000529
0.623000000000000442,0.060953903365739581
0.624000000000000332,0.065928368524542841
0.625000000000000444,0.070708045458560090
0.626000000000000334,0.075296167400850211
0.627000000000000446,0.079695949081350498
0.628000000000000336,0.083910586133326540
0.629000000000000448,0.087943254521936284
0.630000000000000338,0.091797109994549236
0.631000000000000449,0.095475287552490865
0.632000000000000339,0.098980900943845887
0.633000000000000451,0.102317042176963871
0.634000000000000341,0.105486781054320231
0.635000000000000453,0.108493164726364388
0.636000000000000343,0.111339217265036899
0.637000000000000455,0.114027939256536495
0.638000000000000345,0.116562307413044852
0.639000000000000457,0.118945274203028500
0.640000000000000346,0.121179767499754829
0.641000000000000458,0.123268690247694074
0.642000000000000348,0.125214920146439201
0.643000000000000460,0.127021309351804973
0.644000000000000350,0.128690684193748711
0.645000000000000462,0.130225844910775546
0.646000000000000352,0.131629565400484067
0.647000000000000464,0.132904592985911535
0.648000000000000353,0.134053648197324737
0.649000000000000465,0.135079424569146539
0.650000000000000355,0.135984588451659755
0.651000000000000467,0.136771778837174340
0.652000000000000357,0.137443607200310874
0.653000000000000469,0.138002657352100377
0.654000000000000359,0.138451485307541811
0.655000000000000471,0.138792619166344583
0.656000000000000361,0.139028559006490277
0.657000000000000473,0.139161776790337977
0.658000000000000362,0.139194716282940195
0.659000000000000474,0.139129792982286060
0.660000000000000364,0.138969394061134732
0.661000000000000476,0.138715878320176872
0.662000000000000366,0.138371576152211989
0.663000000000000478,0.137938789517032756
0.664000000000000368,0.137419791926769230
