# TricalciumSilicate001_CS-11787-AC
# h[nm],U(h)[kJ/mol]
0.200000000000000011,74.434874499440766726
0.201000000000000012,74.005987486075937909
0.202000000000000013,72.887294324184594529
0.203000000000000014,71.462032306810669979
0.204000000000000015,69.944141807565245017
0.205000000000000016,68.441258092251899825
0.206000000000000016,66.997247452517243005
0.207000000000000017,65.620256765771571850
0.208000000000000018,64.300643528695232476
0.209000000000000019,63.021954206210978100
0.210000000000000020,61.767226070539869909
0.211000000000000021,60.522227412890416076
0.212000000000000022,59.276766134475920467
0.213000000000000023,58.024843643135987747
0.214000000000000024,56.764176396758287524
0.215000000000000024,55.495426013307600499
0.216000000000000025,54.221351415512778260
0.217000000000000026,52.946008516956780454
0.218000000000000027,51.674063617571825091
0.219000000000000028,50.410247849478807325
0.220000000000000029,49.158955684952260867
0.221000000000000030,47.923976261886238603
0.222000000000000031,46.708338871202656151
0.223000000000000032,45.514251056372593496
0.224000000000000032,44.343107738663228190
0.225000000000000033,43.195551439853169029
0.226000000000000034,42.071566228126030751
0.227000000000000035,40.970590928645535200
0.228000000000000036,39.891640074277106010
0.229000000000000037,38.833423815263941492
0.230000000000000038,37.794460444421922318
0.231000000000000039,36.773177275351102367
0.232000000000000040,35.767997325928305941
0.233000000000000040,34.777410624853416721
0.234000000000000041,33.800030007388961906
0.235000000000000042,32.834632037375669711
0.236000000000000043,31.880184228298332982
0.237000000000000044,30.935860077945392277
0.238000000000000045,30.001043617495685822
0.239000000000000046,29.075325241140422605
0.240000000000000047,28.158490556577724817
0.241000000000000048,27.250503905334362287
0.242000000000000048,26.351488065934045579
0.243000000000000049,25.461701489502832629
0.244000000000000050,24.581514239969731506
0.245000000000000051,23.711383629952525354
0.246000000000000052,22.851830366459644495
0.247000000000000053,22.003415853204899122
0.248000000000000054,21.166721142349445017
0.249000000000000055,20.342327890122593459
0.250000000000000056,19.530801549161957098
0.251000000000000056,18.732676925813379398
0.252000000000000057,17.948446142651341972
0.253000000000000058,17.178548974268270655
0.254000000000000059,16.423365466765535103
0.255000000000000060,15.683210707001805417
0.256000000000000061,14.958331575052294937
0.257000000000000062,14.248905291020202313
0.258000000000000063,13.555039553858829748
0.259000000000000064,12.876774063815876303
0.260000000000000064,12.214083220200317115
0.261000000000000065,11.566879791207650641
0.262000000000000066,10.935019361446361330
0.263000000000000067,10.318305374642500638
0.264000000000000068,9.716494602928356983
0.265000000000000069,9.129302889434018908
0.266000000000000070,8.556411026997118086
0.267000000000000071,7.997470652181123185
0.268000000000000071,7.452110050041665268
0.269000000000000072,6.919939780873983537
0.270000000000000073,6.400558055262074220
0.271000000000000074,5.893555797941781194
0.272000000000000075,5.398521354151538887
0.273000000000000076,4.915044804190865868
0.274000000000000077,4.442721862788446607
0.275000000000000078,3.981157349585575211
0.276000000000000079,3.529968225578237195
0.277000000000000079,3.088786197763118579
0.278000000000000080,2.657259900551657950
0.279000000000000081,2.235056667808143605
0.280000000000000082,1.821863913706566418
0.281000000000000083,1.417390144057907309
0.282000000000000084,1.021365622415366659
0.283000000000000085,0.633542717197051797
0.284000000000000086,0.253695957351851464
0.285000000000000087,-0.118378175186662604
0.286000000000000087,-0.482861687791931005
0.287000000000000088,-0.839915725918630285
0.288000000000000089,-1.189681400661307897
0.289000000000000090,-1.532280768265249726
0.290000000000000091,-1.867817935867579493
0.291000000000000092,-2.196380269053069600
0.292000000000000093,-2.518039678263384484
0.293000000000000094,-2.832853962662111424
0.294000000000000095,-3.140868191693465317
0.295000000000000095,-3.442116106249875962
0.296000000000000096,-3.736621523053359262
0.297000000000000097,-4.024399727536482452
0.298000000000000098,-4.305458842159137767
0.299000000000000099,-4.579801158702190733
0.300000000000000100,-4.847424424623580919
0.301000000000000101,-5.108323075037604966
0.302000000000000102,-5.362489403273200672
0.303000000000000103,-5.609914664279463281
0.304000000000000103,-5.850590106367941523
0.305000000000000104,-6.084507927913191949
0.306000000000000105,-6.311662156671560275
0.307000000000000106,-6.532049450324881157
0.308000000000000107,-6.745669817711831051
0.309000000000000108,-6.952527260976611778
0.310000000000000109,-7.152630339546615978
0.311000000000000110,-7.345992657448880081
0.312000000000000111,-7.532633275996909461
0.313000000000000111,-7.712577054324827763
0.314000000000000112,-7.885854920623101449
0.315000000000000113,-8.052504077241314562
0.316000000000000114,-8.212568143074808091
0.317000000000000115,-8.366097236847110707
0.318000000000000116,-8.513148005044744338
0.319000000000000117,-8.653783598358614881
0.320000000000000118,-8.788073600542210428
0.321000000000000119,-8.916093913615089406
0.322000000000000119,-9.037926603324612174
0.323000000000000120,-9.153659708733771438
0.324000000000000121,-9.263387019732295613
0.325000000000000122,-9.367207826174434260
0.326000000000000123,-9.465226642234430443
0.327000000000000124,-9.557552909441834998
0.328000000000000125,-9.644300681717020041
0.329000000000000126,-9.725588295574077335
0.330000000000000127,-9.801538028497613908
0.331000000000000127,-9.872275748332324241
0.332000000000000128,-9.937930556352860378
0.333000000000000129,-9.998634426507548412
0.334000000000000130,-10.054521843154315519
0.335000000000000131,-10.105729439433348560
0.336000000000000132,-10.152395638247668330
0.337000000000000133,-10.194660297653452830
0.338000000000000134,-10.232664362295645688
0.339000000000000135,-10.266549522362574010
0.340000000000000135,-10.296457881377333976
0.341000000000000136,-10.322531633992552358
0.342000000000000137,-10.344912754811051769
0.343000000000000138,-10.363742699116610169
0.344000000000000139,-10.379162116268371818
0.345000000000000140,-10.391310576387876807
0.346000000000000141,-10.400326310850955380
0.347000000000000142,-10.406345966986654261
0.348000000000000143,-10.409504377282889465
0.349000000000000143,-10.409934343302648330
0.350000000000000144,-10.407766434426259039
0.351000000000000145,-10.403128801453153329
0.352000000000000146,-10.396147005021971310
0.353000000000000147,-10.386943858738970192
0.354000000000000148,-10.375639286842691433
0.355000000000000149,-10.362350196176777217
0.356000000000000150,-10.347190362192323576
0.357000000000000151,-10.330270328656645518
0.358000000000000151,-10.311697320705736303
0.359000000000000152,-10.291575170843376696
0.360000000000000153,-10.270004257460232822
0.361000000000000154,-10.247081455421037433
0.362000000000000155,-10.222900098247079015
0.363000000000000156,-10.197549951404132784
0.364000000000000157,-10.171117196192628995
0.365000000000000158,-10.143684423727057364
0.366000000000000159,-10.115330638484554271
0.367000000000000159,-10.086131270898977874
0.368000000000000160,-10.056158198475491972
0.369000000000000161,-10.025479774901885577
0.370000000000000162,-9.994160866636281781
0.371000000000000163,-9.962262896456540062
0.372000000000000164,-9.929843893463512927
0.373000000000000165,-9.896958549039743147
0.374000000000000166,-9.863658278274984426
0.375000000000000167,-9.829991286381751792
0.376000000000000167,-9.796002639636807174
0.377000000000000168,-9.761734340397911325
0.378000000000000169,-9.727225405759734045
0.379000000000000170,-9.692511949427851548
0.380000000000000171,-9.657627266405377497
0.381000000000000172,-9.622601920102848538
0.382000000000000173,-9.587463831498311606
0.383000000000000174,-9.552238369991361111
0.384000000000000175,-9.516948445611333796
0.385000000000000175,-9.481614602256918545
0.386000000000000176,-9.446255111661182369
0.387000000000000177,-9.410886067792500143
0.388000000000000178,-9.375521481418818581
0.389000000000000179,-9.340173374578593979
0.390000000000000180,-9.304851874718176319
0.391000000000000181,-9.269565308271019433
0.392000000000000182,-9.234320293469586716
0.393000000000000183,-9.199121832195960025
0.394000000000000183,-9.163973400691782345
0.395000000000000184,-9.128877038962475154
0.396000000000000185,-9.093833438724463036
0.397000000000000186,-9.058842029757496306
0.398000000000000187,-9.023901064537088956
0.399000000000000188,-8.989007701034408271
0.400000000000000189,-8.954158083582930416
0.401000000000000190,-8.919347421722564562
0.402000000000000191,-8.884570066942854893
0.403000000000000191,-8.849819587257217179
0.404000000000000192,-8.815088839550224264
0.405000000000000193,-8.780370039649170621
0.406000000000000194,-8.745654830080265896
0.407000000000000195,-8.710934345478117180
0.408000000000000196,-8.676199275625146257
0.409000000000000197,-8.641439926105160652
0.410000000000000198,-8.606646276562273101
0.411000000000000199,-8.571808036562934774
0.412000000000000199,-8.536914699065123457
0.413000000000000200,-8.501955591504374965
0.414000000000000201,-8.466919924511747908
0.415000000000000202,-8.431796838283631246
0.416000000000000203,-8.396575446628103734
0.417000000000000204,-8.361244878716439288
0.418000000000000205,-8.325794318572459218
0.419000000000000206,-8.290213042335796700
0.420000000000000207,-8.254490453338252820
0.421000000000000207,-8.218616115035555225
0.422000000000000208,-8.182579781838930089
0.423000000000000209,-8.146371427893745576
0.424000000000000210,-8.109981273854021566
0.425000000000000211,-8.073399811703534823
0.426000000000000212,-8.036617827675929249
0.427000000000000213,-7.999626423327067748
0.428000000000000214,-7.962417034814575523
0.429000000000000214,-7.924981450439640085
0.430000000000000215,-7.887311826507447776
0.431000000000000216,-7.849400701562762706
0.432000000000000217,-7.811241009057499518
0.433000000000000218,-7.772826088507423847
0.434000000000000219,-7.734149695195020158
0.435000000000000220,-7.695206008475485859
0.436000000000000221,-7.655989638742502379
0.437000000000000222,-7.616495633110096364
0.438000000000000222,-7.576719479866445006
0.439000000000000223,-7.536657111754831995
0.440000000000000224,-7.496304908136333545
0.441000000000000225,-7.455659696087979960
0.442000000000000226,-7.414718750489494248
0.443000000000000227,-7.373479793150458761
0.444000000000000228,-7.331940991029251897
0.445000000000000229,-7.290100953593634081
0.446000000000000230,-7.247958729372038889
0.447000000000000230,-7.205513801743539837
0.448000000000000231,-7.162766084013176382
0.449000000000000232,-7.119715913818135178
0.450000000000000233,-7.076364046909310090
0.451000000000000234,-7.032711650351193278
0.452000000000000235,-6.988760295182117943
0.453000000000000236,-6.944511948575315508
0.454000000000000237,-6.899968965540344001
0.455000000000000238,-6.855134080202716973
0.456000000000000238,-6.810010396698736201
0.457000000000000239,-6.764601379720886598
0.458000000000000240,-6.718910844748164024
0.459000000000000241,-6.672942947994141782
0.460000000000000242,-6.626702176104684483
0.461000000000000243,-6.580193335635553531
0.462000000000000244,-6.533421542339382881
0.463000000000000245,-6.486392210289688265
0.464000000000000246,-6.439111040869073932
0.465000000000000246,-6.391584011646973984
0.466000000000000247,-6.343817365171494416
0.467000000000000248,-6.295817597698620816
0.468000000000000249,-6.247591447880968651
0.469000000000000250,-6.199145885437163273
0.470000000000000251,-6.150488099821809662
0.471000000000000252,-6.101625488914978135
0.472000000000000253,-6.052565647749235112
0.473000000000000254,-6.003316357290951366
0.474000000000000254,-5.953885573292000188
0.475000000000000255,-5.904281415226671825
0.476000000000000256,-5.854512155328007950
0.477000000000000257,-5.804586207736655901
0.478000000000000258,-5.754512117774520874
0.479000000000000259,-5.704298551354753499
0.480000000000000260,-5.653954284538680319
0.481000000000000261,-5.603488193249491545
0.482000000000000262,-5.552909243151885832
0.483000000000000262,-5.502226479705996987
0.484000000000000263,-5.451449018403208058
0.485000000000000264,-5.400586035190961809
0.486000000000000265,-5.349646757092793692
0.487000000000000266,-5.298640453029329400
0.488000000000000267,-5.247576424845330045
0.489000000000000268,-5.196463998547370622
0.490000000000000269,-5.145312515755999350
0.491000000000000270,-5.094131325375973240
0.492000000000000270,-5.042929775487316135
0.493000000000000271,-4.991717205459835327
0.494000000000000272,-4.940502938292985036
0.495000000000000273,-4.889296273182571539
0.496000000000000274,-4.838106478315603809
0.497000000000000275,-4.786942783893858078
0.498000000000000276,-4.735814375386601327
0.499000000000000277,-4.684730387012494113
0.500000000000000222,-4.633699895450240192
0.501000000000000334,-4.582731913777463362
0.502000000000000224,-4.531835385636796332
0.503000000000000336,-4.481019179627883986
0.504000000000000226,-4.430292083923990987
0.505000000000000338,-4.379662801111200210
0.506000000000000227,-4.329139943248540234
0.507000000000000339,-4.278732027146507910
0.508000000000000229,-4.228447469861925434
0.509000000000000341,-4.178294584406172518
0.510000000000000231,-4.128281575664496827
0.511000000000000343,-4.078416536522967206
0.512000000000000233,-4.028707444200447796
0.513000000000000345,-3.979162156782033666
0.514000000000000234,-3.929788409950977446
0.515000000000000346,-3.880593813915234058
0.516000000000000236,-3.831585850525537573
0.517000000000000348,-3.782771870580961426
0.518000000000000238,-3.734159091318626444
0.519000000000000350,-3.685754594083392899
0.520000000000000240,-3.637565322174020732
0.521000000000000352,-3.589598078861670594
0.522000000000000242,-3.541859525576923851
0.523000000000000353,-3.494356180261233735
0.524000000000000243,-3.447094415878891649
0.525000000000000355,-3.400080459085369711
0.526000000000000245,-3.353320389048117356
0.527000000000000357,-3.306820136415529188
0.528000000000000247,-3.260585482430297333
0.529000000000000359,-3.214622058182793118
0.530000000000000249,-3.168935344000658461
0.531000000000000361,-3.123530668970354363
0.532000000000000250,-3.078413210586842919
0.533000000000000362,-3.033587994527166209
0.534000000000000252,-2.989059894544154883
0.535000000000000364,-2.944833632476110186
0.536000000000000254,-2.900913778368782836
0.537000000000000366,-2.857304750705416563
0.538000000000000256,-2.814010816741455923
0.539000000000000368,-2.771036092939644924
0.540000000000000258,-2.728384545502224423
0.541000000000000369,-2.686059990996064961
0.542000000000000259,-2.644066097067532262
0.543000000000000371,-2.602406383243072163
0.544000000000000261,-2.561084221812280681
0.545000000000000373,-2.520102838789764377
0.546000000000000263,-2.479465314952536747
0.547000000000000375,-2.439174586949287349
0.548000000000000265,-2.399233448478669040
0.549000000000000377,-2.359644551532814383
0.550000000000000266,-2.320410407703375366
0.551000000000000378,-2.281533389546612334
0.552000000000000268,-2.243015732004697949
0.553000000000000380,-2.204859533880093814
0.554000000000000270,-2.167066759360210870
0.555000000000000382,-2.129639239589298239
0.556000000000000272,-2.092578674285042517
0.557000000000000384,-2.055886633396793339
0.558000000000000274,-2.019564558803143672
0.559000000000000385,-1.983613766045875026
0.560000000000000275,-1.948035446098105083
0.561000000000000387,-1.912830667163860188
0.562000000000000277,-1.878000376506901103
0.563000000000000389,-1.843545402306315140
0.564000000000000279,-1.809466455536731688
0.565000000000000391,-1.775764131870832374
0.566000000000000281,-1.742438913602136097
0.567000000000000393,-1.709491171585858726
0.568000000000000282,-1.676921167196004037
0.569000000000000394,-1.644729054296490078
0.570000000000000284,-1.612914881224714492
0.571000000000000396,-1.581478592785438453
0.572000000000000286,-1.550420032253500890
0.573000000000000398,-1.519738943383373453
0.574000000000000288,-1.489434972424148906
0.575000000000000400,-1.459507670138214142
0.576000000000000290,-1.429956493822152952
0.577000000000000401,-1.400780809328325605
0.578000000000000291,-1.371979893085789382
0.579000000000000403,-1.343552934119084608
0.580000000000000293,-1.315499036063685567
0.581000000000000405,-1.287817219176685679
0.582000000000000295,-1.260506422341717503
0.583000000000000407,-1.233565505066698709
0.584000000000000297,-1.206993249473496288
0.585000000000000409,-1.180788362278279324
0.586000000000000298,-1.154949476761671923
0.587000000000000410,-1.129475154727587638
0.588000000000000300,-1.104363888449966247
0.589000000000000412,-1.079614102606350601
0.590000000000000302,-1.055224156197627661
0.591000000000000414,-1.031192344453012000
0.592000000000000304,-1.007516900719562791
0.593000000000000416,-0.984195998335451017
0.594000000000000306,-0.961227752486406906
0.595000000000000417,-0.938610222044548692
0.596000000000000307,-0.916341411389110072
0.597000000000000419,-0.894419272208400229
0.598000000000000309,-0.872841705282544345
0.599000000000000421,-0.851606562246375653
0.600000000000000311,-0.830711647332154746
0.601000000000000423,-0.810154719091515929
0.602000000000000313,-0.789933492096405510
0.603000000000000425,-0.770045638618400474
0.604000000000000314,-0.750488790286355067
0.605000000000000426,-0.731260539721714897
0.606000000000000316,-0.712358442151525106
0.607000000000000428,-0.693780016998581162
0.608000000000000318,-0.675522749448721482
0.609000000000000430,-0.657584091994828368
0.610000000000000320,-0.639961465957533115
0.611000000000000432,-0.622652262982280158
0.612000000000000322,-0.605653846512752780
0.613000000000000433,-0.588963553240414162
0.614000000000000323,-0.572578694530133214
0.615000000000000435,-0.556496557821767879
0.616000000000000325,-0.540714408007661906
0.617000000000000437,-0.525229488785971865
0.618000000000000327,-0.510039023989860896
0.619000000000000439,-0.495140218892442419
0.620000000000000329,-0.480530261487589094
0.621000000000000441,-0.466206323746542139
0.622000000000000330,-0.452165562850402991
0.623000000000000442,-0.438405122398515812
0.624000000000000332,-0.424922133592856355
0.625000000000000444,-0.411713716398447782
0.626000000000000334,-0.398776980679936277
0.627000000000000446,-0.386109027314400499
0.628000000000000336,-0.373706949280519951
0.629000000000000448,-0.361567832724217553
0.630000000000000338,-0.349688758000944566
0.631000000000000449,-0.338066800694685310
0.632000000000000339,-0.326699032613912699
0.633000000000000451,-0.315582522764597584
0.634000000000000341,-0.304714338300495380
0.635000000000000453,-0.294091545450844039
0.636000000000000343,-0.283711210425686700
0.637000000000000455,-0.273570400299018357
0.638000000000000345,-0.263666183869959769
0.639000000000000457,-0.253995632502124757
0.640000000000000346,-0.244555820941480928
0.641000000000000458,-0.235343828112828779
0.642000000000000348,-0.226356737895210325
0.643000000000000460,-0.217591639876402093
0.644000000000000350,-0.209045630086807988
0.645000000000000462,-0.200715811712908809
0.646000000000000352,-0.192599295790593844
0.647000000000000464,-0.184693201878532581
0.648000000000000353,-0.176994658711952357
0.649000000000000465,-0.169500804836939245
0.650000000000000355,-0.162208789225656402
0.651000000000000467,-0.155115771872614050
0.652000000000000357,-0.148218924372362448
0.653000000000000469,-0.141515430478778209
0.654000000000000359,-0.135002486646287778
0.655000000000000471,-0.128677302553214690
0.656000000000000361,-0.122537101607609292
0.657000000000000473,-0.116579121435733929
0.658000000000000362,-0.110800614353559618
0.659000000000000474,-0.105198847821467004
0.660000000000000364,-0.099771104882502140
0.661000000000000476,-0.094514684584372857
0.662000000000000366,-0.089426902385517801
