# TricalciumSilicate001_CS-10471-AC
# h[nm],U(h)[kJ/mol]
0.149999999999999994,139.118505211441942038
0.150999999999999995,137.044145288011407047
0.151999999999999996,135.078898309136832268
0.152999999999999997,133.095253432967609797
0.153999999999999998,131.077654595394790249
0.154999999999999999,129.049480749222283293
0.156000000000000000,127.038983018690061044
0.157000000000000001,125.066222742084249830
0.158000000000000002,123.140463306160512502
0.159000000000000002,121.262071118201077979
0.160000000000000003,119.425771444660199450
0.161000000000000004,117.623743227174145431
0.162000000000000005,115.847956951778385815
0.163000000000000006,114.091642491371004553
0.164000000000000007,112.349999315948892331
0.165000000000000008,110.620342282838421966
0.166000000000000009,108.901881360090285966
0.167000000000000010,107.195303962984056056
0.168000000000000010,105.502287206186721846
0.169000000000000011,103.825026452689286316
0.170000000000000012,102.165831689533902704
0.171000000000000013,100.526816350766722508
0.172000000000000014,98.909684113218347079
0.173000000000000015,97.315606841032419538
0.174000000000000016,95.745179850354162454
0.175000000000000017,94.198437609685171878
0.176000000000000018,92.674912654038621440
0.177000000000000018,91.173721870975924730
0.178000000000000019,89.693666647544191051
0.179000000000000020,88.233336094960151286
0.180000000000000021,86.791205316050067609
0.181000000000000022,85.365723212637277584
0.182000000000000023,83.955386515496329025
0.183000000000000024,82.558798502982213563
0.184000000000000025,81.174712252110580835
0.185000000000000026,79.802059266173500873
0.186000000000000026,78.439964992620133444
0.187000000000000027,77.087753138724536939
0.188000000000000028,75.744940866538655655
0.189000000000000029,74.411226955641282643
0.190000000000000030,73.086474909362777908
0.191000000000000031,71.770692787636178878
0.192000000000000032,70.464011310283964917
0.193000000000000033,69.166661514268994893
0.194000000000000034,67.878952986759031774
0.195000000000000034,66.601253446775558587
0.196000000000000035,65.333970221090538644
0.197000000000000036,64.077533960511388500
0.198000000000000037,62.832384773415114410
0.199000000000000038,61.598960814801102970
0.200000000000000039,60.377689260064492771
0.201000000000000040,59.168979510893244367
0.202000000000000041,57.973218423238108699
0.203000000000000042,56.790767310921033584
0.204000000000000042,55.621960459759790751
0.205000000000000043,54.467104882803290877
0.206000000000000044,53.326481054300948870
0.207000000000000045,52.200344375571127387
0.208000000000000046,51.088927147511235205
0.209000000000000047,49.992440849980894768
0.210000000000000048,48.911078555909703880
0.211000000000000049,47.845017336283071074
0.212000000000000050,46.794420539995897457
0.213000000000000050,45.759439859069061640
0.214000000000000051,44.740217114259266395
0.215000000000000052,43.736885718241957477
0.216000000000000053,42.749571793052055568
0.217000000000000054,41.778394935221527362
0.218000000000000055,40.823468636056013281
0.219000000000000056,39.884900375837347042
0.220000000000000057,38.962791419574138274
0.221000000000000058,38.057236348455191433
0.222000000000000058,37.168322365609988367
0.223000000000000059,36.296128417400744581
0.224000000000000060,35.440724172503173861
0.225000000000000061,34.602168900729232348
0.226000000000000062,33.780510292138565376
0.227000000000000063,32.975783254698370683
0.228000000000000064,32.188008725789323705
0.229000000000000065,31.417192529398597856
0.230000000000000066,30.663324307058850593
0.231000000000000066,29.926376546620986119
0.232000000000000067,29.206303728915770535
0.233000000000000068,28.503041608363012926
0.234000000000000069,27.816506639714692284
0.235000000000000070,27.146595559433809086
0.236000000000000071,26.493185126768263871
0.237000000000000072,25.856132026413803260
0.238000000000000073,25.235272931799372031
0.239000000000000073,24.630424725487849003
0.240000000000000074,24.041384870967352327
0.241000000000000075,23.467931928217304005
0.242000000000000076,22.909826203856972882
0.243000000000000077,22.366810525411978006
0.244000000000000078,21.838611128249553417
0.245000000000000079,21.324938643016466244
0.246000000000000080,20.825489170944219808
0.247000000000000081,20.339945434139902858
0.248000000000000081,19.867977987937273099
0.249000000000000082,19.409246482516039123
0.250000000000000111,18.963400961285699964
0.251000000000000112,18.530083183951489900
0.252000000000000113,18.108927962711739212
0.253000000000000114,17.699564500660688537
0.254000000000000115,17.301617722165435254
0.255000000000000115,16.914709585737810471
0.256000000000000116,16.538460370711405290
0.257000000000000117,16.172489929849120927
0.258000000000000118,15.816418900834150918
0.259000000000000119,15.469869870424451719
0.260000000000000120,15.132468485869598140
0.261000000000000121,14.803844508989874029
0.262000000000000122,14.483632809093279548
0.263000000000000123,14.171474291651435351
0.264000000000000123,13.867016760364510475
0.265000000000000124,13.569915710915401164
0.266000000000000125,13.279835055340345917
0.267000000000000126,12.996447776526494522
0.268000000000000127,12.719436512883422807
0.269000000000000128,12.448494073726793729
0.270000000000000129,12.183323886356477672
0.271000000000000130,11.923640376209593938
0.272000000000000131,11.669169281822622253
0.273000000000000131,11.419647906646213542
0.274000000000000132,11.174825310024004921
0.275000000000000133,10.934462439873879447
0.276000000000000134,10.698332209799179537
0.277000000000000135,10.466219523510552847
0.278000000000000136,10.237921249557853542
0.279000000000000137,10.013246149459531509
0.280000000000000138,9.792014762375412573
0.281000000000000139,9.574059249500566082
0.282000000000000139,9.359223201365605149
0.283000000000000140,9.147361411213999816
0.284000000000000141,8.938339617592765407
0.285000000000000142,8.732034219240734529
0.286000000000000143,8.528331965291021888
0.287000000000000144,8.327129623723298124
0.288000000000000145,8.128333630908212371
0.289000000000000146,7.931859724984174242
0.290000000000000147,7.737632565694960718
0.291000000000000147,7.545585343199595840
0.292000000000000148,7.355659378242402013
0.293000000000000149,7.167803715944667253
0.294000000000000150,6.981974715349648974
0.295000000000000151,6.798135636721276853
0.296000000000000152,6.616256228465400291
0.297000000000000153,6.436312315410799734
0.298000000000000154,6.258285390056807174
0.299000000000000155,6.082162208265893710
0.300000000000000155,5.907934390753473153
0.301000000000000156,5.735598031604210334
0.302000000000000157,5.565153314924204508
0.303000000000000158,5.396604140623164625
0.304000000000000159,5.229957760208651329
0.305000000000000160,5.065224423367834738
0.306000000000000161,4.902417036009547147
0.307000000000000162,4.741550830341996203
0.308000000000000163,4.582643047468913267
0.309000000000000163,4.425712632899422516
0.310000000000000164,4.270779945284266077
0.311000000000000165,4.117866478613830594
0.312000000000000166,3.966994598040803233
0.313000000000000167,3.818187289422985575
0.314000000000000168,3.671467922619250146
0.315000000000000169,3.526860028513782108
0.316000000000000170,3.384387089690640060
0.317000000000000171,3.244072344632146443
0.318000000000000171,3.105938605270412545
0.319000000000000172,2.970008087681054842
0.320000000000000173,2.836302255672501271
0.321000000000000174,2.704841676991995847
0.322000000000000175,2.575645891840959045
0.323000000000000176,2.448733293367570063
0.324000000000000177,2.324121019782687370
0.325000000000000178,2.201824857727002982
0.326000000000000179,2.081859156501429720
0.327000000000000179,1.964236752760501803
0.328000000000000180,1.848968905257971640
0.329000000000000181,1.736065239226350254
0.330000000000000182,1.625533699966666079
0.331000000000000183,1.517380515221153692
0.332000000000000184,1.411610165900379465
0.333000000000000185,1.308225364736507412
0.334000000000000186,1.207227042436315179
0.335000000000000187,1.108614340911125762
0.336000000000000187,1.012384613165336678
0.337000000000000188,0.918533429431568349
0.338000000000000189,0.827054589147070196
0.339000000000000190,0.737940138374267640
0.340000000000000191,0.651180392277298625
0.341000000000000192,0.566763962275653621
0.342000000000000193,0.484677787506631208
0.343000000000000194,0.404907170238783365
0.344000000000000195,0.327435814890276899
0.345000000000000195,0.252245870317066023
0.346000000000000196,0.179317975048396056
0.347000000000000197,0.108631305158908037
0.348000000000000198,0.040163624479102510
0.349000000000000199,-0.026108663141505416
0.350000000000000200,-0.090210459791929723
0.351000000000000201,-0.152167917938582642
0.352000000000000202,-0.212008383593730809
0.353000000000000203,-0.269760338449447690
0.354000000000000203,-0.325453341200657498
0.355000000000000204,-0.379117968268645689
0.356000000000000205,-0.430785754124720199
0.357000000000000206,-0.480489131401923064
0.358000000000000207,-0.528261370970999677
0.359000000000000208,-0.574136522146023842
0.360000000000000209,-0.618149353173932381
0.361000000000000210,-0.660335292151523312
0.362000000000000210,-0.700730368503412082
0.363000000000000211,-0.739371155144194381
0.364000000000000212,-0.776294711438602958
0.365000000000000213,-0.811538527063949466
0.366000000000000214,-0.845140466870275220
0.367000000000000215,-0.877138716824908515
0.368000000000000216,-0.907571731119955372
0.369000000000000217,-0.936478180513067748
0.370000000000000218,-0.963896901964536368
0.371000000000000218,-0.989866849626153567
0.372000000000000219,-1.014427047230680001
0.373000000000000220,-1.037616541923974900
0.374000000000000221,-1.059474359575650837
0.375000000000000222,-1.080039461598080841
0.376000000000000223,-1.099350703298292320
0.377000000000000224,-1.117446793781547765
0.378000000000000225,-1.134366257420768020
0.379000000000000226,-1.150147396901038732
0.380000000000000226,-1.164828257844287007
0.381000000000000227,-1.178446595014713161
0.382000000000000228,-1.191039840102148029
0.383000000000000229,-1.202645071076584360
0.384000000000000230,-1.213298983103916262
0.385000000000000231,-1.223037861009962146
0.386000000000000232,-1.231897553276712909
0.387000000000000233,-1.239913447552446035
0.388000000000000234,-1.247120447654635367
0.389000000000000234,-1.253552952042706004
0.390000000000000235,-1.259244833735383873
0.391000000000000236,-1.264229421645833851
0.392000000000000237,-1.268539483305995752
0.393000000000000238,-1.272207208950215440
0.394000000000000239,-1.275264196926818361
0.395000000000000240,-1.277741440405358420
0.396000000000000241,-1.279669315346134040
0.397000000000000242,-1.281077569697767427
0.398000000000000242,-1.281995313788062196
0.399000000000000243,-1.282451011872557389
0.400000000000000244,-1.282472474804940532
0.401000000000000245,-1.282086853793111603
0.402000000000000246,-1.281320635204248770
0.403000000000000247,-1.280199636382395534
0.404000000000000248,-1.278749002441790239
0.405000000000000249,-1.276993203999317483
0.406000000000000250,-1.274956035809511778
0.407000000000000250,-1.272660616265785638
0.408000000000000251,-1.270129387731759651
0.409000000000000252,-1.267384117666931820
0.410000000000000253,-1.264445900511254717
0.411000000000000254,-1.261335160293659330
0.412000000000000255,-1.258071653929991429
0.413000000000000256,-1.254674475176448700
0.414000000000000257,-1.251162059204965260
0.415000000000000258,-1.247552187767878351
0.416000000000000258,-1.243861994919519987
0.417000000000000259,-1.240107973263310459
0.418000000000000260,-1.236305980693401363
0.419000000000000261,-1.232471247600783304
0.420000000000000262,-1.228618384514333695
0.421000000000000263,-1.224761390148218165
0.422000000000000264,-1.220913659827560060
0.423000000000000265,-1.217087994265276141
0.424000000000000266,-1.213296608663692933
0.425000000000000266,-1.209551142115167011
0.426000000000000267,-1.205862667276994316
0.427000000000000268,-1.202241700296434512
0.428000000000000269,-1.198698210962581223
0.429000000000000270,-1.195241633062593012
0.430000000000000271,-1.191880874920475453
0.431000000000000272,-1.188624330097545867
0.432000000000000273,-1.185479888234293622
0.433000000000000274,-1.182454946014279695
0.434000000000000274,-1.179556418231350712
0.435000000000000275,-1.176790748942242226
0.436000000000000276,-1.174163922687403439
0.437000000000000277,-1.171681475763507896
0.438000000000000278,-1.169348507531942527
0.439000000000000279,-1.167169691748205729
0.440000000000000280,-1.165149287897798924
0.441000000000000281,-1.163291152524934535
0.442000000000000282,-1.161598750541072533
0.443000000000000282,-1.160075166500768251
0.444000000000000283,-1.158723115833196315
0.445000000000000284,-1.157544956018129012
0.446000000000000285,-1.156542697695796207
0.447000000000000286,-1.155718015700791357
0.448000000000000287,-1.155072260010458818
0.449000000000000288,-1.154606466599093384
0.450000000000000289,-1.154321368189520136
0.451000000000000290,-1.154217404894355647
0.452000000000000290,-1.154294734739688355
0.453000000000000291,-1.154553244064337125
0.454000000000000292,-1.154992557788462104
0.455000000000000293,-1.155612049545643227
0.456000000000000294,-1.156410851673048468
0.457000000000000295,-1.157387865054736675
0.458000000000000296,-1.158541768813519779
0.459000000000000297,-1.159871029847262758
0.460000000000000298,-1.161373912205844405
0.461000000000000298,-1.163048486305380713
0.462000000000000299,-1.164892637976693290
0.463000000000000300,-1.166904077345285451
0.464000000000000301,-1.169080347540519149
0.465000000000000302,-1.171418833231891110
0.466000000000000303,-1.173916768990666437
0.467000000000000304,-1.176571247475435511
0.468000000000000305,-1.179379227440367606
0.469000000000000306,-1.182337541565249062
0.470000000000000306,-1.185442904106690287
0.471000000000000307,-1.188691918369940037
0.472000000000000308,-1.192081084001245017
0.473000000000000309,-1.195606804100672438
0.474000000000000310,-1.199265392155634435
0.475000000000000311,-1.203053078795534692
0.476000000000000312,-1.206966018368134108
0.477000000000000313,-1.211000295338394706
0.478000000000000314,-1.215151930510717460
0.479000000000000314,-1.219416887075725153
0.480000000000000315,-1.223791076482735773
0.481000000000000316,-1.228270364139401494
0.482000000000000317,-1.232850574939904575
0.483000000000000318,-1.237527498623428146
0.484000000000000319,-1.242296894964573628
0.485000000000000320,-1.247154498797579780
0.486000000000000321,-1.252096024876294456
0.487000000000000322,-1.257117172571909913
0.488000000000000322,-1.262213630410528253
0.489000000000000323,-1.267381080452842035
0.490000000000000324,-1.272615202518077915
0.491000000000000325,-1.277911678254590511
0.492000000000000326,-1.283266195059426851
0.493000000000000327,-1.288674449849354531
0.494000000000000328,-1.294132152685758097
0.495000000000000329,-1.299635030255982482
0.496000000000000330,-1.305178829213601732
0.497000000000000330,-1.310759319380312204
0.498000000000000331,-1.316372296811894049
0.499000000000000332,-1.322013586731050072
0.500000000000000333,-1.327679046329673040
0.501000000000000334,-1.333364567443195536
0.502000000000000335,-1.339066079099789919
0.503000000000000336,-1.344779549947007435
0.504000000000000337,-1.350500990558626269
0.505000000000000338,-1.356226455624328864
0.506000000000000338,-1.361952046024959895
0.507000000000000339,-1.367673910796016745
0.508000000000000340,-1.373388248982025273
0.509000000000000341,-1.379091311384550433
0.510000000000000342,-1.384779402206379961
0.511000000000000343,-1.390448880594634895
0.512000000000000344,-1.396096162085324499
0.513000000000000345,-1.401717719952010999
0.514000000000000346,-1.407310086461184939
0.515000000000000346,-1.412869854036820083
0.516000000000000347,-1.418393676336715314
0.517000000000000348,-1.423878269243140204
0.518000000000000349,-1.429320411770181654
0.519000000000000350,-1.434716946890352229
0.520000000000000351,-1.440064782282769684
0.521000000000000352,-1.445360891005424309
0.522000000000000353,-1.450602312093752122
0.523000000000000353,-1.455786151087958613
0.524000000000000354,-1.460909580491323911
0.525000000000000355,-1.465969840161764015
0.526000000000000356,-1.470964237638842764
0.527000000000000357,-1.475890148408484759
0.528000000000000358,-1.480745016107462231
0.529000000000000359,-1.485526352669833461
0.530000000000000360,-1.490231738417347795
0.531000000000000361,-1.494858822095918027
0.532000000000000361,-1.499405320860114355
0.533000000000000362,-1.503869020207659446
0.534000000000000363,-1.508247773865839525
0.535000000000000364,-1.512539503631745941
0.536000000000000365,-1.516742199168138017
0.537000000000000366,-1.520853917756808116
0.538000000000000367,-1.524872784011125804
0.539000000000000368,-1.528796989549618290
0.540000000000000369,-1.532624792632139465
0.541000000000000369,-1.536354517760408100
0.542000000000000370,-1.539984555244430009
0.543000000000000371,-1.543513360736459505
0.544000000000000372,-1.546939454734001407
0.545000000000000373,-1.550261422053368587
0.546000000000000374,-1.553477911275264800
0.547000000000000375,-1.556587634163802303
0.548000000000000376,-1.559589365060402688
0.549000000000000377,-1.562481940253857449
0.550000000000000377,-1.565264257327963815
0.551000000000000378,-1.567935274487919362
0.552000000000000379,-1.570494009866836960
0.553000000000000380,-1.572939540813508286
0.554000000000000381,-1.575271003162633798
0.555000000000000382,-1.577487590488708680
0.556000000000000383,-1.579588553344581925
0.557000000000000384,-1.581573198485897169
0.558000000000000385,-1.583440888082354059
0.559000000000000385,-1.585191038916888839
0.560000000000000386,-1.586823121573732731
0.561000000000000387,-1.588336659616299995
0.562000000000000388,-1.589731228755844716
0.563000000000000389,-1.591006456011802461
0.564000000000000390,-1.592162018864641926
0.565000000000000391,-1.593197644402117197
0.566000000000000392,-1.594113108459690009
0.567000000000000393,-1.594908234755962662
0.568000000000000393,-1.595582894023801934
0.569000000000000394,-1.596137003137961141
0.570000000000000395,-1.596570524239882882
0.571000000000000396,-1.596883463860313102
0.572000000000000397,-1.597075872040489619
0.573000000000000398,-1.597147841452410955
0.574000000000000399,-1.597099506518909529
0.575000000000000400,-1.596931042534016409
0.576000000000000401,-1.596642664784237331
0.577000000000000401,-1.596234627671292206
0.578000000000000402,-1.595707223836766886
0.579000000000000403,-1.595060783289226958
0.580000000000000404,-1.594295672534287167
0.581000000000000405,-1.593412293708014182
0.582000000000000406,-1.592411083714191822
0.583000000000000407,-1.591292513365784256
0.584000000000000408,-1.590057086531052599
0.585000000000000409,-1.588705339284677498
0.586000000000000409,-1.587237839064234990
0.587000000000000410,-1.585655183832435311
0.588000000000000411,-1.583958001245331593
0.589000000000000412,-1.582146947826971628
0.590000000000000413,-1.580222708150614386
0.591000000000000414,-1.578185994026929384
0.592000000000000415,-1.576037543699374543
0.593000000000000416,-1.573778121046999212
0.594000000000000417,-1.571408514794931932
0.595000000000000417,-1.568929537732798529
0.596000000000000418,-1.566342025941171112
0.597000000000000419,-1.563646838026408581
0.598000000000000420,-1.560844854363889311
0.599000000000000421,-1.557936976349968416
0.600000000000000422,-1.554924125662701995
0.601000000000000423,-1.551807243531525327
0.602000000000000424,-1.548587290016048446
0.603000000000000425,-1.545265243294053459
0.604000000000000425,-1.541842098958798868
0.605000000000000426,-1.538318869325779215
0.606000000000000427,-1.534696582749032201
0.607000000000000428,-1.530976282946963085
0.608000000000000429,-1.527159028337996327
0.609000000000000430,-1.523245891385825779
0.610000000000000431,-1.519237957954598928
0.611000000000000432,-1.515136326673886646
0.612000000000000433,-1.510942108313563459
0.613000000000000433,-1.506656425168650060
