# TricalciumSilicate001_PYRROLE-AC
# h[nm],U(h)[kJ/mol]
0.149999999999999994,119.635859115772177574
0.150999999999999995,117.510968072137274021
0.151999999999999996,115.812377289890491738
0.152999999999999997,114.179018680389873452
0.153999999999999998,112.497520473513148431
0.154999999999999999,110.762665774476388947
0.156000000000000000,109.005446527445812421
0.157000000000000001,107.259614382680140920
0.158000000000000002,105.549040696001810602
0.159000000000000002,103.885453325418097847
0.160000000000000003,102.270644780217040193
0.161000000000000004,100.700003810906224544
0.162000000000000005,99.165850015005844398
0.163000000000000006,97.659970272809857761
0.164000000000000007,96.175241749240711897
0.165000000000000008,94.706455375629360560
0.166000000000000009,93.250537496035192930
0.167000000000000010,91.806374294788810175
0.168000000000000010,90.374414635674128249
0.169000000000000011,88.956185396714488434
0.170000000000000012,87.553811727924937713
0.171000000000000013,86.169598767206451839
0.172000000000000014,84.805703296086761611
0.173000000000000015,83.463903617161662396
0.174000000000000016,82.145462606634879421
0.175000000000000017,80.851071082585704630
0.176000000000000018,79.580854948877657762
0.177000000000000018,78.334428787955872053
0.178000000000000019,77.110979661596388723
0.179000000000000020,75.909367044186041085
0.180000000000000021,74.728227476214499347
0.181000000000000022,73.566075283040362365
0.182000000000000023,72.421393295646595334
0.183000000000000024,71.292709785363598485
0.184000000000000025,70.178659712425115913
0.185000000000000026,69.078029872902803277
0.186000000000000026,67.989788630037239159
0.187000000000000027,66.913101675404675461
0.188000000000000028,65.847335734403174001
0.189000000000000029,64.792052363946652349
0.190000000000000030,63.746994040955975436
0.191000000000000031,62.712064656370955618
0.192000000000000032,61.687306352770143292
0.193000000000000033,60.672874409115522099
0.194000000000000034,59.669011611623702152
0.195000000000000034,58.676023276897225855
0.196000000000000035,57.694253828172648468
0.197000000000000036,56.724065578960065181
0.198000000000000037,55.765820157568967375
0.199000000000000038,54.819862814950091945
0.200000000000000039,53.886509698373956212
0.201000000000000040,52.966038044313698663
0.202000000000000041,52.058679143806195100
0.203000000000000042,51.164613859974551247
0.204000000000000042,50.283970427240362255
0.205000000000000043,49.416824231747654039
0.206000000000000044,48.563199259338574620
0.207000000000000045,47.723070897876503693
0.208000000000000046,46.896369791833720342
0.209000000000000047,46.082986466174844509
0.210000000000000048,45.282776461316146310
0.211000000000000049,44.495565749309648140
0.212000000000000050,43.721156231692035021
0.213000000000000050,42.959331150279751910
0.214000000000000051,42.209860272483723520
0.215000000000000052,41.472504741627609803
0.216000000000000053,40.747021509671867534
0.217000000000000054,40.033167294254617730
0.218000000000000055,39.330702023807205592
0.219000000000000056,38.639391753569114485
0.220000000000000057,37.959011051598594122
0.221000000000000058,37.289344867431864827
0.222000000000000058,36.630189907010986872
0.223000000000000059,35.981355546070801665
0.224000000000000060,35.342664320550596813
0.225000000000000061,34.713952037012333562
0.226000000000000062,34.095067548736849972
0.227000000000000063,33.485872244370334272
0.228000000000000064,32.886239295934316829
0.229000000000000065,32.296052711908302513
0.230000000000000066,31.715206239151711998
0.231000000000000066,31.143602154830698936
0.232000000000000067,30.581149986427693221
0.233000000000000068,30.027765194479673738
0.234000000000000069,29.483367849049688658
0.235000000000000070,28.947881327190838618
0.236000000000000071,28.421231054910322200
0.237000000000000072,27.903343313457941832
0.238000000000000073,27.394144126212534474
0.239000000000000073,26.893558239070859628
0.240000000000000074,26.401508204090720966
0.241000000000000075,25.917913573234368840
0.242000000000000076,25.442690206412798659
0.243000000000000077,24.975749695657984972
0.244000000000000078,24.516998905150487076
0.245000000000000079,24.066339625001031521
0.246000000000000080,23.623668335119894834
0.247000000000000081,23.188876074194912036
0.248000000000000081,22.761848407725857157
0.249000000000000082,22.342465488212102542
0.250000000000000111,21.930602199946044095
0.251000000000000112,21.526128380408316332
0.252000000000000113,21.128909109973101010
0.253000000000000114,20.738805061497181725
0.254000000000000115,20.355672901362670046
0.255000000000000115,19.979365733657083126
0.256000000000000116,19.609733579386308122
0.257000000000000117,19.246623882911077175
0.258000000000000118,18.889882038161914579
0.259000000000000119,18.539351927605746795
0.260000000000000120,18.194876467398518827
0.261000000000000121,17.856298152650261102
0.262000000000000122,17.523459597241764385
0.263000000000000123,17.196204063156837805
0.264000000000000123,16.874375974822331870
0.265000000000000124,16.557821414473316679
0.266000000000000125,16.246388595077096539
0.267000000000000126,15.939928307851428002
0.268000000000000127,15.638294341895820239
0.269000000000000128,15.341343873916766682
0.270000000000000129,15.048937826464936052
0.271000000000000130,14.760941193512957526
0.272000000000000131,14.477223332585442250
0.273000000000000131,14.197658223006609290
0.274000000000000132,13.922124690155357030
0.275000000000000133,13.650506595912379026
0.276000000000000134,13.382692995749655651
0.277000000000000135,13.118578263149611729
0.278000000000000136,12.858062182249838656
0.279000000000000137,12.601050009791441298
0.280000000000000138,12.347452507605215288
0.281000000000000139,12.097185947001248607
0.282000000000000139,11.850172086536103322
0.283000000000000140,11.606338124718320159
0.284000000000000141,11.365616629279477579
0.285000000000000142,11.127945444685776621
0.286000000000000143,10.893267579595477201
0.287000000000000144,10.661531075982626504
0.288000000000000145,10.432688861647530842
0.289000000000000146,10.206698587822895519
0.290000000000000147,9.983522453560109255
0.291000000000000147,9.763127018547063329
0.292000000000000148,9.545483005965767376
0.293000000000000149,9.330565096948276960
0.294000000000000150,9.118351718132478467
0.295000000000000151,8.908824823757321099
0.296000000000000152,8.701969673670514993
0.297000000000000153,8.497774608551820208
0.298000000000000154,8.296230823582167346
0.299000000000000155,8.097332141714471021
0.300000000000000155,7.901074787626150453
0.301000000000000156,7.707457163357266161
0.302000000000000157,7.516479626561554994
0.303000000000000158,7.328144272222544942
0.304000000000000159,7.142454718611638498
0.305000000000000160,6.959415898192332861
0.306000000000000161,6.779033854102813450
0.307000000000000162,6.601315542779937928
0.308000000000000163,6.426268643220440779
0.309000000000000163,6.253901373310509548
0.310000000000000164,6.084222313592988485
0.311000000000000165,5.917240238782369488
0.312000000000000166,5.752963957281492569
0.313000000000000167,5.591402158900767638
0.314000000000000168,5.432563270930599764
0.315000000000000169,5.276455322670587478
0.316000000000000170,5.123085818475095365
0.317000000000000171,4.972461619333900629
0.318000000000000171,4.824588832968672136
0.319000000000000172,4.679472712390984057
0.320000000000000173,4.537117562835575768
0.321000000000000174,4.397526656953355761
0.322000000000000175,4.260702158121896233
0.323000000000000176,4.126645051707546585
0.324000000000000177,3.995355084091665621
0.325000000000000178,3.866830709254819531
0.326000000000000179,3.741069042695804203
0.327000000000000179,3.618065822448395696
0.328000000000000180,3.497815376946024735
0.329000000000000181,3.380310599474451116
0.330000000000000182,3.265542928944056289
0.331000000000000183,3.153502336706464959
0.332000000000000184,3.044177319135382920
0.333000000000000185,2.937554895687804368
0.334000000000000186,2.833620612159651664
0.335000000000000187,2.732358548849141755
0.336000000000000187,2.633751333341388001
0.337000000000000188,2.537780157629571764
0.338000000000000189,2.444424799290089823
0.339000000000000190,2.353663646432800682
0.340000000000000191,2.265473726151742806
0.341000000000000192,2.179830736206499253
0.342000000000000193,2.096709079670245668
0.343000000000000194,2.016081902286557259
0.344000000000000195,1.937921132284197157
0.345000000000000195,1.862197522405707018
0.346000000000000196,1.788880693913883047
0.347000000000000197,1.717939182347611338
0.348000000000000198,1.649340484806997909
0.349000000000000199,1.583051108556017494
0.350000000000000200,1.519036620739432797
0.351000000000000201,1.457261699019453571
0.352000000000000202,1.397690182946315751
0.353000000000000203,1.340285125885703810
0.354000000000000203,1.285008847334713877
0.355000000000000204,1.231822985466863418
0.356000000000000205,1.180688549755222194
0.357000000000000206,1.131565973531255098
0.358000000000000207,1.084415166345720438
0.359000000000000208,1.039195566005927329
0.360000000000000209,0.995866190171998844
0.361000000000000210,0.954385687402859118
0.362000000000000210,0.914712387550249972
0.363000000000000211,0.876804351406884841
0.364000000000000212,0.840619419522081968
0.365000000000000213,0.806115260105479514
0.366000000000000214,0.773249415946311691
0.367000000000000215,0.741979350282489070
0.368000000000000216,0.712262491560005651
0.369000000000000217,0.684056277029689852
0.370000000000000218,0.657318195133936856
0.371000000000000218,0.632005826642112689
0.372000000000000219,0.608076884498463976
0.373000000000000220,0.585489252351808709
0.374000000000000221,0.564201021741104203
0.375000000000000222,0.544170527915896596
0.376000000000000223,0.525356384274804467
0.377000000000000224,0.507717515409794817
0.378000000000000225,0.491213188747772034
0.379000000000000226,0.475803044784902096
0.380000000000000226,0.461447125912483380
0.381000000000000227,0.448105903836776787
0.382000000000000228,0.435740305598013689
0.383000000000000229,0.424311738196927912
0.384000000000000230,0.413782111839833711
0.385000000000000231,0.404113861815608044
0.386000000000000232,0.395269969020560830
0.387000000000000233,0.387213979148980370
0.388000000000000234,0.379910020569427853
0.389000000000000234,0.373322820908366271
0.390000000000000235,0.367417722364533739
0.391000000000000236,0.362160695778860064
0.392000000000000237,0.357518353486086238
0.393000000000000238,0.353457960975382401
0.394000000000000239,0.349947447388398114
0.395000000000000240,0.346955414883993396
0.396000000000000241,0.344451146899747318
0.397000000000000242,0.342404615341077911
0.398000000000000242,0.340786486729203086
0.399000000000000243,0.339568127339853199
0.400000000000000244,0.338721607364859567
0.401000000000000245,0.338219704128993826
0.402000000000000246,0.338035904394825892
0.403000000000000247,0.338144405788168512
0.404000000000000248,0.338520117376950647
0.405000000000000249,0.339138659436169720
0.406000000000000250,0.339976362431540668
0.407000000000000250,0.341010265254192924
0.408000000000000251,0.342218112738636393
0.409000000000000252,0.343578352495831241
0.410000000000000253,0.345070131092909904
0.411000000000000254,0.346673289610703983
0.412000000000000255,0.348368358609816520
0.413000000000000256,0.350136552535431966
0.414000000000000257,0.351959763590743380
0.415000000000000258,0.353820555108077417
0.416000000000000258,0.355702154446533358
0.417000000000000259,0.357588445444100400
0.418000000000000260,0.359463960451838649
0.419000000000000261,0.361313871976896295
0.420000000000000262,0.363123983960661256
0.421000000000000263,0.364880722717519534
0.422000000000000264,0.366571127559211951
0.423000000000000265,0.368182841128959826
0.424000000000000266,0.369704099468845804
0.425000000000000266,0.371123721843417631
0.426000000000000267,0.372431100341542920
0.427000000000000268,0.373616189278037414
0.428000000000000269,0.374669494415827142
0.429000000000000270,0.375582062028643415
0.430000000000000271,0.376345467823720248
0.431000000000000272,0.376951805743057866
0.432000000000000273,0.377393676661349764
0.433000000000000274,0.377664176997808021
0.434000000000000274,0.377756887258566210
0.435000000000000275,0.377665860525637609
0.436000000000000276,0.377385610907698843
0.437000000000000277,0.376911101967439710
0.438000000000000278,0.376237735139457352
0.439000000000000279,0.375361338152104540
0.440000000000000280,0.374278153466103269
0.441000000000000281,0.372984826742119413
0.442000000000000282,0.371478395348804280
0.443000000000000282,0.369756276922465099
0.444000000000000283,0.367816257988637152
0.445000000000000284,0.365656482655592974
0.446000000000000285,0.363275441389084131
0.447000000000000286,0.360671959877081894
0.448000000000000287,0.357845187992956171
0.449000000000000288,0.354794588864765725
0.450000000000000289,0.351519928058095510
0.451000000000000290,0.348021262879230853
0.452000000000000290,0.344298931805064989
0.453000000000000291,0.340353544045744971
0.454000000000000292,0.336185969245502370
0.455000000000000293,0.331797327326836755
0.456000000000000294,0.327188978482725601
0.457000000000000295,0.322362513321159061
0.458000000000000296,0.317319743165986101
0.459000000000000297,0.312062690517598385
0.460000000000000298,0.306593579676705974
0.461000000000000298,0.300914827534097484
0.462000000000000299,0.295029034528923539
0.463000000000000300,0.288938975777823182
0.464000000000000301,0.282647592376772505
0.465000000000000302,0.276157982877399344
0.466000000000000303,0.269473394939130806
0.467000000000000304,0.262597217158308471
0.468000000000000305,0.255532971075185578
0.469000000000000306,0.248284303359435021
0.470000000000000306,0.240854978174565831
0.471000000000000307,0.233248869721518648
0.472000000000000308,0.225469954961368430
0.473000000000000309,0.217522306516952174
0.474000000000000310,0.209410085753059499
0.475000000000000311,0.201137536034578401
0.476000000000000312,0.192708976161900913
0.477000000000000313,0.184128793982652639
0.478000000000000314,0.175401440178763801
0.479000000000000314,0.166531422227617465
0.480000000000000315,0.157523298536045187
0.481000000000000316,0.148381672745647092
0.482000000000000317,0.139111188207943381
0.483000000000000318,0.129716522627635111
0.484000000000000319,0.120202382872244898
0.485000000000000320,0.110573499946246476
0.486000000000000321,0.100834624127731115
0.487000000000000322,0.090990520265571972
0.488000000000000322,0.081045963235015159
0.489000000000000323,0.071005733549436331
0.490000000000000324,0.060874613126088814
0.491000000000000325,0.050657381203516906
0.492000000000000326,0.040358810408270406
0.493000000000000327,0.029983662968528991
0.494000000000000328,0.019536687072191493
0.495000000000000329,0.009022613366941457
0.496000000000000330,-0.001553848400203184
0.497000000000000330,-0.012188012606455767
0.498000000000000331,-0.022875220842406296
0.499000000000000332,-0.033610844869449340
0.500000000000000333,-0.044390289448039598
0.501000000000000334,-0.055208995039350596
0.502000000000000335,-0.066062440383067633
0.503000000000000336,-0.076946144953839529
0.504000000000000337,-0.087855671299099256
0.505000000000000338,-0.098786627260840795
0.506000000000000338,-0.109734668084003631
0.507000000000000339,-0.120695498414100363
0.508000000000000340,-0.131664874186659259
0.509000000000000341,-0.142638604411161940
0.510000000000000342,-0.153612552851982914
0.511000000000000343,-0.164582639608994885
0.512000000000000344,-0.175544842600330014
0.513000000000000345,-0.186495198949870267
0.514000000000000346,-0.197429806282025666
0.515000000000000346,-0.208344823926213507
0.516000000000000347,-0.219236474033589618
0.517000000000000348,-0.230101042608462952
0.518000000000000349,-0.240934880456791456
0.519000000000000350,-0.251734404054192229
0.520000000000000351,-0.262496096335799678
0.521000000000000352,-0.273216507410352860
0.522000000000000353,-0.283892255200750121
0.523000000000000353,-0.294520026013431913
0.524000000000000354,-0.305096575038752260
0.525000000000000355,-0.315618726784613224
0.526000000000000356,-0.326083375445474222
0.527000000000000357,-0.336487485208945170
0.528000000000000358,-0.346828090502009523
0.529000000000000359,-0.357102296178987089
0.530000000000000360,-0.367307277653230735
0.531000000000000361,-0.377440280974602804
0.532000000000000361,-0.387498622854654140
0.533000000000000362,-0.397479690641446948
0.534000000000000363,-0.407380942245895217
0.535000000000000364,-0.417199906021503975
0.536000000000000365,-0.426934180599277791
0.537000000000000366,-0.436581434679616742
0.538000000000000367,-0.446139406782890269
0.539000000000000368,-0.455605904960461661
0.540000000000000369,-0.464978806467748029
0.541000000000000369,-0.474256057401019337
0.542000000000000370,-0.483435672299452779
0.543000000000000371,-0.492515733714072534
0.544000000000000372,-0.501494391745040735
0.545000000000000373,-0.510369863548807756
0.546000000000000374,-0.519140432816564079
0.547000000000000375,-0.527804449225387828
0.548000000000000376,-0.536360327863511399
0.549000000000000377,-0.544806548630982213
0.550000000000000377,-0.553141655617100381
0.551000000000000378,-0.561364256455824995
0.552000000000000379,-0.569473021660469758
0.553000000000000380,-0.577466683938830272
0.554000000000000381,-0.585344037489940239
0.555000000000000382,-0.593103937283625759
0.556000000000000383,-0.600745298323894450
0.557000000000000384,-0.608267094897329885
0.558000000000000385,-0.615668359807440391
0.559000000000000385,-0.622948183596057192
0.560000000000000386,-0.630105713752724617
0.561000000000000387,-0.637140153913044016
0.562000000000000388,-0.644050763046891461
0.563000000000000389,-0.650836854637445450
0.564000000000000390,-0.657497795851824329
0.565000000000000391,-0.664033006704242368
0.566000000000000392,-0.670441959212443872
0.567000000000000393,-0.676724176548262668
0.568000000000000393,-0.682879232182984186
0.569000000000000394,-0.688906749028331045
0.570000000000000395,-0.694806398573734385
0.571000000000000396,-0.700577900020558197
0.572000000000000397,-0.706221019414007833
0.573000000000000398,-0.711735568773274818
0.574000000000000399,-0.717121405220596531
0.575000000000000400,-0.722378430109783976
0.576000000000000401,-0.727506588154786638
0.577000000000000401,-0.732505866558888163
0.578000000000000402,-0.737376294144988509
0.579000000000000403,-0.742117940487507455
0.580000000000000404,-0.746730915046438071
0.581000000000000405,-0.751215366303914722
0.582000000000000406,-0.755571480903851400
0.583000000000000407,-0.759799482794983660
0.584000000000000408,-0.763899632377782911
0.585000000000000409,-0.767872225655604534
0.586000000000000409,-0.771717593390436440
0.587000000000000410,-0.775436100263642292
0.588000000000000411,-0.779028144041967741
0.589000000000000412,-0.782494154749218573
0.590000000000000413,-0.785834593843828810
0.591000000000000414,-0.789049953402678805
0.592000000000000415,-0.792140755311405820
0.593000000000000416,-0.795107550461464418
0.594000000000000417,-0.797950917954196703
0.595000000000000417,-0.800671464312165959
0.596000000000000418,-0.803269822697900260
0.597000000000000419,-0.805746652140361341
0.598000000000000420,-0.808102636769221228
0.599000000000000421,-0.810338485057220503
0.600000000000000422,-0.812454929070724363
0.601000000000000423,-0.814452723728640526
0.602000000000000424,-0.816332646069876211
0.603000000000000425,-0.818095494529454625
0.604000000000000425,-0.819742088223382681
0.605000000000000426,-0.821273266242445787
0.606000000000000427,-0.822689886955026650
0.607000000000000428,-0.823992827318951959
0.608000000000000429,-0.825182982202642301
0.609000000000000430,-0.826261263715413086
0.610000000000000431,-0.827228600547214477
0.611000000000000432,-0.828085937317715626
0.612000000000000433,-0.828834233934855780
0.613000000000000433,-0.829474464962922875
0.614000000000000434,-0.830007619000149743
0.615000000000000435,-0.830434698065892207
0.616000000000000436,-0.830756716997394618
0.617000000000000437,-0.830974702856213332
