# TricalciumSilicate001_AZANE-AC
# h[nm],U(h)[kJ/mol]
0.149999999999999994,57.407372786374388340
0.150999999999999995,56.686417639207910213
0.151999999999999996,55.855477685387448616
0.152999999999999997,54.972423802038107965
0.153999999999999998,54.075405211514102177
0.154999999999999999,53.186418184948067278
0.156000000000000000,52.315896239734705375
0.157000000000000001,51.466924048939382885
0.158000000000000002,50.638541115129548587
0.159000000000000002,49.828052017799457474
0.160000000000000003,49.032468847921009569
0.161000000000000004,48.249284970852606591
0.162000000000000005,47.476782410024021885
0.163000000000000006,46.714046133369564018
0.164000000000000007,45.960818830027257320
0.165000000000000008,45.217290610559579989
0.166000000000000009,44.483884588355593337
0.167000000000000010,43.761073188505626774
0.168000000000000010,43.049241142482131295
0.169000000000000011,42.348598470511788605
0.170000000000000012,41.659139046245059035
0.171000000000000013,40.980636309441557330
0.172000000000000014,40.312666227779843098
0.173000000000000015,39.654647804589856719
0.174000000000000016,39.005892594453662525
0.175000000000000017,38.365656323343429790
0.176000000000000018,37.733187472972105070
0.177000000000000018,37.107769363574639954
0.178000000000000019,36.488753731854174589
0.179000000000000020,35.875584994251326520
0.180000000000000021,35.267815297926382812
0.181000000000000022,34.665111109158011971
0.182000000000000023,34.067252503620565562
0.183000000000000024,33.474126544944340367
0.184000000000000025,32.885716208312530284
0.185000000000000026,32.302086263588762449
0.186000000000000026,31.723367412205021765
0.187000000000000027,31.149739802987408410
0.188000000000000028,30.581416857843699120
0.189000000000000029,30.018630136985070322
0.190000000000000030,29.461615778461627713
0.191000000000000031,28.910602867442168673
0.192000000000000032,28.365803932604300996
0.193000000000000033,27.827407633211965532
0.194000000000000034,27.295573591836141958
0.195000000000000034,26.770429243568695910
0.196000000000000035,26.252068511276842600
0.197000000000000036,25.740552075555722666
0.198000000000000037,25.235908984803415933
0.199000000000000038,24.738139342378097751
0.200000000000000039,24.247217811255843856
0.201000000000000040,23.763097689305801907
0.202000000000000041,23.285715327797596785
0.203000000000000042,22.814994689900522928
0.204000000000000042,22.350851872877285587
0.205000000000000043,21.893199445880405563
0.206000000000000044,21.441950483479441658
0.207000000000000045,20.997022202311121930
0.208000000000000046,20.558339133823714917
0.209000000000000047,20.125835789467735992
0.210000000000000048,19.699458795536294531
0.211000000000000049,19.279168493003432161
0.212000000000000050,18.864940013091608506
0.213000000000000050,18.456763851967572521
0.214000000000000051,18.054645978035665621
0.215000000000000052,17.658607512945337703
0.216000000000000053,17.268684032865628808
0.217000000000000054,16.884924540037282270
0.218000000000000055,16.507390156338956899
0.219000000000000056,16.136152590842677057
0.220000000000000057,15.771292432325390465
0.221000000000000058,15.412897315677941634
0.222000000000000058,15.061060008320263037
0.223000000000000059,14.715876459289091827
0.224000000000000060,14.377443849785114693
0.225000000000000061,14.045858679805098390
0.226000000000000062,13.721214921174702539
0.227000000000000063,13.403602262953896229
0.228000000000000064,13.093104470904339820
0.229000000000000065,12.789797878563472722
0.230000000000000066,12.493750023527388393
0.231000000000000066,12.205018438847979212
0.232000000000000067,11.923649606036565984
0.233000000000000068,11.649678073056778160
0.234000000000000069,11.383125737898811991
0.235000000000000070,11.124001295859020644
0.236000000000000071,10.872299846501901399
0.237000000000000072,10.628002654447630704
0.238000000000000073,10.391077056595168671
0.239000000000000073,10.161476507143756720
0.240000000000000074,9.939140750793981738
0.241000000000000075,9.723996113775857708
0.242000000000000076,9.515955901842136910
0.243000000000000077,9.314920894059504519
0.244000000000000078,9.120779921106324295
0.245000000000000079,8.933410516821325587
0.246000000000000080,8.752679631922458015
0.247000000000000081,8.578444399108482443
0.248000000000000081,8.410552939149315677
0.249000000000000082,8.248845198046533156
0.250000000000000111,8.093153805886426966
0.251000000000000112,7.943304948599622328
0.252000000000000113,7.799119244469437717
0.253000000000000114,7.660412617884517772
0.254000000000000115,7.526997163497478383
0.255000000000000115,7.398681994622144487
0.256000000000000116,7.275274070367980350
0.257000000000000117,7.156578996665045267
0.258000000000000118,7.042401796969850025
0.259000000000000119,6.932547649056722605
0.260000000000000120,6.826822584886871326
0.261000000000000121,6.725034151104855695
0.262000000000000122,6.626992028237234322
0.263000000000000123,6.532508607158912461
0.264000000000000123,6.441399521848138576
0.265000000000000124,6.353484137870641035
0.266000000000000125,6.268585996416613071
0.267000000000000126,6.186533214062025721
0.268000000000000127,6.107158838737982265
0.269000000000000128,6.030301162670309800
0.270000000000000129,5.955803993296583165
0.271000000000000130,5.883516883381543217
0.272000000000000131,5.813295321735163945
0.273000000000000131,5.745000886092777925
0.274000000000000132,5.678501359844774221
0.275000000000000133,5.613670814406724219
0.276000000000000134,5.550389659100831707
0.277000000000000135,5.488544660478384074
0.278000000000000136,5.428028933051937344
0.279000000000000137,5.368741903427328488
0.280000000000000138,5.310589249830791836
0.281000000000000139,5.253482819017174066
0.282000000000000139,5.197340522523058226
0.283000000000000140,5.142086214195119354
0.284000000000000141,5.087649550880598781
0.285000000000000142,5.033965838114665914
0.286000000000000143,4.980975862580194757
0.287000000000000144,4.928625713049997081
0.288000000000000145,4.876866591450984778
0.289000000000000146,4.825654615615428966
0.290000000000000147,4.774950615206703830
0.291000000000000147,4.724719922227307300
0.292000000000000148,4.674932157435558011
0.293000000000000149,4.625561013915506337
0.294000000000000150,4.576584038962419498
0.295000000000000151,4.527982415364524726
0.296000000000000152,4.479740743080969700
0.297000000000000153,4.431846822236538586
0.298000000000000154,4.384291438276053832
0.299000000000000155,4.337068150045729098
0.300000000000000155,4.290173081495511020
0.301000000000000156,4.243604717625757416
0.302000000000000157,4.197363705233549958
0.303000000000000158,4.151452658948963759
0.304000000000000159,4.105875972989435851
0.305000000000000160,4.060639639001439427
0.306000000000000161,4.015751070302820303
0.307000000000000162,3.971218932786322764
0.308000000000000163,3.927052982695447447
0.309000000000000163,3.883263911437237592
0.310000000000000164,3.839863197553354812
0.311000000000000165,3.796862965930521305
0.312000000000000166,3.754275854294168990
0.313000000000000167,3.712114886994766660
0.314000000000000168,3.670393356064757917
0.315000000000000169,3.629124709495322954
0.316000000000000170,3.588322446655890730
0.317000000000000171,3.548000020755810002
0.318000000000000171,3.508170748226320690
0.319000000000000172,3.468847724882028416
0.320000000000000173,3.430043748704370010
0.321000000000000174,3.391771249074952088
0.322000000000000175,3.354042222273842633
0.323000000000000176,3.316868173047148982
0.324000000000000177,3.280260062039004332
0.325000000000000178,3.244228258875672566
0.326000000000000179,3.208782500683350580
0.327000000000000179,3.173931855816825909
0.328000000000000180,3.139684692572727087
0.329000000000000181,3.106048652659037401
0.330000000000000182,3.073030629191633611
0.331000000000000183,3.040636748988524207
0.332000000000000184,3.008872358933485369
0.333000000000000185,2.977742016182579388
0.334000000000000186,2.947249481989512088
0.335000000000000187,2.917397718929102268
0.336000000000000187,2.888188891301861183
0.337000000000000188,2.859624368507165393
0.338000000000000189,2.831704731177212331
0.339000000000000190,2.804429779869292538
0.340000000000000191,2.777798546119492507
0.341000000000000192,2.751809305666808037
0.342000000000000193,2.726459593662875047
0.343000000000000194,2.701746221688760663
0.344000000000000195,2.677665296406976925
0.345000000000000195,2.654212239683265917
0.346000000000000196,2.631381810019663980
0.347000000000000197,2.609168125146976713
0.348000000000000198,2.587564685631651873
0.349000000000000199,2.566564399358842952
0.350000000000000200,2.546159606760135308
0.351000000000000201,2.526342106661199960
0.352000000000000202,2.507103182631197580
0.353000000000000203,2.488433629722287765
0.354000000000000203,2.470323781494022430
0.355000000000000204,2.452763537223705548
0.356000000000000205,2.435742389209901493
0.357000000000000206,2.419249450082280539
0.358000000000000207,2.403273480036886234
0.359000000000000208,2.387802913921483139
0.360000000000000209,2.372825888101171010
0.361000000000000210,2.358330267039834283
0.362000000000000210,2.344303669537966872
0.363000000000000211,2.330733494572535314
0.364000000000000212,2.317606946689134695
0.365000000000000213,2.304911060901359665
0.366000000000000214,2.292632727056629793
0.367000000000000215,2.280758713631918955
0.368000000000000216,2.269275690926760625
0.369000000000000217,2.258170253624822266
0.370000000000000218,2.247428942698822318
0.371000000000000218,2.237038266637110695
0.372000000000000219,2.226984721973391590
0.373000000000000220,2.217254813104224009
0.374000000000000221,2.207835071381769598
0.375000000000000222,2.198712073472081308
0.376000000000000223,2.189872458971662272
0.377000000000000224,2.181302947277593773
0.378000000000000225,2.172990353708662781
0.379000000000000226,2.164921604877100059
0.380000000000000226,2.157083753312449836
0.381000000000000227,2.149463991340987423
0.382000000000000228,2.142049664225679884
0.383000000000000229,2.134828282573354663
0.384000000000000230,2.127787534017123505
0.385000000000000231,2.120915294183368438
0.386000000000000232,2.114199636953927985
0.387000000000000233,2.107628844035069005
0.388000000000000234,2.101191413845932665
0.389000000000000234,2.094876069739926461
0.390000000000000235,2.088671767573433424
0.391000000000000236,2.082567702636796803
0.392000000000000237,2.076553315963255208
0.393000000000000238,2.070618300031983328
0.394000000000000239,2.064752603881858661
0.395000000000000240,2.058946437652976247
0.396000000000000241,2.053190276573247264
0.397000000000000242,2.047474864407679895
0.398000000000000242,2.041791216388099350
0.399000000000000243,2.036130621641272231
0.400000000000000244,2.030484645133442179
0.401000000000000245,2.024845129149281497
0.402000000000000246,2.019204194323391821
0.403000000000000247,2.013554240242273696
0.404000000000000248,2.007887945634706739
0.405000000000000249,2.002198268168334572
0.406000000000000250,1.996478443870054686
0.407000000000000250,1.990721986187677484
0.408000000000000251,1.984922684710059171
0.409000000000000252,1.979074603562698709
0.410000000000000253,1.973172079495516318
0.411000000000000254,1.967209719679237967
0.412000000000000255,1.961182399226525819
0.413000000000000256,1.955085258453639341
0.414000000000000257,1.948913699898136231
0.415000000000000258,1.942663385107681107
0.416000000000000258,1.936330231214794084
0.417000000000000259,1.929910407311867804
0.418000000000000260,1.923400330640522515
0.419000000000000261,1.916796662608898361
0.420000000000000262,1.910096304650157562
0.421000000000000263,1.903296393935025366
0.422000000000000264,1.896394298950837776
0.423000000000000265,1.889387614959174400
0.424000000000000266,1.882274159343682030
0.425000000000000266,1.875051966859427210
0.426000000000000267,1.867719284794568724
0.427000000000000268,1.860274568054882893
0.428000000000000269,1.852716474181180129
0.429000000000000270,1.845043858309307172
0.430000000000000271,1.837255768082065810
0.431000000000000272,1.829351438521923612
0.432000000000000273,1.821330286873116266
0.433000000000000274,1.813191907421269011
0.434000000000000274,1.804936066298382213
0.435000000000000275,1.796562696280631144
0.436000000000000276,1.788071891586056505
0.437000000000000277,1.779463902678942944
0.438000000000000278,1.770739131087276430
0.439000000000000279,1.761898124239385410
0.440000000000000280,1.752941570325520670
0.441000000000000281,1.743870293189867082
0.442000000000000282,1.734685247258062279
0.443000000000000282,1.725387512505163645
0.444000000000000283,1.715978289468541362
0.445000000000000284,1.706458894310019403
0.446000000000000285,1.696830753931273916
0.447000000000000286,1.687095401146175622
0.448000000000000287,1.677254469913631585
0.449000000000000288,1.667309690634082298
0.450000000000000289,1.657262885512702955
0.451000000000000290,1.647115963992034526
0.452000000000000290,1.636870918256581264
0.453000000000000291,1.626529818811706107
0.454000000000000292,1.616094810138909876
0.455000000000000293,1.605568106429416941
0.456000000000000294,1.594951987397772442
0.457000000000000295,1.584248794176980280
0.458000000000000296,1.573460925296526369
0.459000000000000297,1.562590832744481517
0.460000000000000298,1.551641018114667814
0.461000000000000298,1.540614028839781380
0.462000000000000299,1.529512454511152253
0.463000000000000300,1.518338923285723174
0.464000000000000301,1.507096098380662275
0.465000000000000302,1.495786674655925186
0.466000000000000303,1.484413375284925118
0.467000000000000304,1.472978948513380182
0.468000000000000305,1.461486164506275776
0.469000000000000306,1.449937812282794836
0.470000000000000306,1.438336696738940379
0.471000000000000307,1.426685635757508175
0.472000000000000308,1.414987457404968119
0.473000000000000309,1.403244997214711853
0.474000000000000310,1.391461095556085548
0.475000000000000311,1.379638595088491737
0.476000000000000312,1.367780338299861231
0.477000000000000313,1.355889165128615570
0.478000000000000314,1.343967910668313559
0.479000000000000314,1.332019402953990683
0.480000000000000315,1.320046460829249257
0.481000000000000316,1.308051891893038388
0.482000000000000317,1.296038490525071252
0.483000000000000318,1.284009035988735947
0.484000000000000319,1.271966290610368366
0.485000000000000320,1.259912998033683396
0.486000000000000321,1.247851881548139863
0.487000000000000322,1.235785642490007996
0.488000000000000322,1.223716958714850422
0.489000000000000323,1.211648483140128629
0.490000000000000324,1.199582842356612833
0.491000000000000325,1.187522635307276975
0.492000000000000326,1.175470432032316603
0.493000000000000327,1.163428772478948048
0.494000000000000328,1.151400165374604434
0.495000000000000329,1.139387087162167855
0.496000000000000330,1.127391980995854137
0.497000000000000330,1.115417255796347984
0.498000000000000331,1.103465285363835147
0.499000000000000332,1.091538407547522072
0.500000000000000333,1.079638923470249257
0.501000000000000334,1.067769096806858720
0.502000000000000335,1.055931153114877841
0.503000000000000336,1.044127279216215509
0.504000000000000337,1.032359622628442830
0.505000000000000338,1.020630291044354543
0.506000000000000338,1.008941351858434032
0.507000000000000339,0.997294831738895882
0.508000000000000340,0.985692716243990907
0.509000000000000341,0.974136949481245629
0.510000000000000342,0.962629433808361745
0.511000000000000343,0.951172029574464006
0.512000000000000344,0.939766554900456463
0.513000000000000345,0.928414785497224115
0.514000000000000346,0.917118454520425841
0.515000000000000346,0.905879252460694340
0.516000000000000347,0.894698827068019398
0.517000000000000348,0.883578783309127980
0.518000000000000349,0.872520683356707627
0.519000000000000350,0.861526046609323637
0.520000000000000351,0.850596349740900370
0.521000000000000352,0.839733026778652691
0.522000000000000353,0.828937469208401057
0.523000000000000353,0.818211026106162365
0.524000000000000354,0.807555004295020695
0.525000000000000355,0.796970668526195025
0.526000000000000356,0.786459241683343024
0.527000000000000357,0.776021905009080859
0.528000000000000358,0.765659798352764542
0.529000000000000359,0.755374020438592586
0.530000000000000360,0.745165629153094478
0.531000000000000361,0.735035641851103372
0.532000000000000361,0.724985035679328149
0.533000000000000362,0.715014747916658089
0.534000000000000363,0.705125676330371931
0.535000000000000364,0.695318679547394902
0.536000000000000365,0.685594577439841868
0.537000000000000366,0.675954151524025715
0.538000000000000367,0.666398145372204209
0.539000000000000368,0.656927265036280184
0.540000000000000369,0.647542179482773816
0.541000000000000369,0.638243521038326711
0.542000000000000370,0.629031885845084737
0.543000000000000371,0.619907834325265861
0.544000000000000372,0.610871891654281240
0.545000000000000373,0.601924548241779211
0.546000000000000374,0.593066260219995645
0.547000000000000375,0.584297449938827373
0.548000000000000376,0.575618506467044488
0.549000000000000377,0.567029786099096489
0.550000000000000377,0.558531612866955740
0.551000000000000378,0.550124279056495857
0.552000000000000379,0.541808045727884657
0.553000000000000380,0.533583143239505064
0.554000000000000381,0.525449771774941454
0.555000000000000382,0.517408101872552595
0.556000000000000383,0.509458274957218293
0.557000000000000384,0.501600403873804779
0.558000000000000385,0.493834573421962297
0.559000000000000385,0.486160840891841417
0.560000000000000386,0.478579236600355895
0.561000000000000387,0.471089764427619073
0.562000000000000388,0.463692402353208966
0.563000000000000389,0.456387102991905436
0.564000000000000390,0.449173794128592707
0.565000000000000391,0.442052379251997973
0.566000000000000392,0.435022738086976557
0.567000000000000393,0.428084727125039088
0.568000000000000393,0.421238180152871955
0.569000000000000394,0.414482908778550319
0.570000000000000395,0.407818702955224821
0.571000000000000396,0.401245331502022407
0.572000000000000397,0.394762542621923729
0.573000000000000398,0.388370064416425798
0.574000000000000399,0.382067605396743892
0.575000000000000400,0.375854854991387211
0.576000000000000401,0.369731484049898751
0.577000000000000401,0.363697145342580908
0.578000000000000402,0.357751474056047791
0.579000000000000403,0.351894088284439022
0.580000000000000404,0.346124589516130121
0.581000000000000405,0.340442563115823049
0.582000000000000406,0.334847578801853452
0.583000000000000407,0.329339191118608210
0.584000000000000408,0.323916939903924395
0.585000000000000409,0.318580350751364594
0.586000000000000409,0.313328935467263592
0.587000000000000410,0.308162192522437817
0.588000000000000411,0.303079607498502157
0.589000000000000412,0.298080653528660366
0.590000000000000413,0.293164791732947960
0.591000000000000414,0.288331471647817528
0.592000000000000415,0.283580131650022049
0.593000000000000416,0.278910199374735712
0.594000000000000417,0.274321092127861266
0.595000000000000417,0.269812217292470902
0.596000000000000418,0.265382972729355182
0.597000000000000419,0.261032747171625390
0.598000000000000420,0.256760920613360755
0.599000000000000421,0.252566864692250870
0.600000000000000422,0.248449943066232304
0.601000000000000423,0.244409511784103251
0.602000000000000424,0.240444919650081523
0.603000000000000425,0.236555508582318635
0.604000000000000425,0.232740613965371906
0.605000000000000426,0.228999564996612642
0.606000000000000427,0.225331685026579548
0.607000000000000428,0.221736291893318171
0.608000000000000429,0.218212698250646181
0.609000000000000430,0.214760211890448055
0.610000000000000431,0.211378136058930993
0.611000000000000432,0.208065769766924369
0.612000000000000433,0.204822408094217590
0.613000000000000433,0.201647342487953962
0.614000000000000434,0.198539861055138628
0.615000000000000435,0.195499248849265006
0.616000000000000436,0.192524788151104825
0.617000000000000437,0.189615758743686469
0.618000000000000438,0.186771438181516591
0.619000000000000439,0.183991102054072625
0.620000000000000440,0.181274024243604615
0.621000000000000441,0.178619477177299368
