# TricalciumSilicate001_OXOLANE-AC
# h[nm],U(h)[kJ/mol]
0.149999999999999994,151.121014711688786747
0.150999999999999995,149.001402623473495623
0.151999999999999996,146.571202925441440357
0.152999999999999997,144.080563443442429161
0.153999999999999998,141.629931522136018884
0.154999999999999999,139.246081112085477116
0.156000000000000000,136.924329421297613862
0.157000000000000001,134.650443289699126126
0.158000000000000002,132.410794737705174384
0.159000000000000002,130.196070177110499344
0.160000000000000003,128.001724746042611969
0.161000000000000004,125.827026125623547159
0.162000000000000005,123.673692800362076127
0.163000000000000006,121.544624125880204701
0.164000000000000007,119.442925039544135757
0.165000000000000008,117.371267544909045455
0.166000000000000009,115.331552028401489451
0.167000000000000010,113.324800216797285657
0.168000000000000010,111.351206707963797271
0.169000000000000011,109.410284265867971953
0.170000000000000012,107.501051595244078385
0.171000000000000013,105.622226679209504141
0.172000000000000014,103.772401709415731830
0.173000000000000015,101.950186203151048403
0.174000000000000016,100.154312876977797941
0.175000000000000017,98.383706423736910551
0.176000000000000018,96.637518893718748814
0.177000000000000018,94.915137340648129793
0.178000000000000019,93.216170171364893804
0.179000000000000020,91.540418595317845529
0.180000000000000021,89.887839001663991212
0.181000000000000022,88.258501227369379194
0.182000000000000023,86.652546688811895592
0.183000000000000024,85.070149350570403612
0.184000000000000025,83.511481575725497351
0.185000000000000026,81.976686087560125316
0.186000000000000026,80.465854594804937960
0.187000000000000027,78.979013096514051995
0.188000000000000028,77.516113482015214231
0.189000000000000029,76.077030762971944000
0.190000000000000030,74.661565101516629284
0.191000000000000031,73.269447712384518923
0.192000000000000032,71.900349699933073566
0.193000000000000033,70.553892926042081513
0.194000000000000034,69.229662077204537241
0.195000000000000034,67.927217195795861926
0.196000000000000035,66.646106050948944244
0.197000000000000036,65.385875840173156348
0.198000000000000037,64.146083827316829229
0.199000000000000038,62.926306630883573234
0.200000000000000039,61.726147975769457332
0.201000000000000040,60.545244809108723416
0.202000000000000041,59.383271756024008425
0.203000000000000042,58.239943953376702268
0.204000000000000042,57.115018349395668906
0.205000000000000043,56.008293595052137448
0.206000000000000044,54.919608680247321786
0.207000000000000045,53.848840485482426743
0.208000000000000046,52.795900428949629202
0.209000000000000047,51.760730391216689839
0.210000000000000048,50.743298096124334506
0.211000000000000049,49.743592118365356214
0.212000000000000050,48.761616676546246651
0.213000000000000050,47.797386356330804347
0.214000000000000051,46.850920892378205451
0.215000000000000052,45.922240120956573151
0.216000000000000053,45.011359197954249112
0.217000000000000054,44.118284160031898011
0.218000000000000055,43.243007890264529181
0.219000000000000056,42.385506534127571854
0.220000000000000057,41.545736397310804477
0.221000000000000058,40.723631343764637336
0.222000000000000058,39.919100700680637317
0.223000000000000059,39.132027666840109248
0.224000000000000060,38.362268211922327055
0.225000000000000061,37.609650446925407152
0.226000000000000062,36.873974439753077093
0.227000000000000063,36.155012445186528680
0.228000000000000064,35.452509514796801682
0.229000000000000065,34.766184449758370079
0.230000000000000066,34.095731057892976423
0.231000000000000066,33.440819675492789997
0.232000000000000067,32.801098914437268661
0.233000000000000068,32.176197595722072720
0.234000000000000069,31.565726831661002905
0.235000000000000070,30.969282220607937006
0.236000000000000071,30.386446119988455905
0.237000000000000072,29.816789965647252814
0.238000000000000073,29.259876607937549409
0.239000000000000073,28.715262637536095980
0.240000000000000074,28.182500676602700196
0.241000000000000075,27.661141613570116249
0.242000000000000076,27.150736762502539534
0.243000000000000077,26.650839930562728597
0.244000000000000078,26.161009379650614903
0.245000000000000079,25.680809670692621438
0.246000000000000080,25.209813381354667428
0.247000000000000081,24.747602690104674394
0.248000000000000081,24.293770821554726780
0.249000000000000082,23.847923349860387532
0.250000000000000111,23.409679358641032110
0.251000000000000112,22.978672457410642238
0.252000000000000113,22.554551655872540294
0.253000000000000114,22.136982098640501704
0.254000000000000115,21.725645664003160107
0.255000000000000115,21.320241431259226772
0.256000000000000116,20.920486021920972064
0.257000000000000117,20.526113820723480785
0.258000000000000118,20.136877082894763191
0.259000000000000119,19.752545934544979644
0.260000000000000120,19.372908273331947981
0.261000000000000121,18.997769576763708699
0.262000000000000122,18.626952625614965342
0.263000000000000123,18.260297149973158781
0.264000000000000123,17.897659405398695043
0.265000000000000124,17.538911686591866612
0.266000000000000125,17.183941785813047431
0.267000000000000126,16.832652403111261208
0.268000000000000127,16.484960515184432950
0.269000000000000128,16.140796709431487699
0.270000000000000129,15.800104489465365276
0.271000000000000130,15.462839558044027655
0.272000000000000131,15.128969083048669830
0.273000000000000131,14.798470951798091022
0.274000000000000132,14.471333018641226786
0.275000000000000133,14.147552350418276745
0.276000000000000134,13.827134474029346478
0.277000000000000135,13.510092630000297476
0.278000000000000136,13.196447035590853858
0.279000000000000137,12.886224160652734128
0.280000000000000138,12.579456019117662535
0.281000000000000139,12.276179478676700896
0.282000000000000139,11.976435590907158257
0.283000000000000140,11.680268943809682725
0.284000000000000141,11.387727038439631855
0.285000000000000142,11.098859691051227827
0.286000000000000143,10.813718461923381042
0.287000000000000144,10.532356111800899257
0.288000000000000145,10.254826086664671436
0.289000000000000146,9.981182031340200211
0.290000000000000147,9.711477332263386941
0.291000000000000147,9.445764689548379778
0.292000000000000148,9.184095718340991255
0.293000000000000149,8.926520579295518232
0.294000000000000150,8.673087637879644873
0.295000000000000151,8.423843152092747033
0.296000000000000152,8.178830988075747044
0.297000000000000153,7.938092362996131968
0.298000000000000154,7.701665614507869684
0.299000000000000155,7.469585996013765161
0.300000000000000155,7.241885496895207552
0.301000000000000156,7.018592686821952142
0.302000000000000157,6.799732583210402304
0.303000000000000158,6.585326540864255840
0.304000000000000159,6.375392162803484197
0.305000000000000160,6.169943231267864370
0.306000000000000161,5.968989657867568965
0.307000000000000162,5.772537451846008416
0.308000000000000163,5.580588705418591644
0.309000000000000163,5.393141595154119727
0.310000000000000164,5.210190398373675258
0.311000000000000165,5.031725523553872037
0.312000000000000166,4.857733553737037191
0.313000000000000167,4.688197301970004283
0.314000000000000168,4.523095877815071830
0.315000000000000169,4.362404764001055923
0.316000000000000170,4.206095902308904400
0.317000000000000171,4.054137787814771521
0.318000000000000171,3.906495570643410353
0.319000000000000172,3.763131164415645546
0.320000000000000173,3.624003360606116164
0.321000000000000174,3.489067948060214697
0.322000000000000175,3.358277836952468842
0.323000000000000176,3.231583186502477112
0.324000000000000177,3.108931535798224566
0.325000000000000178,2.990267937110637764
0.326000000000000179,2.875535091116510511
0.327000000000000179,2.764673483480701854
0.328000000000000180,2.657621522281115922
0.329000000000000181,2.554315675792341978
0.330000000000000182,2.454690610175799925
0.331000000000000183,2.358679326654855579
0.332000000000000184,2.266213297783937541
0.333000000000000185,2.177222602449927713
0.334000000000000186,2.091636059272480530
0.335000000000000187,2.009381358097662940
0.336000000000000187,1.930385189305615201
0.337000000000000188,1.854573370678870958
0.338000000000000189,1.781870971602086184
0.339000000000000190,1.712202434387738226
0.340000000000000191,1.645491692544843954
0.341000000000000192,1.581662285828997927
0.342000000000000193,1.520637471932640761
0.343000000000000194,1.462340334693636112
0.344000000000000195,1.406693888718980823
0.345000000000000195,1.353621180337263308
0.346000000000000196,1.303045384810423535
0.347000000000000197,1.254889899750447402
0.348000000000000198,1.209078434701133187
0.349000000000000199,1.165535096858788533
0.350000000000000200,1.124184472918079436
0.351000000000000201,1.084951707041314828
0.352000000000000202,1.047762574960249493
0.353000000000000203,1.012543554229585752
0.354000000000000203,0.979221890660795458
0.355000000000000204,0.947725660973491535
0.356000000000000205,0.917983831709339837
0.357000000000000206,0.889926314460712575
0.358000000000000207,0.863484017472977761
0.359000000000000208,0.838588893684987569
0.360000000000000209,0.815173985277642954
0.361000000000000210,0.793173464805354222
0.362000000000000210,0.772522672989066295
0.363000000000000211,0.753158153253446150
0.364000000000000212,0.735017683093821761
0.365000000000000213,0.718040302361300120
0.366000000000000214,0.702166338556682423
0.367000000000000215,0.687337429225777230
0.368000000000000216,0.673496541550009153
0.369000000000000217,0.660587989227664596
0.370000000000000218,0.648557446741564236
0.371000000000000218,0.637351961109797527
0.372000000000000219,0.626919961216066080
0.373000000000000220,0.617211264816284855
0.374000000000000221,0.608177083317721467
0.375000000000000222,0.599770024426554582
0.376000000000000223,0.591944092758635021
0.377000000000000224,0.584654688507750597
0.378000000000000225,0.577858604264219422
0.379000000000000226,0.571514020075606810
0.380000000000000226,0.565580496839684477
0.381000000000000227,0.560018968118574101
0.382000000000000228,0.554791730460933108
0.383000000000000229,0.549862432317625993
0.384000000000000230,0.545196061634308671
0.385000000000000231,0.540758932202363818
0.386000000000000232,0.536518668847832059
0.387000000000000233,0.532444191535666134
0.388000000000000234,0.528505698464799112
0.389000000000000234,0.524674648227101637
0.390000000000000235,0.520923741101367077
0.391000000000000236,0.517226899551076591
0.392000000000000237,0.513559247992637524
0.393000000000000238,0.509897091898390720
0.394000000000000239,0.506217896296679126
0.395000000000000240,0.502500263728795860
0.396000000000000241,0.498723911720602930
0.397000000000000242,0.494869649824372704
0.398000000000000242,0.490919356284080621
0.399000000000000243,0.486855954375451816
0.400000000000000244,0.482663388469746990
0.401000000000000245,0.478326599868126034
0.402000000000000246,0.473831502451641740
0.403000000000000247,0.469164958189463743
0.404000000000000248,0.464314752546253318
0.405000000000000249,0.459269569827492508
0.406000000000000250,0.454018968499676656
0.407000000000000250,0.448553356520376201
0.408000000000000251,0.442863966711399493
0.409000000000000252,0.436942832206389298
0.410000000000000253,0.430782762002526187
0.411000000000000254,0.424377316644286906
0.412000000000000255,0.417720784065532424
0.413000000000000256,0.410808155614573234
0.414000000000000257,0.403635102285427094
0.415000000000000258,0.396197951176745111
0.416000000000000258,0.388493662198708567
0.417000000000000259,0.380519805046502846
0.418000000000000260,0.372274536457843641
0.419000000000000261,0.363756577770547207
0.420000000000000262,0.354965192794989171
0.421000000000000263,0.345900166014941113
0.422000000000000264,0.336561781129284920
0.423000000000000265,0.326950799945800674
0.424000000000000266,0.317068441637159582
0.425000000000000266,0.306916362368399309
0.426000000000000267,0.296496635303887923
0.427000000000000268,0.285811731001030300
0.428000000000000269,0.274864498197007090
0.429000000000000270,0.263658144993886956
0.430000000000000271,0.252196220446787245
0.431000000000000272,0.240482596558753980
0.432000000000000273,0.228521450685504307
0.433000000000000274,0.216317248352273422
0.434000000000000274,0.203874726484424507
0.435000000000000275,0.191198877052849492
0.436000000000000276,0.178294931134481083
0.437000000000000277,0.165168343387792793
0.438000000000000278,0.151824776942511480
0.439000000000000279,0.138270088702285715
0.440000000000000280,0.124510315058613139
0.441000000000000281,0.110551658013844992
0.442000000000000282,0.096400471710575059
0.443000000000000282,0.082063249364559984
0.444000000000000283,0.067546610597612591
0.445000000000000284,0.052857289166887464
0.446000000000000285,0.038002121086469200
0.447000000000000286,0.022988033136834750
0.448000000000000287,0.007822031757733194
0.449000000000000288,-0.007488807680561716
0.450000000000000289,-0.022937351232612303
0.451000000000000290,-0.038516416365159276
0.452000000000000290,-0.054218781581993281
0.453000000000000291,-0.070037195691960624
0.454000000000000292,-0.085964386726051126
0.455000000000000293,-0.101993070509485764
0.456000000000000294,-0.118115958894957448
0.457000000000000295,-0.134325767663252826
0.458000000000000296,-0.150615224097560035
0.459000000000000297,-0.166977074237878970
0.460000000000000298,-0.183404089822033378
0.461000000000000298,-0.199889074919759102
0.462000000000000299,-0.216424872266526958
0.463000000000000300,-0.233004369303617676
0.464000000000000301,-0.249620503931181931
0.465000000000000302,-0.266266269980847903
0.466000000000000303,-0.282934722414581841
0.467000000000000304,-0.299618982256439570
0.468000000000000305,-0.316312241263815519
0.469000000000000306,-0.333007766344817768
0.470000000000000306,-0.349698903728400790
0.471000000000000307,-0.366379082893688146
0.472000000000000308,-0.383041820265111743
0.473000000000000309,-0.399680722679759459
0.474000000000000310,-0.416289490633330928
0.475000000000000311,-0.432861921311099629
0.476000000000000312,-0.449391911410077227
0.477000000000000313,-0.465873459758699038
0.478000000000000314,-0.482300669740048427
0.479000000000000314,-0.498667751524808966
0.480000000000000315,-0.514969024119810159
0.481000000000000316,-0.531198917238173807
0.482000000000000317,-0.547351972996782399
0.483000000000000318,-0.563422847446870434
0.484000000000000319,-0.579406311943326258
0.485000000000000320,-0.595297254358263195
0.486000000000000321,-0.611090680144317000
0.487000000000000322,-0.626781713253023121
0.488000000000000322,-0.642365596913477499
0.489000000000000323,-0.657837694276522611
0.490000000000000324,-0.673193488929445638
0.491000000000000325,-0.688428585286169348
0.492000000000000326,-0.703538708857783246
0.493000000000000327,-0.718519706408175751
0.494000000000000328,-0.733367545999405124
0.495000000000000329,-0.748078316931376053
0.496000000000000330,-0.762648229580213277
0.497000000000000330,-0.777073615139798113
0.498000000000000331,-0.791350925270521977
0.499000000000000332,-0.805476731659580780
0.500000000000000333,-0.819447725496758927
0.501000000000000334,-0.833260716869609452
0.502000000000000335,-0.846912634081971705
0.503000000000000336,-0.860400522899458786
0.504000000000000337,-0.873721545725644533
0.505000000000000338,-0.886872980712422376
0.506000000000000338,-0.899852220808034731
0.507000000000000339,-0.912656772746112233
0.508000000000000340,-0.925284255978942483
0.509000000000000341,-0.937732401558225015
0.510000000000000342,-0.949999050966262915
0.511000000000000343,-0.962082154900704700
0.512000000000000344,-0.973979772015608036
0.513000000000000345,-0.985690067621709298
0.514000000000000346,-0.997211312348633583
0.515000000000000346,-1.008541880771578914
0.516000000000000347,-1.019680250005125410
0.517000000000000348,-1.030624998266608472
0.518000000000000349,-1.041374803411404981
0.519000000000000350,-1.051928441442500972
0.520000000000000351,-1.062284784996502918
0.521000000000000352,-1.072442801808337176
0.522000000000000353,-1.082401553156592700
0.523000000000000353,-1.092160192291640408
0.524000000000000354,-1.101717962848360877
0.525000000000000355,-1.111074197245415673
0.526000000000000356,-1.120228315072786307
0.527000000000000357,-1.129179821469384670
0.528000000000000358,-1.137928305492326375
0.529000000000000359,-1.146473438479517659
0.530000000000000360,-1.154814972407029128
0.531000000000000361,-1.162952738242799322
0.532000000000000361,-1.170886644298023915
0.533000000000000362,-1.178616674577608991
0.534000000000000363,-1.186142887130972934
0.535000000000000364,-1.193465412404467241
0.536000000000000365,-1.200584451596550251
0.537000000000000366,-1.207500275016915925
0.538000000000000367,-1.214213220450569342
0.539000000000000368,-1.220723691528015076
0.540000000000000369,-1.227032156102384253
0.541000000000000369,-1.233139144634592732
0.542000000000000370,-1.239045248587275383
0.543000000000000371,-1.244751118828480330
0.544000000000000372,-1.250257464045818612
0.545000000000000373,-1.255565049171900593
0.546000000000000374,-1.260674693821744130
0.547000000000000375,-1.265587270742834836
0.548000000000000376,-1.270303704278522128
0.549000000000000377,-1.274824968845297501
0.550000000000000377,-1.279152087424577866
0.551000000000000378,-1.283286130069478670
0.552000000000000379,-1.287228212427141028
0.553000000000000380,-1.290979494277013639
0.554000000000000381,-1.294541178085557576
0.555000000000000382,-1.297914507577826893
0.556000000000000383,-1.301100766326173330
0.557000000000000384,-1.304101276356601335
0.558000000000000385,-1.306917396772903306
0.559000000000000385,-1.309550522399038242
0.560000000000000386,-1.312002082439907458
0.561000000000000387,-1.314273539160824456
0.562000000000000388,-1.316366386585869241
0.563000000000000389,-1.318282149215376675
0.564000000000000390,-1.320022380762652547
0.565000000000000391,-1.321588662910145873
0.566000000000000392,-1.322982604085161329
0.567000000000000393,-1.324205838255268830
0.568000000000000393,-1.325260023743446869
0.569000000000000394,-1.326146842063087083
0.570000000000000395,-1.326867996772916003
0.571000000000000396,-1.327425212351811101
0.572000000000000397,-1.327820233093654823
0.573000000000000398,-1.328054822022112003
0.574000000000000399,-1.328130759825422169
0.575000000000000400,-1.328049843811134778
0.576000000000000401,-1.327813886880761407
0.577000000000000401,-1.327424716524359560
0.578000000000000402,-1.326884173834897540
0.579000000000000403,-1.326194112542388837
0.580000000000000404,-1.325356398067750741
0.581000000000000405,-1.324372906596192667
0.582000000000000406,-1.323245524170163945
0.583000000000000407,-1.321976145801629476
0.584000000000000408,-1.320566674603659063
0.585000000000000409,-1.319019020941134324
0.586000000000000409,-1.317335101600459746
0.587000000000000410,-1.315516838978174174
0.588000000000000411,-1.313566160288215379
0.589000000000000412,-1.311484996787825930
0.590000000000000413,-1.309275283021783975
0.591000000000000414,-1.306938956084899850
0.592000000000000415,-1.304477954902580228
0.593000000000000416,-1.301894219529232677
0.594000000000000417,-1.299189690464378266
0.595000000000000417,-1.296366307986309474
0.596000000000000418,-1.293426011502968098
0.597000000000000419,-1.290370738920042726
0.598000000000000420,-1.287202426025892521
0.599000000000000421,-1.283923005893239822
0.600000000000000422,-1.280534408297342663
0.601000000000000423,-1.277038559150451391
0.602000000000000424,-1.273437379952372384
0.603000000000000425,-1.269732787256898865
0.604000000000000425,-1.265926692153858779
0.605000000000000426,-1.262020999766635398
0.606000000000000427,-1.258017608764912199
0.607000000000000428,-1.253918410892332691
0.608000000000000429,-1.249725290509063891
0.609000000000000430,-1.245440124148764705
0.610000000000000431,-1.241064780090005204
0.611000000000000432,-1.236601117941708239
0.612000000000000433,-1.232050988242492817
0.613000000000000433,-1.227416232073688551
0.614000000000000434,-1.222698680685763151
0.615000000000000435,-1.217900155137944029
