# TricalciumSilicate001_FLUOROFORM-AC
# h[nm],U(h)[kJ/mol]
0.149999999999999994,83.102882029794074015
0.150999999999999995,82.213585941180653549
0.151999999999999996,81.179391364331507930
0.152999999999999997,80.086990394113811931
0.153999999999999998,78.978663255217071537
0.154999999999999999,77.873193867573533566
0.156000000000000000,76.777798823045912968
0.157000000000000001,75.694605574389328240
0.158000000000000002,74.623928826138424597
0.159000000000000002,73.565745647657507789
0.160000000000000003,72.520218320470362983
0.161000000000000004,71.487761631653839345
0.162000000000000005,70.468931110044053412
0.163000000000000006,69.464274850475902667
0.164000000000000007,68.474213229486721843
0.165000000000000008,67.498967393050335772
0.166000000000000009,66.538535333549305051
0.167000000000000010,65.592704885330633147
0.168000000000000010,64.661090481598336055
0.169000000000000011,63.743181586602815969
0.170000000000000012,62.838393295654348947
0.171000000000000013,61.946112524386329312
0.172000000000000014,61.065735889828900440
0.173000000000000015,60.196697559150734946
0.174000000000000016,59.338486942039239125
0.175000000000000017,58.490657168003714617
0.176000000000000018,57.652825906528747169
0.177000000000000018,56.824670356748399058
0.178000000000000019,56.005918251309196876
0.179000000000000020,55.196336570840763613
0.180000000000000021,54.395719419444311882
0.181000000000000022,53.603876220134928587
0.182000000000000023,52.820621089891815814
0.183000000000000024,52.045763972193313407
0.184000000000000025,51.279103856079004231
0.185000000000000026,50.520424202809714131
0.186000000000000026,49.769490536537759340
0.187000000000000027,49.026050032758348607
0.188000000000000028,48.289832853993743811
0.189000000000000029,47.560554931133950163
0.190000000000000030,46.837921865504085872
0.191000000000000031,46.121633625399191203
0.192000000000000032,45.411389726192119554
0.193000000000000033,44.706894610382924782
0.194000000000000034,44.007862978981037827
0.195000000000000034,43.314024864939625559
0.196000000000000035,42.625130280217362611
0.197000000000000036,41.940953308280235490
0.198000000000000037,41.261295551884046517
0.199000000000000038,40.585988880697058789
0.200000000000000039,39.914897454036513125
0.201000000000000040,39.247919020337356244
0.202000000000000041,38.584985516845264897
0.203000000000000042,37.926063010526149810
0.204000000000000042,37.271151034551152748
0.205000000000000043,36.620281384292944438
0.206000000000000044,35.973516442957674144
0.207000000000000045,35.330947110212640894
0.208000000000000046,34.692690407895412363
0.209000000000000047,34.058886835538494608
0.210000000000000048,33.429697545425234750
0.211000000000000049,32.805301402586252379
0.212000000000000050,32.185891989892347453
0.213000000000000050,31.571674612503407786
0.214000000000000051,30.962863349652003819
0.215000000000000052,30.359678195298403836
0.216000000000000053,29.762342322774561154
0.217000000000000054,29.171079502284008811
0.218000000000000055,28.586111694161694174
0.219000000000000056,28.007656835208898372
0.220000000000000057,27.435926830263476006
0.221000000000000058,26.871125756491039738
0.222000000000000058,26.313448283702989272
0.223000000000000059,25.763078310336226195
0.224000000000000060,25.220187811556680657
0.225000000000000061,24.684935893261023665
0.226000000000000062,24.157468043524055190
0.227000000000000063,23.637915571244953128
0.228000000000000064,23.126395220351170678
0.229000000000000065,22.623008946887786408
0.230000000000000066,22.127843845618588858
0.231000000000000066,21.640972212353741355
0.232000000000000067,21.162451728063906842
0.233000000000000068,20.692325750905318671
0.234000000000000069,20.230623702533016228
0.235000000000000070,19.777361535488218180
0.236000000000000071,19.332542268982123801
0.237000000000000072,18.896156581035679523
0.238000000000000073,18.468183445649604124
0.239000000000000073,18.048590804449862190
0.240000000000000074,17.637336263060301889
0.241000000000000075,17.234367803282715670
0.242000000000000076,16.839624502997896371
0.243000000000000077,16.453037256528688204
0.244000000000000078,16.074529489017027828
0.245000000000000079,15.704017859152809677
0.246000000000000080,15.341412945346954544
0.247000000000000081,14.986619911157470497
0.248000000000000081,14.639539146453717677
0.249000000000000082,14.300066881435762767
0.250000000000000111,13.968095771211860523
0.251000000000000112,13.643515449176465637
0.252000000000000113,13.326213047923147315
0.253000000000000114,13.016073686873431470
0.254000000000000115,12.712980926202131826
0.255000000000000115,12.416817186996663480
0.256000000000000116,12.127464137901418084
0.257000000000000117,11.844803048772025278
0.258000000000000118,11.568715112100271369
0.259000000000000119,11.299081733170101671
0.260000000000000120,11.035784790072137085
0.261000000000000121,10.778706864840273738
0.262000000000000122,10.527731447081764671
0.263000000000000123,10.282743111554760063
0.264000000000000123,10.043627671205904051
0.265000000000000124,9.810272307219133125
0.266000000000000125,9.582565677645991542
0.267000000000000126,9.360398006191072540
0.268000000000000127,9.143661152714454232
0.269000000000000128,8.932248666989275776
0.270000000000000129,8.726055827217916061
0.271000000000000130,8.524979664766160425
0.272000000000000131,8.328918976523743467
0.273000000000000131,8.137774326242002587
0.274000000000000132,7.951448036137058750
0.275000000000000133,7.769844169980940407
0.276000000000000134,7.592868508834213159
0.277000000000000135,7.420428520503539183
0.278000000000000136,7.252433323735893111
0.279000000000000137,7.088793648089884769
0.280000000000000138,6.929421790353576860
0.281000000000000139,6.774231568308074714
0.282000000000000139,6.623138272567707929
0.283000000000000140,6.476058617160954434
0.284000000000000141,6.332910689451841435
0.285000000000000142,6.193613899939646394
0.286000000000000143,6.058088932415363281
0.287000000000000144,5.926257694897308248
0.288000000000000145,5.798043271714416136
0.289000000000000146,5.673369877056012811
0.290000000000000147,5.552162810259077652
0.291000000000000147,5.434348413060389404
0.292000000000000148,5.319854028999545292
0.293000000000000149,5.208607965121275996
0.294000000000000150,5.100539456090285917
0.295000000000000151,4.995578630799978548
0.296000000000000152,4.893656481527246527
0.297000000000000153,4.794704835659079123
0.298000000000000154,4.698656329992921599
0.299000000000000155,4.605444387591498767
0.300000000000000155,4.515003197153808934
0.301000000000000156,4.427267694847494717
0.302000000000000157,4.342173548533107663
0.303000000000000158,4.259657144298453879
0.304000000000000159,4.179655575210373897
0.305000000000000160,4.102106632182582757
0.306000000000000161,4.026948796850805756
0.307000000000000162,3.954121236340632173
0.308000000000000163,3.883563799809183870
0.309000000000000163,3.815217016638471570
0.310000000000000164,3.749022096156253703
0.311000000000000165,3.684920928759360059
0.312000000000000166,3.622856088314237333
0.313000000000000167,3.562770835710403539
0.314000000000000168,3.504609123444015317
0.315000000000000169,3.448315601110896189
0.316000000000000170,3.393835621691223992
0.317000000000000171,3.341115248511356217
0.318000000000000171,3.290101262772002766
0.319000000000000172,3.240741171535999054
0.320000000000000173,3.192983216073332464
0.321000000000000174,3.146776380465839296
0.322000000000000175,3.102070400378575066
0.323000000000000176,3.058815771910101677
0.324000000000000177,3.016963760438818198
0.325000000000000178,2.976466409387753753
0.326000000000000179,2.937276548835280998
0.327000000000000179,2.899347803904465337
0.328000000000000180,2.862634602868912026
0.329000000000000181,2.827092184917888495
0.330000000000000182,2.792676607528734145
0.331000000000000183,2.759344753399184391
0.332000000000000184,2.727054336897202891
0.333000000000000185,2.695763909990448237
0.334000000000000186,2.665432867621972068
0.335000000000000187,2.636021452503102047
0.336000000000000187,2.607490759298555894
0.337000000000000188,2.579802738182916499
0.338000000000000189,2.552920197751233022
0.339000000000000190,2.526806807270235655
0.340000000000000191,2.501427098260078363
0.341000000000000192,2.476746465399687125
0.342000000000000193,2.452731166751891845
0.343000000000000194,2.429348323307340074
0.344000000000000195,2.406565917848988434
0.345000000000000195,2.384352793141219617
0.346000000000000196,2.362678649450231649
0.347000000000000197,2.341514041404274771
0.348000000000000198,2.320830374204363000
0.349000000000000199,2.300599899197909970
0.350000000000000200,2.280795708829295609
0.351000000000000201,2.261391730982949877
0.352000000000000202,2.242362722735824043
0.353000000000000203,2.223684263537285766
0.354000000000000203,2.205332747835587970
0.355000000000000204,2.187285377170941736
0.356000000000000205,2.169520151756038295
0.357000000000000206,2.152015861565454102
0.358000000000000207,2.134752076956123457
0.359000000000000208,2.117709138841304739
0.360000000000000209,2.100868148440915295
0.361000000000000210,2.084210956631433742
0.362000000000000210,2.067720152918563592
0.363000000000000211,2.051379054056112761
0.364000000000000212,2.035171692334435178
0.365000000000000213,2.019082803561742523
0.366000000000000214,2.003097814761489737
0.367000000000000215,1.987202831608815501
0.368000000000000216,1.971384625628734399
0.369000000000000217,1.955630621178553907
0.370000000000000218,1.939928882236545693
0.371000000000000218,1.924268099018595635
0.372000000000000219,1.908637574444025820
0.373000000000000220,1.893027210471383670
0.374000000000000221,1.877427494324451329
0.375000000000000222,1.861829484628287901
0.376000000000000223,1.846224797474363966
0.377000000000000224,1.830605592433538265
0.378000000000000225,1.814964558534821082
0.379000000000000226,1.799294900227398797
0.380000000000000226,1.783590323342671535
0.381000000000000227,1.767845021072550704
0.382000000000000228,1.752053659979515121
0.383000000000000229,1.736211366053356020
0.384000000000000230,1.720313710828907050
0.385000000000000231,1.704356697578337743
0.386000000000000232,1.688336747591078879
0.387000000000000233,1.672250686553664822
0.388000000000000234,1.656095731041297370
0.389000000000000234,1.639869475132171406
0.390000000000000235,1.623569877155101482
0.391000000000000236,1.607195246580287673
0.392000000000000237,1.590744231062540592
0.393000000000000238,1.574215803645615974
0.394000000000000239,1.557609250135811196
0.395000000000000240,1.540924156652343058
0.396000000000000241,1.524160397361516761
0.397000000000000242,1.507318122401141602
0.398000000000000242,1.490397746001110413
0.399000000000000243,1.473399934805585287
0.400000000000000244,1.456325596401707001
0.401000000000000245,1.439175868059217267
0.402000000000000246,1.421952105685088785
0.403000000000000247,1.404655872996535049
0.404000000000000248,1.387288930915620222
0.405000000000000249,1.369853227188036593
0.406000000000000250,1.352350886228399940
0.407000000000000250,1.334784199193857601
0.408000000000000251,1.317155614287563781
0.409000000000000252,1.299467727293145192
0.410000000000000253,1.281723272340948183
0.411000000000000254,1.263925112906556070
0.412000000000000255,1.246076233041742753
0.413000000000000256,1.228179728837671458
0.414000000000000257,1.210238800120005065
0.415000000000000258,1.192256742375127576
0.416000000000000258,1.174236938906647598
0.417000000000000259,1.156182853220880880
0.418000000000000260,1.138098021639990742
0.419000000000000261,1.119986046141079328
0.420000000000000262,1.101850587419457517
0.421000000000000263,1.083695358174004308
0.422000000000000264,1.065524116612486472
0.423000000000000265,1.047340660174413074
0.424000000000000266,1.029148819468905796
0.425000000000000266,1.010952452424969783
0.426000000000000267,0.992755438651298894
0.427000000000000268,0.974561674002733747
0.428000000000000269,0.956375065350335340
0.429000000000000270,0.938199525551917324
0.430000000000000271,0.920038968619833808
0.431000000000000272,0.901897305082675849
0.432000000000000273,0.883778437537518391
0.433000000000000274,0.865686256389238573
0.434000000000000274,0.847624635773380652
0.435000000000000275,0.829597429659024277
0.436000000000000276,0.811608468128018345
0.437000000000000277,0.793661553826926602
0.438000000000000278,0.775760458588025670
0.439000000000000279,0.757908920215614179
0.440000000000000280,0.740110639433918971
0.441000000000000281,0.722369276992888887
0.442000000000000282,0.704688450928043886
0.443000000000000282,0.687071733970752163
0.444000000000000283,0.669522651105055155
0.445000000000000284,0.652044677267406225
0.446000000000000285,0.634641235185542274
0.447000000000000286,0.617315693352766814
0.448000000000000287,0.600071364133996976
0.449000000000000288,0.582911501999847093
0.450000000000000289,0.565839301885153523
0.451000000000000290,0.548857897668303840
0.452000000000000290,0.531970360767775929
0.453000000000000291,0.515179698852381351
0.454000000000000292,0.498488854661668035
0.455000000000000293,0.481900704933029722
0.456000000000000294,0.465418059432113285
0.457000000000000295,0.449043660083106921
0.458000000000000296,0.432780180195627306
0.459000000000000297,0.416630223784880793
0.460000000000000298,0.400596324981882912
0.461000000000000298,0.384680947530556261
0.462000000000000299,0.368886484368564527
0.463000000000000300,0.353215257288829965
0.464000000000000301,0.337669516678676840
0.465000000000000302,0.322251441333678390
0.466000000000000303,0.306963138343265218
0.467000000000000304,0.291806643045249670
0.468000000000000305,0.276783919046489413
0.469000000000000306,0.261896858306933378
0.470000000000000306,0.247147281284366471
0.471000000000000307,0.232536937137266975
0.472000000000000308,0.218067503983175814
0.473000000000000309,0.203740589210084366
0.474000000000000310,0.189557729838430111
0.475000000000000311,0.175520392931245134
0.476000000000000312,0.161629976050217283
0.477000000000000313,0.147887807755296419
0.478000000000000314,0.134295148145735982
0.479000000000000314,0.120853189440317282
0.480000000000000315,0.107563056594743328
0.481000000000000316,0.094425807954092694
0.482000000000000317,0.081442435938403890
0.483000000000000318,0.068613867759416747
0.484000000000000319,0.055940966166626235
0.485000000000000320,0.043424530220816868
0.486000000000000321,0.031065296093307014
0.487000000000000322,0.018863937889193050
0.488000000000000322,0.006821068492948235
0.489000000000000323,-0.005062759565265251
0.490000000000000324,-0.016787053224106785
0.491000000000000325,-0.028351377987900484
0.492000000000000326,-0.039755357007279835
0.493000000000000327,-0.050998670145041114
0.494000000000000328,-0.062081053028564301
0.495000000000000329,-0.073002296090134575
0.496000000000000330,-0.083762243596398320
0.497000000000000330,-0.094360792668252105
0.498000000000000331,-0.104797892292242414
0.499000000000000332,-0.115073542324714603
0.500000000000000333,-0.125187792489762501
0.501000000000000334,-0.135140741372009487
0.502000000000000335,-0.144932535405297824
0.503000000000000336,-0.154563367858195272
0.504000000000000337,-0.164033477817315809
0.505000000000000338,-0.173343149169296246
0.506000000000000338,-0.182492709582328050
0.507000000000000339,-0.191482529488066266
0.508000000000000340,-0.200313021064668029
0.509000000000000341,-0.208984637221783565
0.510000000000000342,-0.217497870588139464
0.511000000000000343,-0.225853252502484114
0.512000000000000344,-0.234051352008481706
0.513000000000000345,-0.242092774854223813
0.514000000000000346,-0.249978162496962059
0.515000000000000346,-0.257708191113575735
0.516000000000000347,-0.265283570617366515
0.517000000000000348,-0.272705043681673420
0.518000000000000349,-0.279973384770772049
0.519000000000000350,-0.287089399178549087
0.520000000000000351,-0.294053922075344643
0.521000000000000352,-0.300867817563420348
0.522000000000000353,-0.307531977741372531
0.523000000000000353,-0.314047321777913169
0.524000000000000354,-0.320414794995311392
0.525000000000000355,-0.326635367962842371
0.526000000000000356,-0.332710035600501663
0.527000000000000357,-0.338639816293305695
0.528000000000000358,-0.344425751016394777
0.529000000000000359,-0.350068902471203924
0.530000000000000360,-0.355570354232877472
0.531000000000000361,-0.360931209909184036
0.532000000000000361,-0.366152592311067171
0.533000000000000362,-0.371235642635020846
0.534000000000000363,-0.376181519657425134
0.535000000000000364,-0.380991398941004700
0.536000000000000365,-0.385666472053486975
0.537000000000000366,-0.390207945798615452
0.538000000000000367,-0.394617041459552398
0.539000000000000368,-0.398894994054821317
0.540000000000000369,-0.403043051606777780
0.541000000000000369,-0.407062474422739684
0.542000000000000370,-0.410954534388739023
0.543000000000000371,-0.414720514276003538
0.544000000000000372,-0.418361707060134147
0.545000000000000373,-0.421879415253013978
0.546000000000000374,-0.425274950247445438
0.547000000000000375,-0.428549631674492837
0.548000000000000376,-0.431704786773543514
0.549000000000000377,-0.434741749775016895
0.550000000000000377,-0.437661861295739640
0.551000000000000378,-0.440466467746883361
0.552000000000000379,-0.443156920754479156
0.553000000000000380,-0.445734576592402010
0.554000000000000381,-0.448200795627772652
0.555000000000000382,-0.450556941778746611
0.556000000000000383,-0.452804381984536097
0.557000000000000384,-0.454944485687675093
0.558000000000000385,-0.456978624328351124
0.559000000000000385,-0.458908170850786223
0.560000000000000386,-0.460734499221522154
0.561000000000000387,-0.462458983959527337
0.562000000000000388,-0.464082999678005426
0.563000000000000389,-0.465607920637833406
0.564000000000000390,-0.467035120312454310
0.565000000000000391,-0.468365970964165101
0.566000000000000392,-0.469601843231638227
0.567000000000000393,-0.470744105728590767
0.568000000000000393,-0.471794124653430402
0.569000000000000394,-0.472753263409786684
0.570000000000000395,-0.473622882237787812
0.571000000000000396,-0.474404337855920399
0.572000000000000397,-0.475098983113392603
0.573000000000000398,-0.475708166652805076
0.574000000000000399,-0.476233232583032240
0.575000000000000400,-0.476675520162147759
0.576000000000000401,-0.477036363490259796
0.577000000000000401,-0.477317091212140721
0.578000000000000402,-0.477519026229450028
0.579000000000000403,-0.477643485422450109
0.580000000000000404,-0.477691779381075599
0.581000000000000405,-0.477665212145156559
0.582000000000000406,-0.477565080953723797
0.583000000000000407,-0.477392676003172700
0.584000000000000408,-0.477149280214206661
0.585000000000000409,-0.476836169007364918
0.586000000000000409,-0.476454610087006014
0.587000000000000410,-0.476005863233615933
0.588000000000000411,-0.475491180104243572
0.589000000000000412,-0.474911804040997143
0.590000000000000413,-0.474268969887364278
0.591000000000000414,-0.473563903812277975
0.592000000000000415,-0.472797823141769324
0.593000000000000416,-0.471971936198028019
0.594000000000000417,-0.471087442145764868
0.595000000000000417,-0.470145530845744175
0.596000000000000418,-0.469147382715270400
0.597000000000000419,-0.468094168595596494
0.598000000000000420,-0.466987049626007622
0.599000000000000421,-0.465827177124523761
0.600000000000000422,-0.464615692475032760
0.601000000000000423,-0.463353727020728634
0.602000000000000424,-0.462042401963740634
0.603000000000000425,-0.460682828270795874
0.604000000000000425,-0.459276106584775246
0.605000000000000426,-0.457823327142058201
0.606000000000000427,-0.456325569695523625
0.607000000000000428,-0.454783903443013560
0.608000000000000429,-0.453199386961265271
0.609000000000000430,-0.451573068145014578
0.610000000000000431,-0.449905984151311056
0.611000000000000432,-0.448199161348797059
0.612000000000000433,-0.446453615271885762
0.613000000000000433,-0.444670350579729146
0.614000000000000434,-0.442850361019816507
0.615000000000000435,-0.440994629396104454
0.616000000000000436,-0.439104127541566913
0.617000000000000437,-0.437179816295068746
