# TricalciumSilicate001_1HINDOLE-AC
# h[nm],U(h)[kJ/mol]
0.149999999999999994,143.098262224984864588
0.150999999999999995,140.585599331521564181
0.151999999999999996,138.552593866589148774
0.152999999999999997,136.568199379942228688
0.153999999999999998,134.504044913333160594
0.154999999999999999,132.362769153611537831
0.156000000000000000,130.189355330174379333
0.157000000000000001,128.029968426381657309
0.158000000000000002,125.916595799271732403
0.159000000000000002,123.864614092644359289
0.160000000000000003,121.875942472355134782
0.161000000000000004,119.943837901322922335
0.162000000000000005,118.057407959509120587
0.163000000000000006,116.205068311965618477
0.164000000000000007,114.376788170606602080
0.165000000000000008,112.565263132082463926
0.166000000000000009,110.766267279969198967
0.167000000000000010,108.978450330633876320
0.168000000000000010,107.202812106569240314
0.169000000000000011,105.442035397206069547
0.170000000000000012,103.699805449103024557
0.171000000000000013,101.980197799336536946
0.172000000000000014,100.287178969403811379
0.173000000000000015,98.624237028846010844
0.174000000000000016,96.994140223420814095
0.175000000000000017,95.398810191357512167
0.176000000000000018,93.839290107677172159
0.177000000000000018,92.315785876425778156
0.178000000000000019,90.827758945438262117
0.179000000000000020,89.374051423881780920
0.180000000000000021,87.953027167130386488
0.181000000000000022,86.562715803661802738
0.182000000000000023,85.200949941691959566
0.183000000000000024,83.865488776810593663
0.184000000000000025,82.554123898806793136
0.185000000000000026,81.264765214338410715
0.186000000000000026,79.995506561446219962
0.187000000000000027,78.744671823953893863
0.188000000000000028,77.510843208826941009
0.189000000000000029,76.292873886314566789
0.190000000000000030,75.089887471407578801
0.191000000000000031,73.901266903084746218
0.192000000000000032,72.726635206626738750
0.193000000000000033,71.565830448593828805
0.194000000000000034,70.418876951146117449
0.195000000000000034,69.285954552238052884
0.196000000000000035,68.167367404195317704
0.197000000000000036,67.063513512734616029
0.198000000000000037,65.974855944018116816
0.199000000000000038,64.901896377073967415
0.200000000000000039,63.845151457722963073
0.201000000000000040,62.805132220260588838
0.202000000000000041,61.782326684803820172
0.203000000000000042,60.777185610243563474
0.204000000000000042,59.790111282981229124
0.205000000000000043,58.821449147299198046
0.206000000000000044,57.871482031216359587
0.207000000000000045,56.940426688805096944
0.208000000000000046,56.028432363039840425
0.209000000000000047,55.135581069321972336
0.210000000000000048,54.261889306138449740
0.211000000000000049,53.407310913400998231
0.212000000000000050,52.571740818726084399
0.213000000000000050,51.755019435409550965
0.214000000000000051,50.956937501578060790
0.215000000000000052,50.177241176693456737
0.216000000000000053,49.415637238241366447
0.217000000000000054,48.671798247262707093
0.218000000000000055,47.945367575810386995
0.219000000000000056,47.235964212018622277
0.220000000000000057,46.543187278993251255
0.221000000000000058,45.866620222024380382
0.222000000000000058,45.205834634630406299
0.223000000000000059,44.560393707697798504
0.224000000000000060,43.929855297560628458
0.225000000000000061,43.313774618396529092
0.226000000000000062,42.711706571955787126
0.227000000000000063,42.123207733560320776
0.228000000000000064,41.547838017694104451
0.229000000000000065,40.985162049539034967
0.230000000000000066,40.434750270676602213
0.231000000000000066,39.896179808047570248
0.232000000000000067,39.369035135307591133
0.233000000000000068,38.852908555086756337
0.234000000000000069,38.347400529495466515
0.235000000000000070,37.852119884643698811
0.236000000000000071,37.366683913063283740
0.237000000000000072,36.890718395842881705
0.238000000000000073,36.423857564082652516
0.239000000000000073,35.965744017022522883
0.240000000000000074,35.516028611949607807
0.241000000000000075,35.074370338797294266
0.242000000000000076,34.640436190244585646
0.243000000000000077,34.213901036140569545
0.244000000000000078,33.794447509235240545
0.245000000000000079,33.381765907508267333
0.246000000000000080,32.975554116861808041
0.247000000000000081,32.575517556582980205
0.248000000000000081,32.181369148789507051
0.249000000000000082,31.792829312041810397
0.250000000000000111,31.409625978431694904
0.251000000000000112,31.031494632734318628
0.252000000000000113,30.658178371624568825
0.253000000000000114,30.289427980504047611
0.254000000000000115,29.925002025145982287
0.255000000000000115,29.564666955133485970
0.256000000000000116,29.208197215928855428
0.257000000000000117,28.855375366356810218
0.258000000000000118,28.505992198302635643
0.259000000000000119,28.159846855504429897
0.260000000000000120,27.816746948449615928
0.261000000000000121,27.476508662558320140
0.262000000000000122,27.138956857042199289
0.263000000000000123,26.803925152059651538
0.264000000000000123,26.471256002038103361
0.265000000000000124,26.140800753297462222
0.266000000000000125,25.812419684377214679
0.267000000000000126,25.485982027741350464
0.268000000000000127,25.161365971802581498
0.269000000000000128,24.838458642470033766
0.270000000000000129,24.517156063676601718
0.271000000000000130,24.197363096583437425
0.272000000000000131,23.878993357385560614
0.273000000000000131,23.561969113854633662
0.274000000000000132,23.246221160950067741
0.275000000000000133,22.931688676007517813
0.276000000000000134,22.618319054173976923
0.277000000000000135,22.306067724901975424
0.278000000000000136,21.994897950439124656
0.279000000000000137,21.684780607357389215
0.280000000000000138,21.375693952256803243
0.281000000000000139,21.067623372852121832
0.282000000000000139,20.760561125710008668
0.283000000000000140,20.454506061947611784
0.284000000000000141,20.149463342233847385
0.285000000000000142,19.845444142451469816
0.286000000000000143,19.542465351383430772
0.287000000000000144,19.240549261781190182
0.288000000000000145,18.939723256157044773
0.289000000000000146,18.640019488618452925
0.290000000000000147,18.341474564029155658
0.291000000000000147,18.044129215743659245
0.292000000000000148,17.748027983115001405
0.293000000000000149,17.453218889926343849
0.294000000000000150,17.159753124841188310
0.295000000000000151,16.867684724909153715
0.296000000000000152,16.577070263102505976
0.297000000000000153,16.287968540795890959
0.298000000000000154,16.000440286036280213
0.299000000000000155,15.714547858384865009
0.300000000000000155,15.430354961046273132
0.301000000000000156,15.147926360934780732
0.302000000000000157,14.867327617261420158
0.303000000000000158,14.588624819161916335
0.304000000000000159,14.311884332821794175
0.305000000000000160,14.037172558493768548
0.306000000000000161,13.764555697742682838
0.307000000000000162,13.494099531195672625
0.308000000000000163,13.225869207019940177
0.309000000000000163,12.959929040297586411
0.310000000000000164,12.696342323416633491
0.311000000000000165,12.435171147549493043
0.312000000000000166,12.176476235245337065
0.313000000000000167,11.920316784120302600
0.314000000000000168,11.666750321590241057
0.315000000000000169,11.415832570553700265
0.316000000000000170,11.167617325899028558
0.317000000000000171,10.922156341678228131
0.318000000000000171,10.679499228761535790
0.319000000000000172,10.439693362760715800
0.320000000000000173,10.202783801985813028
0.321000000000000174,9.968813215178972342
0.322000000000000175,9.737821818750516556
0.323000000000000176,9.509847323226161109
0.324000000000000177,9.284924888600166071
0.325000000000000178,9.063087088277480774
0.326000000000000179,8.844363881277546469
0.327000000000000179,8.628782592364970583
0.328000000000000180,8.416367899765415217
0.329000000000000181,8.207141830120928461
0.330000000000000182,8.001123760335701718
0.331000000000000183,7.798330425961689905
0.332000000000000184,7.598775935773557144
0.333000000000000185,7.402471792183320076
0.334000000000000186,7.209426917147458980
0.335000000000000187,7.019647683222588697
0.336000000000000187,6.833137949429979763
0.337000000000000188,6.649899101594836104
0.338000000000000189,6.469930096831740585
0.339000000000000190,6.293227511854725620
0.340000000000000191,6.119785594797950701
0.341000000000000192,5.949596320240520875
0.342000000000000193,5.782649447137783838
0.343000000000000194,5.618932579370052416
0.344000000000000195,5.458431228629320842
0.345000000000000195,5.301128879373409930
0.346000000000000196,5.147007055587531354
0.347000000000000197,4.996045389102572898
0.348000000000000198,4.848221689229935905
0.349000000000000199,4.703512013482696652
0.350000000000000200,4.561890739163201758
0.351000000000000201,4.423330635607471528
0.352000000000000202,4.287802936886985883
0.353000000000000203,4.155277414778586476
0.354000000000000203,4.025722451823239290
0.355000000000000204,3.899105114304562303
0.356000000000000205,3.775391224987611594
0.357000000000000206,3.654545435468024461
0.358000000000000207,3.536531297991464040
0.359000000000000208,3.421311336612093079
0.360000000000000209,3.308847117568009644
0.361000000000000210,3.199099318760635136
0.362000000000000210,3.092027798233102143
0.363000000000000211,2.987591661551472377
0.364000000000000212,2.885749328000303482
0.365000000000000213,2.786458595512099734
0.366000000000000214,2.689676704257492723
0.367000000000000215,2.595360398830380610
0.368000000000000216,2.503465988968971878
0.369000000000000217,2.413949408760664106
0.370000000000000218,2.326766274284663094
0.371000000000000218,2.241871939652737566
0.372000000000000219,2.159221551414009621
0.373000000000000220,2.078770101295349892
0.374000000000000221,2.000472477254243930
0.375000000000000222,1.924283512825998077
0.376000000000000223,1.850158034751647307
0.377000000000000224,1.778050908877780500
0.378000000000000225,1.707917084323375745
0.379000000000000226,1.639711635912976861
0.380000000000000226,1.573389804878916554
0.381000000000000227,1.508907037839246623
0.382000000000000228,1.446219024060785951
0.383000000000000229,1.385281731020159501
0.384000000000000230,1.326051438278243122
0.385000000000000231,1.268484769686109903
0.386000000000000232,1.212538723943107799
0.387000000000000233,1.158170703529625811
0.388000000000000234,1.105338542039503436
0.389000000000000234,1.054000529938533104
0.390000000000000235,1.004115438777411828
0.391000000000000236,0.955642543888920337
0.392000000000000237,0.908541645600455361
0.393000000000000238,0.862773088994267967
0.394000000000000239,0.818297782248845307
0.395000000000000240,0.775077213595686265
0.396000000000000241,0.733073466926666972
0.397000000000000242,0.692249236087773445
0.398000000000000242,0.652567837895469460
0.399000000000000243,0.613993223912637776
0.400000000000000244,0.576489991021084336
0.401000000000000245,0.540023390828013539
0.402000000000000246,0.504559337944113673
0.403000000000000247,0.470064417170665494
0.404000000000000248,0.436505889633364119
0.405000000000000249,0.403851697900315831
0.406000000000000250,0.372070470121530272
0.407000000000000250,0.341131523226991362
0.408000000000000251,0.311004865220127324
0.409000000000000252,0.281661196603163633
0.410000000000000253,0.253071910970393055
0.411000000000000254,0.225209094805021520
0.412000000000000255,0.198045526514767672
0.413000000000000256,0.171554674740721780
0.414000000000000257,0.145710695973707866
0.415000000000000258,0.120488431511402677
0.416000000000000258,0.095863403789269871
0.417000000000000259,0.071811812117330523
0.418000000000000260,0.048310527854434016
0.419000000000000261,0.025337089050757378
0.420000000000000262,0.002869694588779881
0.421000000000000263,-0.019112802147999021
0.422000000000000264,-0.040630900049764038
0.423000000000000265,-0.061704457470697173
0.424000000000000266,-0.082352699807713842
0.425000000000000266,-0.102594227441101318
0.426000000000000267,-0.122447024011537883
0.427000000000000268,-0.141928465008493460
0.428000000000000269,-0.161055326645915764
0.429000000000000270,-0.179843795001873502
0.430000000000000271,-0.198309475399462171
0.431000000000000272,-0.216467402007229526
0.432000000000000273,-0.234332047637935498
0.433000000000000274,-0.251917333725338310
0.434000000000000274,-0.269236640459410981
0.435000000000000275,-0.286302817061052206
0.436000000000000276,-0.303128192178191092
0.437000000000000277,-0.319724584385809141
0.438000000000000278,-0.336103312773108343
0.439000000000000279,-0.352275207601850493
0.440000000000000280,-0.368250621020393409
0.441000000000000281,-0.384039437818747165
0.442000000000000282,-0.399651086210653372
0.443000000000000282,-0.415094548629142246
0.444000000000000283,-0.430378372522904395
0.445000000000000284,-0.445510681141199960
0.446000000000000285,-0.460499184295741881
0.447000000000000286,-0.475351189088638104
0.448000000000000287,-0.490073610595801845
0.449000000000000288,-0.504672982496126465
0.450000000000000289,-0.519155467636958967
0.451000000000000290,-0.533526868527120501
0.452000000000000290,-0.547792637749193401
0.453000000000000291,-0.561957888283198592
0.454000000000000292,-0.576027403734420185
0.455000000000000293,-0.590005648458458709
0.456000000000000294,-0.603896777577131449
0.457000000000000295,-0.617704646879275288
0.458000000000000296,-0.631432822600834331
0.459000000000000297,-0.645084591079181147
0.460000000000000298,-0.658662968276850780
0.461000000000000298,-0.672170709170379466
0.462000000000000299,-0.685610317000223346
0.463000000000000300,-0.698984052378092025
0.464000000000000301,-0.712293942248460654
0.465000000000000302,-0.725541788701195234
0.466000000000000303,-0.738729177632687639
0.467000000000000304,-0.751857487253143053
0.468000000000000305,-0.764927896437866961
0.469000000000000306,-0.777941392920845076
0.470000000000000306,-0.790898781329068434
0.471000000000000307,-0.803800691056242300
0.472000000000000308,-0.816647583974950075
0.473000000000000309,-0.829439761986419888
0.474000000000000310,-0.842177374407277135
0.475000000000000311,-0.854860425192971563
0.476000000000000312,-0.867488779997641068
0.477000000000000313,-0.880062173070496834
0.478000000000000314,-0.892580213988832250
0.479000000000000314,-0.905042394228127045
0.480000000000000315,-0.917448093569666612
0.481000000000000316,-0.929796586346458342
0.482000000000000317,-0.942087047528177179
0.483000000000000318,-0.954318558646181869
0.484000000000000319,-0.966490113559635100
0.485000000000000320,-0.978600624063943769
0.486000000000000321,-0.990648925342880959
0.487000000000000322,-1.002633781265789725
0.488000000000000322,-1.014553889531343511
0.489000000000000323,-1.026407886659607582
0.490000000000000324,-1.038194352833979650
0.491000000000000325,-1.049911816594869984
0.492000000000000326,-1.061558759386926010
0.493000000000000327,-1.073133619961784913
0.494000000000000328,-1.084634798638270947
0.495000000000000329,-1.096060661422144644
0.496000000000000330,-1.107409543987422307
0.497000000000000330,-1.118679755521517993
0.498000000000000331,-1.129869582436226150
0.499000000000000332,-1.140977291946934757
0.500000000000000333,-1.152001135522220832
0.501000000000000334,-1.162939352206080912
0.502000000000000335,-1.173790171815215944
0.503000000000000336,-1.184551818013571900
0.504000000000000337,-1.195222511266566423
0.505000000000000338,-1.205800471677298535
0.506000000000000338,-1.216283921707146831
0.507000000000000339,-1.226671088783120256
0.508000000000000340,-1.236960207794298494
0.509000000000000341,-1.247149523479839761
0.510000000000000342,-1.257237292710800425
0.511000000000000343,-1.267221786668288663
0.512000000000000344,-1.277101292920186593
0.513000000000000345,-1.286874117398874473
0.514000000000000346,-1.296538586282343530
0.515000000000000346,-1.306093047780924721
0.516000000000000347,-1.315535873832051061
0.517000000000000348,-1.324865461705349245
0.518000000000000349,-1.334080235520296753
0.519000000000000350,-1.343178647678801241
0.520000000000000351,-1.352159180214850931
0.521000000000000352,-1.361020346063593900
0.522000000000000353,-1.369760690251899504
0.523000000000000353,-1.378378791012737858
0.524000000000000354,-1.386873260825408849
0.525000000000000355,-1.395242747383842685
0.526000000000000356,-1.403485934494992371
0.527000000000000357,-1.411601542909476148
0.528000000000000358,-1.419588331086446331
0.529000000000000359,-1.427445095894756211
0.530000000000000360,-1.435170673252347040
0.531000000000000361,-1.442763938705879267
0.532000000000000361,-1.450223807952493615
0.533000000000000362,-1.457549237305589385
0.534000000000000363,-1.464739224106493598
0.535000000000000364,-1.471792807083871724
0.536000000000000365,-1.478709066662605931
0.537000000000000366,-1.485487125224000504
0.538000000000000367,-1.492126147318925344
0.539000000000000368,-1.498625339835736758
0.540000000000000369,-1.504983952124490543
0.541000000000000369,-1.511201276079208400
0.542000000000000370,-1.517276646179674282
0.543000000000000371,-1.523209439494433548
0.544000000000000372,-1.528999075646440442
0.545000000000000373,-1.534645016742904655
0.546000000000000374,-1.540146767270771822
0.547000000000000375,-1.545503873959272356
0.548000000000000376,-1.550715925610958168
0.549000000000000377,-1.555782552902544413
0.550000000000000377,-1.560703428156982264
0.551000000000000378,-1.565478265087920873
0.552000000000000379,-1.570106818517993608
0.553000000000000380,-1.574588884072031680
0.554000000000000381,-1.578924297846469482
0.555000000000000382,-1.583112936056157327
0.556000000000000383,-1.587154714659610555
0.557000000000000384,-1.591049588963976857
0.558000000000000385,-1.594797553210617114
0.559000000000000385,-1.598398640142525196
0.560000000000000386,-1.601852920554523552
0.561000000000000387,-1.605160502827242652
0.562000000000000388,-1.608321532445867064
0.563000000000000389,-1.611336191504609827
0.564000000000000390,-1.614204698197789556
0.565000000000000391,-1.616927306298427514
0.566000000000000392,-1.619504304625207780
0.567000000000000393,-1.621936016498691568
0.568000000000000393,-1.624222799187484245
0.569000000000000394,-1.626365043345251449
0.570000000000000395,-1.628363172439318829
0.571000000000000396,-1.630217642171507109
0.572000000000000397,-1.631928939892058228
0.573000000000000398,-1.633497584007208348
0.574000000000000399,-1.634924123381161776
0.575000000000000400,-1.636209136733069558
0.576000000000000401,-1.637353232029604033
0.577000000000000401,-1.638357045873849671
0.578000000000000402,-1.639221242890925634
0.579000000000000403,-1.639946515110994429
0.580000000000000404,-1.640533581350226866
0.581000000000000405,-1.640983186590115439
0.582000000000000406,-1.641296101355772308
0.583000000000000407,-1.641473121093589338
0.584000000000000408,-1.641515065548777796
0.585000000000000409,-1.641422778143216021
0.586000000000000409,-1.641197125353992758
0.587000000000000410,-1.640838996093155755
0.588000000000000411,-1.640349301088895206
0.589000000000000412,-1.639728972268722940
0.590000000000000413,-1.638978962144837626
0.591000000000000414,-1.638100243202133655
0.592000000000000415,-1.637093807289139891
0.593000000000000416,-1.635960665012170523
0.594000000000000417,-1.634701845133034848
0.595000000000000417,-1.633318393970611293
0.596000000000000418,-1.631811374806425574
0.597000000000000419,-1.630181867294690834
0.598000000000000420,-1.628430966876833086
0.599000000000000421,-1.626559784200947378
0.600000000000000422,-1.624569444546238417
0.601000000000000423,-1.622461087252711875
0.602000000000000424,-1.620235865156365307
0.603000000000000425,-1.617894944029980575
0.604000000000000425,-1.615439502029710095
0.605000000000000426,-1.612870729147669824
0.606000000000000427,-1.610189826670659574
0.607000000000000428,-1.607398006645080368
0.608000000000000429,-1.604496491348378129
0.609000000000000430,-1.601486512766874259
0.610000000000000431,-1.598369312080346827
0.611000000000000432,-1.595146139153297504
0.612000000000000433,-1.591818252033072367
0.613000000000000433,-1.588386916454936681
0.614000000000000434,-1.584853405354149647
