# TricalciumSilicate001_NETHYLFORMAMIDE-AC
# h[nm],U(h)[kJ/mol]
0.149999999999999994,119.077882523724355224
0.150999999999999995,117.201967847294753255
0.151999999999999996,115.597338013528954548
0.152999999999999997,114.079158584534184229
0.153999999999999998,112.574483299632561284
0.154999999999999999,111.064253034598849013
0.156000000000000000,109.551718692361617968
0.157000000000000001,108.046449485553537784
0.158000000000000002,106.557175103423531937
0.159000000000000002,105.089355919509941373
0.160000000000000003,103.645061732517802966
0.161000000000000004,102.223794003212759662
0.162000000000000005,100.823529994574641933
0.163000000000000006,99.441647316410197277
0.164000000000000007,98.075601886944383523
0.165000000000000008,96.723345210041685505
0.166000000000000009,95.383519362791702179
0.167000000000000010,94.055486302387492970
0.168000000000000010,92.739248184214758908
0.169000000000000011,91.435307020280291113
0.170000000000000012,90.144500757149899073
0.171000000000000013,88.867841696703735010
0.172000000000000014,87.606373538885662811
0.173000000000000015,86.361055700035720406
0.174000000000000016,85.132677961393426358
0.175000000000000017,83.921804692537833148
0.176000000000000018,82.728745541155632282
0.177000000000000018,81.553548239818184129
0.178000000000000019,80.396008740802315629
0.179000000000000020,79.255693990394604498
0.180000000000000021,78.131973088345915812
0.181000000000000022,77.024053191205624103
0.182000000000000023,75.931017199420921315
0.183000000000000024,74.851860942605270566
0.184000000000000025,73.785528198573999248
0.185000000000000026,72.730942423839209710
0.186000000000000026,71.687034525421722719
0.187000000000000027,70.652766365390917258
0.188000000000000028,69.627149966257988467
0.189000000000000029,68.609262586679534479
0.190000000000000030,67.598257974056380704
0.191000000000000031,66.593374185064561743
0.192000000000000032,65.593938407944762048
0.193000000000000033,64.599369231462759444
0.194000000000000034,63.609176793493176660
0.195000000000000034,62.622961214423902732
0.196000000000000035,61.640409682918686940
0.197000000000000036,60.661292518639186255
0.198000000000000037,59.685458491821563598
0.199000000000000038,58.712829635684123275
0.200000000000000039,57.743395746271040991
0.201000000000000040,56.777208726631215541
0.202000000000000041,55.814376898812952277
0.203000000000000042,54.855059378261294967
0.204000000000000042,53.899460580794901432
0.205000000000000043,52.947824912184408674
0.206000000000000044,52.000431674091657896
0.207000000000000045,51.057590207334655474
0.208000000000000046,50.119635283652698376
0.209000000000000047,49.186922749900638507
0.210000000000000048,48.259825423456831572
0.211000000000000049,47.338729234181570860
0.212000000000000050,46.424029606141132831
0.213000000000000050,45.516128071202786032
0.214000000000000051,44.615429106230436673
0.215000000000000052,43.722337185745558941
0.216000000000000053,42.837254042376343932
0.217000000000000054,41.960576128055450340
0.218000000000000055,41.092692269629651491
0.219000000000000056,40.233981513232969007
0.220000000000000057,39.384811152386774324
0.221000000000000058,38.545534935296203116
0.222000000000000058,37.716491447182825425
0.223000000000000059,36.898002663730629536
0.224000000000000060,36.090372671822322559
0.225000000000000061,35.293886553719502785
0.226000000000000062,34.508809430706683941
0.227000000000000063,33.735385661994357065
0.228000000000000064,32.973838194380270750
0.229000000000000065,32.224368057818153943
0.230000000000000066,31.487154001663576253
0.231000000000000066,30.762352265969315823
0.232000000000000067,30.050096481810033566
0.233000000000000068,29.350497694237287050
0.234000000000000069,28.663644501116912977
0.235000000000000070,27.989603300789422491
0.236000000000000071,27.328418641228825692
0.237000000000000072,26.680113663161431958
0.238000000000000073,26.044690629447860175
0.239000000000000073,25.422131532931427245
0.240000000000000074,24.812398774911859078
0.241000000000000075,24.215435906418470324
0.242000000000000076,23.631168424525931471
0.243000000000000077,23.059504616076573313
0.244000000000000078,22.500336441344053640
0.245000000000000079,21.953540450386462624
0.246000000000000080,21.418978725092109983
0.247000000000000081,20.896499840209266097
0.248000000000000081,20.385939836970646155
0.249000000000000082,19.887123203267343285
0.250000000000000111,19.399863854690941878
0.251000000000000112,18.923966111142142665
0.252000000000000113,18.459225664093903418
0.253000000000000114,18.005430529995020805
0.254000000000000115,17.562361985698323963
0.255000000000000115,17.129795482197046397
0.256000000000000116,16.707501533346366784
0.257000000000000117,16.295246576633836355
0.258000000000000118,15.892793803440047995
0.259000000000000119,15.499903956594824450
0.260000000000000120,15.116336093385417172
0.261000000000000121,14.741848312508285090
0.262000000000000122,14.376198443773997582
0.263000000000000123,14.019144699675530674
0.264000000000000123,13.670446288211389074
0.265000000000000124,13.329863986617956684
0.266000000000000125,12.997160675908304484
0.267000000000000126,12.672101836338674374
0.268000000000000127,12.354456004127689184
0.269000000000000128,12.043995189939263213
0.270000000000000129,11.740495259806191797
0.271000000000000130,11.443736279320093630
0.272000000000000131,11.153502822044252696
0.273000000000000131,10.869584243219868824
0.274000000000000132,10.591774919934456634
0.275000000000000133,10.319874459003601785
0.276000000000000134,10.053687873885738924
0.277000000000000135,9.793025732004826622
0.278000000000000136,9.537704273897475105
0.279000000000000137,9.287545505631950249
0.280000000000000138,9.042377265966347721
0.281000000000000139,8.802033269722549846
0.282000000000000139,8.566353128853808840
0.283000000000000140,8.335182352675918338
0.284000000000000141,8.108372328717308619
0.285000000000000142,7.885780285621677876
0.286000000000000143,7.667269239509511003
0.287000000000000144,7.452707925172411763
0.288000000000000145,7.241970713436721496
0.289000000000000146,7.034937515992899293
0.290000000000000147,6.831493678942093695
0.291000000000000147,6.631529866265568174
0.292000000000000148,6.434941934372902850
0.293000000000000149,6.241630798835182681
0.294000000000000150,6.051502294356952305
0.295000000000000151,5.864467028988594066
0.296000000000000152,5.680440233527501270
0.297000000000000153,5.499341607003552568
0.298000000000000154,5.321095159091155047
0.299000000000000155,5.145629050237972457
0.300000000000000155,4.972875430248391737
0.301000000000000156,4.802770276009312056
0.302000000000000157,4.635253228995588337
0.303000000000000158,4.470267433144488933
0.304000000000000159,4.307759373641049550
0.305000000000000160,4.147678717110862223
0.306000000000000161,3.989978153672731676
0.307000000000000162,3.834613241261363381
0.308000000000000163,3.681542252589700581
0.309000000000000163,3.530726025081802000
0.310000000000000164,3.382127814070035932
0.311000000000000165,3.235713149515425435
0.312000000000000166,3.091449696476441300
0.313000000000000167,2.949307119520261811
0.314000000000000168,2.809256951240731937
0.315000000000000169,2.671272465019372433
0.316000000000000170,2.535328552139607616
0.317000000000000171,2.401401603340075575
0.318000000000000171,2.269469394870112566
0.319000000000000172,2.139510979089183085
0.320000000000000173,2.011506579632823311
0.321000000000000174,1.885437491149428268
0.322000000000000175,1.761285983595693549
0.323000000000000176,1.639035211063500030
0.324000000000000177,1.518669125097066308
0.325000000000000178,1.400172392447001535
0.326000000000000179,1.283530317196207360
0.327000000000000179,1.168728767182958928
0.328000000000000180,1.055754104637179447
0.329000000000000181,0.944593120938103992
0.330000000000000182,0.835232975394708532
0.331000000000000183,0.727661137944015435
0.332000000000000184,0.621865335657537210
0.333000000000000185,0.517833502941658641
0.334000000000000186,0.415553735314193484
0.335000000000000187,0.315014246636664719
0.336000000000000187,0.216203329679435813
0.337000000000000188,0.119109319895668753
0.338000000000000189,0.023720562278633860
0.339000000000000190,-0.069974618823288842
0.340000000000000191,-0.161987947059530263
0.341000000000000192,-0.252331218723556960
0.342000000000000193,-0.341016324816751648
0.343000000000000194,-0.428055270653260489
0.344000000000000195,-0.513460193127259434
0.345000000000000195,-0.597243375762841477
0.346000000000000196,-0.679417261663982086
0.347000000000000197,-0.759994464480274412
0.348000000000000198,-0.838987777501294163
0.349000000000000199,-0.916410180989876588
0.350000000000000200,-0.992274847861782994
0.351000000000000201,-1.066595147816198796
0.352000000000000202,-1.139384650018433476
0.353000000000000203,-1.210657124433100140
0.354000000000000203,-1.280426541902836890
0.355000000000000204,-1.348707073064147721
0.356000000000000205,-1.415513086188910474
0.357000000000000206,-1.480859144036689168
0.358000000000000207,-1.544759999799391936
0.359000000000000208,-1.607230592216853493
0.360000000000000209,-1.668286039938421172
0.361000000000000210,-1.727941635202186133
0.362000000000000210,-1.786212836900564538
0.363000000000000211,-1.843115263097383494
0.364000000000000212,-1.898664683058702618
0.365000000000000213,-1.952877008856325203
0.366000000000000214,-2.005768286599978190
0.367000000000000215,-2.057354687351116596
0.368000000000000216,-2.107652497768475186
0.369000000000000217,-2.156678110532435966
0.370000000000000218,-2.204448014592855998
0.371000000000000218,-2.250978785281890104
0.372000000000000219,-2.296287074331126110
0.373000000000000220,-2.340389599829630463
0.374000000000000221,-2.383303136157073787
0.375000000000000222,-2.425044503923710071
0.376000000000000223,-2.465630559946983436
0.377000000000000224,-2.505078187291968739
0.378000000000000225,-2.543404285401050124
0.379000000000000226,-2.580625760336064722
0.380000000000000226,-2.616759515154388094
0.381000000000000227,-2.651822440438341921
0.382000000000000228,-2.685831404995828287
0.383000000000000229,-2.718803246748183966
0.384000000000000230,-2.750754763819769799
0.385000000000000231,-2.781702705842314494
0.386000000000000232,-2.811663765485432176
0.387000000000000233,-2.840654570223587250
0.388000000000000234,-2.868691674348238685
0.389000000000000234,-2.895791551232902883
0.390000000000000235,-2.921970585857527336
0.391000000000000236,-2.947245067597584089
0.392000000000000237,-2.971631183282220423
0.393000000000000238,-2.995145010524889351
0.394000000000000239,-3.017802511328857573
0.395000000000000240,-3.039619525969323721
0.396000000000000241,-3.060611767152926710
0.397000000000000242,-3.080794814454753006
0.398000000000000242,-3.100184109032318780
0.399000000000000243,-3.118794948615223994
0.400000000000000244,-3.136642482768761120
0.401000000000000245,-3.153741708429134150
0.402000000000000246,-3.170107465707341809
0.403000000000000247,-3.185754433958582155
0.404000000000000248,-3.200697128113350942
0.405000000000000249,-3.214949895266204116
0.406000000000000250,-3.228526911517709319
0.407000000000000250,-3.241442179064876861
0.408000000000000251,-3.253709523535032844
0.409000000000000252,-3.265342591557875984
0.410000000000000253,-3.276354848570242062
0.411000000000000254,-3.286759576847907205
0.412000000000000255,-3.296569873758561364
0.413000000000000256,-3.305798650230081570
0.414000000000000257,-3.314458629427871728
0.415000000000000258,-3.322562345635250214
0.416000000000000258,-3.330122143330500162
0.417000000000000259,-3.337150176454366513
0.418000000000000260,-3.343658407861605841
0.419000000000000261,-3.349658608950262906
0.420000000000000262,-3.355162359462266153
0.421000000000000263,-3.360181047449056102
0.422000000000000264,-3.364725869395811308
0.423000000000000265,-3.368807830498051992
0.424000000000000266,-3.372437745084395200
0.425000000000000266,-3.375626237179136346
0.426000000000000267,-3.378383741198699219
0.427000000000000268,-3.380720502775768743
0.428000000000000269,-3.382646579705209433
0.429000000000000270,-3.384171843005887581
0.430000000000000271,-3.385305978092574719
0.431000000000000272,-3.386058486052322625
0.432000000000000273,-3.386438685019674377
0.433000000000000274,-3.386455711645308675
0.434000000000000274,-3.386118522652751039
0.435000000000000275,-3.385435896477937856
0.436000000000000276,-3.384416434986553757
0.437000000000000277,-3.383068565264145011
0.438000000000000278,-3.381400541474187893
0.439000000000000279,-3.379420446779425102
0.440000000000000280,-3.377136195321819745
0.441000000000000281,-3.374555534256741485
0.442000000000000282,-3.371686045837074097
0.443000000000000282,-3.368535149542973617
0.444000000000000283,-3.365110104253361101
0.445000000000000284,-3.361418010455106575
0.446000000000000285,-3.357465812486160495
0.447000000000000286,-3.353260300809061789
0.448000000000000287,-3.348808114311107254
0.449000000000000288,-3.344115742628010146
0.450000000000000289,-3.339189528487577441
0.451000000000000290,-3.334035670070384150
0.452000000000000290,-3.328660223384416472
0.453000000000000291,-3.323069104650703487
0.454000000000000292,-3.317268092697262638
0.455000000000000293,-3.311262831358625647
0.456000000000000294,-3.305058831878434855
0.457000000000000295,-3.298661475312701263
0.458000000000000296,-3.292076014931319516
0.459000000000000297,-3.285307578615765944
0.460000000000000298,-3.278361171250738781
0.461000000000000298,-3.271241677107857182
0.462000000000000299,-3.263953862219459268
0.463000000000000300,-3.256502376740686433
0.464000000000000301,-3.248891757298241423
0.465000000000000302,-3.241126429324124647
0.466000000000000303,-3.233210709372863256
0.467000000000000304,-3.225148807420853636
0.468000000000000305,-3.216944829146387796
0.469000000000000306,-3.208602778189179272
0.470000000000000306,-3.200126558388233455
0.471000000000000307,-3.191519975996850000
0.472000000000000308,-3.182786741873874448
0.473000000000000309,-3.173930473650185657
0.474000000000000310,-3.164954697869529987
0.475000000000000311,-3.155862852102924165
0.476000000000000312,-3.146658287035905666
0.477000000000000313,-3.137344268527904045
0.478000000000000314,-3.127923979643132846
0.479000000000000314,-3.118400522652495788
0.480000000000000315,-3.108776921005921956
0.481000000000000316,-3.099056121274767150
0.482000000000000317,-3.089240995063827544
0.483000000000000318,-3.079334340892661892
0.484000000000000319,-3.069338886045904324
0.485000000000000320,-3.059257288392337237
0.486000000000000321,-3.049092138172509792
0.487000000000000322,-3.038845959754755910
0.488000000000000322,-3.028521213359415487
0.489000000000000323,-3.018120296751324538
0.490000000000000324,-3.007645546900374889
0.491000000000000325,-2.997099241610212239
0.492000000000000326,-2.986483601115055286
0.493000000000000327,-2.975800789644741595
0.494000000000000328,-2.965052916958006879
0.495000000000000329,-2.954242039844173551
0.496000000000000330,-2.943370163593317379
0.497000000000000330,-2.932439243435179144
0.498000000000000331,-2.921451185946830176
0.499000000000000332,-2.910407850429518106
0.500000000000000333,-2.899311050254750111
0.501000000000000334,-2.888162554179889430
0.502000000000000335,-2.876964087633626210
0.503000000000000336,-2.865717333971486536
0.504000000000000337,-2.854423935701755344
0.505000000000000338,-2.843085495682077024
0.506000000000000338,-2.831703578287105394
0.507000000000000339,-2.820279710547518359
0.508000000000000340,-2.808815383260704124
0.509000000000000341,-2.797312052073623878
0.510000000000000342,-2.785771138538017500
0.511000000000000343,-2.774194031138530026
0.512000000000000344,-2.762582086294000483
0.513000000000000345,-2.750936629332382033
0.514000000000000346,-2.739258955439717536
0.515000000000000346,-2.727550330583496052
0.516000000000000347,-2.715811992410854359
0.517000000000000348,-2.704045151122085322
0.518000000000000349,-2.692250990319753345
0.519000000000000350,-2.680430667833985314
0.520000000000000351,-2.668585316524213713
0.521000000000000352,-2.656716045057967879
0.522000000000000353,-2.644823938666970964
0.523000000000000353,-2.632910059881091502
0.524000000000000354,-2.620975449240563915
0.525000000000000355,-2.609021125986846545
0.526000000000000356,-2.597048088732603510
0.527000000000000357,-2.585057316111257553
0.528000000000000358,-2.573049767406446087
0.529000000000000359,-2.561026383161943976
0.530000000000000360,-2.548988085772327050
0.531000000000000361,-2.536935780054938139
0.532000000000000361,-2.524870353803462031
0.533000000000000362,-2.512792678323607198
0.534000000000000363,-2.500703608951238888
0.535000000000000364,-2.488603985553440090
0.536000000000000365,-2.476494633012833457
0.537000000000000366,-2.464376361695649997
0.538000000000000367,-2.452249967903820771
0.539000000000000368,-2.440116234311651588
0.540000000000000369,-2.427975930387277437
0.541000000000000369,-2.415829812799469067
0.542000000000000370,-2.403678625809995140
0.543000000000000371,-2.391523101652046179
0.544000000000000372,-2.379363960895024110
0.545000000000000373,-2.367201912796079277
0.546000000000000374,-2.355037655638736460
0.547000000000000375,-2.342871877058971819
0.548000000000000376,-2.330705254359114242
0.549000000000000377,-2.318538454809856653
0.550000000000000377,-2.306372135940773838
0.551000000000000378,-2.294206945819602161
0.552000000000000379,-2.282043523320704814
0.553000000000000380,-2.269882498382949976
0.554000000000000381,-2.257724492257337179
0.555000000000000382,-2.245570117744761340
0.556000000000000383,-2.233419979424048130
0.557000000000000384,-2.221274673870753169
0.558000000000000385,-2.209134789866829429
0.559000000000000385,-2.197000908601601132
0.560000000000000386,-2.184873603864219582
0.561000000000000387,-2.172753442227922438
0.562000000000000388,-2.160640983226320699
0.563000000000000389,-2.148536779522057127
0.564000000000000390,-2.136441377067983094
0.565000000000000391,-2.124355315261188260
0.566000000000000392,-2.112279127090073594
0.567000000000000393,-2.100213339274770608
0.568000000000000393,-2.088158472401044463
0.569000000000000394,-2.076115041047986942
0.570000000000000395,-2.064083553909726199
0.571000000000000396,-2.052064513911270982
0.572000000000000397,-2.040058418318847711
0.573000000000000398,-2.028065758844797006
0.574000000000000399,-2.016087021747345887
0.575000000000000400,-2.004122687925351531
0.576000000000000401,-1.992173233008272648
0.577000000000000401,-1.980239127441578706
0.578000000000000402,-1.968320836567665877
0.579000000000000403,-1.956418820702561234
0.580000000000000404,-1.944533535208586628
0.581000000000000405,-1.932665430563045961
0.582000000000000406,-1.920814952423234745
0.583000000000000407,-1.908982541687808565
0.584000000000000408,-1.897168634554761368
0.585000000000000409,-1.885373662576097065
0.586000000000000409,-1.873598052709354089
0.587000000000000410,-1.861842227366169666
0.588000000000000411,-1.850106604457921078
0.589000000000000412,-1.838391597438711056
0.590000000000000413,-1.826697615345680870
0.591000000000000414,-1.815025062836889136
0.592000000000000415,-1.803374340226837402
0.593000000000000416,-1.791745843519718218
0.594000000000000417,-1.780139964440561329
0.595000000000000417,-1.768557090464401682
0.596000000000000418,-1.756997604843435257
0.597000000000000419,-1.745461886632488469
0.598000000000000420,-1.733950310712675913
0.599000000000000421,-1.722463247813513565
0.600000000000000422,-1.711001064533477223
0.601000000000000423,-1.699564123359131429
0.602000000000000424,-1.688152782682934783
0.603000000000000425,-1.676767396819766942
0.604000000000000425,-1.665408316022270352
0.605000000000000426,-1.654075886495092629
0.606000000000000427,-1.642770450408145066
0.607000000000000428,-1.631492345908786445
0.608000000000000429,-1.620241907133284753
0.609000000000000430,-1.609019464217292139
0.610000000000000431,-1.597825343305695922
0.611000000000000432,-1.586659866561698884
0.612000000000000433,-1.575523352175272951
0.613000000000000433,-1.564416114371063982
