# AlFCC111UCD_METSCA-AC
# h[nm],U(h)[kJ/mol]
0.149999999999999994,88.078540368090074253
0.150999999999999995,83.199439910138366372
0.151999999999999996,80.490800355720011794
0.152999999999999997,78.219678255293828784
0.153999999999999998,75.799260557735877342
0.154999999999999999,73.155352527808048535
0.156000000000000000,70.395869005247647010
0.157000000000000001,67.654204649983967101
0.158000000000000002,65.027549008836842859
0.159000000000000002,62.563271539969512958
0.160000000000000003,60.266609381653417188
0.161000000000000004,58.115214858775836149
0.162000000000000005,56.073448784029821468
0.163000000000000006,54.103486532516377849
0.164000000000000007,52.172545892960229708
0.165000000000000008,50.256629375585504249
0.166000000000000009,48.341594041596401610
0.167000000000000010,46.422426039538308373
0.168000000000000010,44.501489736558468735
0.169000000000000011,42.586349385192036721
0.170000000000000012,40.687582587656343946
0.171000000000000013,38.816847612997840145
0.172000000000000014,36.985341705959925207
0.173000000000000015,35.202696124973975600
0.174000000000000016,33.476292190086219591
0.175000000000000017,31.810945596601261087
0.176000000000000018,30.208887808708130507
0.177000000000000018,28.669968139221943204
0.178000000000000019,27.192003657983796927
0.179000000000000020,25.771212817135069173
0.180000000000000021,24.402680001161723311
0.181000000000000022,23.080810245742320319
0.182000000000000023,21.799744896893745505
0.183000000000000024,20.553719265100845348
0.184000000000000025,19.337351994494138552
0.185000000000000026,18.145862796297738129
0.186000000000000026,16.975220439911787196
0.187000000000000027,15.822226609240235717
0.188000000000000028,14.684543626709807285
0.189000000000000029,13.560675354303546314
0.190000000000000030,12.449911029084193004
0.191000000000000031,11.352241592548738325
0.192000000000000032,10.268257416170062157
0.193000000000000033,9.199035368430273252
0.194000000000000034,8.146022041149837634
0.195000000000000034,7.110918756891926762
0.196000000000000035,6.095572791618233843
0.197000000000000036,5.101878122827897322
0.198000000000000037,4.131687990152370205
0.199000000000000038,3.186740655015338319
0.200000000000000039,2.268598979035051144
0.201000000000000040,1.378603809005068737
0.202000000000000041,0.517840654724410654
0.203000000000000042,-0.312881234615453585
0.204000000000000042,-1.113038561447993846
0.205000000000000043,-1.882393780618010881
0.206000000000000044,-2.620986447617486448
0.207000000000000045,-3.329117580145544597
0.208000000000000046,-4.007328473193373597
0.209000000000000047,-4.656375340489715242
0.210000000000000048,-5.277201056990188377
0.211000000000000049,-5.870905157676778785
0.212000000000000050,-6.438713115388255304
0.213000000000000050,-6.981945781499987902
0.214000000000000051,-7.501989733527504534
0.215000000000000052,-8.000269137484059101
0.216000000000000053,-8.478219603390035886
0.217000000000000054,-8.937264392112862055
0.218000000000000055,-9.378793222333102975
0.219000000000000056,-9.804143828854350318
0.220000000000000057,-10.214586338136488308
0.221000000000000058,-10.611310453827067946
0.222000000000000058,-10.995415383864614256
0.223000000000000059,-11.367902390830254333
0.224000000000000060,-11.729669807860284791
0.225000000000000061,-12.081510332702919186
0.226000000000000062,-12.424110391436437695
0.227000000000000063,-12.758051349964611987
0.228000000000000064,-13.083812344667455463
0.229000000000000065,-13.401774502540908074
0.230000000000000066,-13.712226324879972950
0.231000000000000066,-14.015370016183002377
0.232000000000000067,-14.311328550680835647
0.233000000000000068,-14.600153282003551780
0.234000000000000069,-14.881831916342960653
0.235000000000000070,-15.156296685483358289
0.236000000000000071,-15.423432572762219905
0.237000000000000072,-15.683085461966808083
0.238000000000000073,-15.935070096015502727
0.239000000000000073,-16.179177748723621022
0.240000000000000074,-16.415183528778793942
0.241000000000000075,-16.642853250064181481
0.242000000000000076,-16.861949816533666535
0.243000000000000077,-17.072239082863177373
0.244000000000000078,-17.273495164013450420
0.245000000000000079,-17.465505177608974918
0.246000000000000080,-17.648073412658323633
0.247000000000000081,-17.821024926625952389
0.248000000000000081,-17.984208580244303022
0.249000000000000082,-18.137499525772575737
0.250000000000000111,-18.280801169719321564
0.251000000000000112,-18.414046635410748820
0.252000000000000113,-18.537199754275832220
0.253000000000000114,-18.650255617399302821
0.254000000000000115,-18.753240720842271116
0.255000000000000115,-18.846212739515117107
0.256000000000000116,-18.929259965083588213
0.257000000000000117,-19.002500443564446897
0.258000000000000118,-19.066080847988352787
0.259000000000000119,-19.120175120839519423
0.260000000000000120,-19.164982919982293197
0.261000000000000121,-19.200727900510528912
0.262000000000000122,-19.227655863457584928
0.263000000000000123,-19.246032800629773618
0.264000000000000123,-19.256142863017338129
0.265000000000000124,-19.258286278331496533
0.266000000000000125,-19.252777241250775830
0.267000000000000126,-19.239941797961030545
0.268000000000000127,-19.220115744572062511
0.269000000000000128,-19.193642557009031435
0.270000000000000129,-19.160871368030207407
0.271000000000000130,-19.122155005130593963
0.272000000000000131,-19.077848101266301484
0.273000000000000131,-19.028305288588818200
0.274000000000000132,-18.973879483720597960
0.275000000000000133,-18.914920271539422458
0.276000000000000134,-18.851772392973860093
0.277000000000000135,-18.784774340949073945
0.278000000000000136,-18.714257067362257914
0.279000000000000137,-18.640542802810337264
0.280000000000000138,-18.563943989739222218
0.281000000000000139,-18.484762328730418801
0.282000000000000139,-18.403287936786423273
0.283000000000000140,-18.319798615716102574
0.284000000000000141,-18.234559228052543034
0.285000000000000142,-18.147821177354096278
0.286000000000000143,-18.059821989239388529
0.287000000000000144,-17.970784989085206718
0.288000000000000145,-17.880919071966935974
0.289000000000000146,-17.790418560139205084
0.290000000000000147,-17.699463143135677257
0.291000000000000147,-17.608217895405378073
0.292000000000000148,-17.516833366294626728
0.293000000000000149,-17.425445737123293810
0.294000000000000150,-17.334177040086608201
0.295000000000000151,-17.243135433736508588
0.296000000000000152,-17.152415529852383713
0.297000000000000153,-17.062098766599088862
0.298000000000000154,-16.972253822983642380
0.299000000000000155,-16.882937069759904603
0.300000000000000155,-16.794193052087205587
0.301000000000000156,-16.706054999422974561
0.302000000000000157,-16.618545358316708871
0.303000000000000158,-16.531676343971131615
0.304000000000000159,-16.445450506643421562
0.305000000000000160,-16.359861309172366362
0.306000000000000161,-16.274893712134790746
0.307000000000000162,-16.190524763354201099
0.308000000000000163,-16.106724188704554024
0.309000000000000163,-16.023454981371653361
0.310000000000000164,-15.940673986951335195
0.311000000000000165,-15.858332481977527095
0.312000000000000166,-15.776376743682163806
0.313000000000000167,-15.694748608992890482
0.314000000000000168,-15.613386020972239265
0.315000000000000169,-15.532223561092809661
0.316000000000000170,-15.451192965927143419
0.317000000000000171,-15.370223627006751599
0.318000000000000171,-15.289243072773151866
0.319000000000000172,-15.208177431703836291
0.320000000000000173,-15.126951875847487017
0.321000000000000174,-15.045491044146052317
0.322000000000000175,-14.963719445056032242
0.323000000000000176,-14.881561838107415952
0.324000000000000177,-14.798943594156716230
0.325000000000000178,-14.715791034199819265
0.326000000000000179,-14.632031746712399922
0.327000000000000179,-14.547594883578582881
0.328000000000000180,-14.462411434754795181
0.329000000000000181,-14.376414481894196129
0.330000000000000182,-14.289539431227854749
0.331000000000000183,-14.201724226063751289
0.332000000000000184,-14.112909539321677244
0.333000000000000185,-14.023038946573942454
0.334000000000000186,-13.932059080106686366
0.335000000000000187,-13.839919764556332993
0.336000000000000187,-13.746574134709684145
0.337000000000000188,-13.651978736085130350
0.338000000000000189,-13.556093608936702566
0.339000000000000190,-13.458882356342257935
0.340000000000000191,-13.360312197052133243
0.341000000000000192,-13.260354003787005794
0.342000000000000193,-13.158982327680174507
0.343000000000000194,-13.056175409565170753
0.344000000000000195,-12.951915178809915830
0.345000000000000195,-12.846187240397833662
0.346000000000000196,-12.738980850951563184
0.347000000000000197,-12.630288884388695791
0.348000000000000198,-12.520107787890234263
0.349000000000000199,-12.408437528851550269
0.350000000000000200,-12.295281533473630731
0.351000000000000201,-12.180646617638032581
0.352000000000000202,-12.064542910693994315
0.353000000000000203,-11.946983772769559806
0.354000000000000203,-11.827985706201001648
0.355000000000000204,-11.707568261656488673
0.356000000000000205,-11.585753939510924582
0.357000000000000206,-11.462568087009106677
0.358000000000000207,-11.338038791734041055
0.359000000000000208,-11.212196771877056989
0.360000000000000209,-11.085075263785272526
0.361000000000000210,-10.956709907241213742
0.362000000000000210,-10.827138628908278051
0.363000000000000211,-10.696401524354900658
0.364000000000000212,-10.564540739049363083
0.365000000000000213,-10.431600348696374425
0.366000000000000214,-10.297626239266298498
0.367000000000000215,-10.162665987047528660
0.368000000000000216,-10.026768739032721811
0.369000000000000217,-9.889985093930206972
0.370000000000000218,-9.752366984072695644
0.371000000000000218,-9.613967558476897324
0.372000000000000219,-9.474841067289482055
0.373000000000000220,-9.335042747837313470
0.374000000000000221,-9.194628712482622035
0.375000000000000222,-9.053655838467385308
0.376000000000000223,-8.912181659915150433
0.377000000000000224,-8.770264262143079748
0.378000000000000225,-8.627962178422228234
0.379000000000000226,-8.485334289309765410
0.380000000000000226,-8.342439724663263334
0.381000000000000227,-8.199337768433839102
0.382000000000000228,-8.056087766322875154
0.383000000000000229,-7.912749036374701284
0.384000000000000230,-7.769380782566402743
0.385000000000000231,-7.626042011445385072
0.386000000000000232,-7.482791451854684972
0.387000000000000233,-7.339687477776687174
0.388000000000000234,-7.196788034316571547
0.389000000000000234,-7.054150566838382375
0.390000000000000235,-6.911831953258293026
0.391000000000000236,-6.769888439492359744
0.392000000000000237,-6.628375578048554928
0.393000000000000238,-6.487348169746747217
0.394000000000000239,-6.346860208543560589
0.395000000000000240,-6.206964829433834652
0.396000000000000241,-6.067714259394823451
0.397000000000000242,-5.929159771334338913
0.398000000000000242,-5.791351640999913286
0.399000000000000243,-5.654339106801556269
0.400000000000000244,-5.518170332497025043
0.401000000000000245,-5.382892372685556204
0.402000000000000246,-5.248551141052375080
0.403000000000000247,-5.115191381303826113
0.404000000000000248,-4.982856640730807030
0.405000000000000249,-4.851589246335619166
0.406000000000000250,-4.721430283455783083
0.407000000000000250,-4.592419576816767268
0.408000000000000251,-4.464595673944045551
0.409000000000000252,-4.337995830864185720
0.410000000000000253,-4.212656000023295988
0.411000000000000254,-4.088610820350997876
0.412000000000000255,-3.965893609397235675
0.413000000000000256,-3.844536357469222843
0.414000000000000257,-3.724569723695492662
0.415000000000000258,-3.606023033944320666
0.416000000000000258,-3.488924280523796995
0.417000000000000259,-3.373300123591239874
0.418000000000000260,-3.259175894200249335
0.419000000000000261,-3.146575598913988081
0.420000000000000262,-3.035521925914439034
0.421000000000000263,-2.926036252537768778
0.422000000000000264,-2.818138654167171797
0.423000000000000265,-2.711847914415287608
0.424000000000000266,-2.607181536529714627
0.425000000000000266,-2.504155755955889795
0.426000000000000267,-2.402785553993139978
0.427000000000000268,-2.303084672480792072
0.428000000000000269,-2.205065629452648501
0.429000000000000270,-2.108739735699484807
0.430000000000000271,-2.014117112180551672
0.431000000000000272,-1.921206708226605997
0.432000000000000273,-1.830016320478414782
0.433000000000000274,-1.740552612506184316
0.434000000000000274,-1.652821135056767421
0.435000000000000275,-1.566826346877255860
0.436000000000000276,-1.482571636064851095
0.437000000000000277,-1.400059341894548171
0.438000000000000278,-1.319290777077766874
0.439000000000000279,-1.240266250406529824
0.440000000000000280,-1.162985089739283051
0.441000000000000281,-1.087445665286109087
0.442000000000000282,-1.013645413152539199
0.443000000000000282,-0.941580859102601364
0.444000000000000283,-0.871247642503419018
0.445000000000000284,-0.802640540415021975
0.446000000000000285,-0.735753491790395175
0.447000000000000286,-0.670579621752631305
0.448000000000000287,-0.607111265916907339
0.449000000000000288,-0.545339994726940724
0.450000000000000289,-0.485256637776570188
0.451000000000000290,-0.426851308088682935
0.452000000000000290,-0.370113426324908179
0.453000000000000291,-0.315031744900886035
0.454000000000000292,-0.261594371983126128
0.455000000000000293,-0.209788795344708845
0.456000000000000294,-0.159601906058383813
0.457000000000000295,-0.111020022006643820
0.458000000000000296,-0.064028911189720178
0.459000000000000297,-0.018613814813317336
0.460000000000000298,0.025240529860760863
0.461000000000000298,0.067549866917069296
0.462000000000000299,0.108330399456858337
0.463000000000000300,0.147598767550230880
0.464000000000000301,0.185372026482950203
0.465000000000000302,0.221667625309845573
0.466000000000000303,0.256503385725919686
0.467000000000000304,0.289897481265302903
0.468000000000000305,0.321868416837268578
0.469000000000000306,0.352435008607962952
0.470000000000000306,0.381616364235410843
0.471000000000000307,0.409431863464828183
0.472000000000000308,0.435901139090360157
0.473000000000000309,0.461044058288843206
0.474000000000000310,0.484880704330308832
0.475000000000000311,0.507431358669476307
0.476000000000000312,0.528716483421679428
0.477000000000000313,0.548756704226318948
0.478000000000000314,0.567572793500057071
0.479000000000000314,0.585185654081651796
0.480000000000000315,0.601616303269747910
0.481000000000000316,0.616885857254358849
0.482000000000000317,0.631015515942415228
0.483000000000000318,0.644026548177223379
0.484000000000000319,0.655940277351302337
0.485000000000000320,0.666778067411549658
0.486000000000000321,0.676561309255485410
0.487000000000000322,0.685311407516764448
0.488000000000000322,0.693049767737907607
0.489000000000000323,0.699797783927856742
0.490000000000000324,0.705576826501626675
0.491000000000000325,0.710408230599044233
0.492000000000000326,0.714313284779314883
0.493000000000000327,0.717313220087880454
0.494000000000000328,0.719429199491746774
0.495000000000000329,0.720682307679366918
0.496000000000000330,0.721093541220766965
0.497000000000000330,0.720683799083629895
0.498000000000000331,0.719473873500624750
0.499000000000000332,0.717484441183370625
0.500000000000000333,0.714736054878032157
0.501000000000000334,0.711249135257547294
0.502000000000000335,0.707043963145343457
0.503000000000000336,0.702140672065223681
0.504000000000000337,0.696559241112078897
0.505000000000000338,0.690319488137914328
0.506000000000000338,0.683441063247659963
0.507000000000000339,0.675943442599137190
0.508000000000000340,0.667845922501452249
0.509000000000000341,0.659167613806152852
0.510000000000000342,0.649927436585253537
0.511000000000000343,0.640144115090418575
0.512000000000000344,0.629836172987344511
0.513000000000000345,0.619021928859574966
0.514000000000000346,0.607719491975770465
0.515000000000000346,0.595946758314608416
0.516000000000000347,0.583721406841410273
0.517000000000000348,0.571060896030579856
0.518000000000000349,0.557982460628033250
0.519000000000000350,0.544503108647766076
0.520000000000000351,0.530639618596650098
0.521000000000000352,0.516408536921813655
0.522000000000000353,0.501826175674689456
0.523000000000000353,0.486908610386093177
0.524000000000000354,0.471671678146650009
0.525000000000000355,0.456130975886860468
0.526000000000000356,0.440301858851312733
0.527000000000000357,0.424199439261440880
0.528000000000000358,0.407838585161352907
0.529000000000000359,0.391233919441380362
0.530000000000000360,0.374399819033881531
0.531000000000000361,0.357350414276106920
0.532000000000000361,0.340099588434844502
0.533000000000000362,0.322660977387704606
0.534000000000000363,0.305047969455958912
0.535000000000000364,0.287273705383935429
0.536000000000000365,0.269351078459994231
0.537000000000000366,0.251292734774277826
0.538000000000000367,0.233111073608383901
0.539000000000000368,0.214818247952325653
0.540000000000000369,0.196426165144085452
0.541000000000000369,0.177946487627284600
0.542000000000000370,0.159390633822419858
0.543000000000000371,0.140769779107376092
0.544000000000000372,0.122094856902828203
0.545000000000000373,0.103376559858379485
0.546000000000000374,0.084625341135251664
0.547000000000000375,0.065851415781507411
0.548000000000000376,0.047064762195804036
0.549000000000000377,0.028275123675823244
0.550000000000000377,0.009492010047554855
0.551000000000000378,-0.009275300628309859
0.552000000000000379,-0.028017760276440890
0.553000000000000380,-0.046726548957045998
0.554000000000000381,-0.065393072949551906
0.555000000000000382,-0.084008962773217136
0.556000000000000383,-0.102566071148006199
0.557000000000000384,-0.121056470898902105
0.558000000000000385,-0.139472452806884362
0.559000000000000385,-0.157806523409591337
0.560000000000000386,-0.176051402754650838
0.561000000000000387,-0.194200022108659609
0.562000000000000388,-0.212245521624599309
0.563000000000000389,-0.230181247970464437
0.564000000000000390,-0.248000751921791107
0.565000000000000391,-0.265697785920727902
0.566000000000000392,-0.283266301604146176
0.567000000000000393,-0.300700447303290486
0.568000000000000393,-0.317994565517355166
0.569000000000000394,-0.335143190363338728
0.570000000000000395,-0.352141045004376152
0.571000000000000396,-0.368983039058814910
0.572000000000000397,-0.385664265992105126
0.573000000000000398,-0.402180000493576439
0.574000000000000399,-0.418525695840091916
0.575000000000000400,-0.434696981248525849
0.576000000000000401,-0.450689659218893202
0.577000000000000401,-0.466499702869957844
0.578000000000000402,-0.482123253269087837
0.579000000000000403,-0.497556616757974801
0.580000000000000404,-0.512796262275901471
0.581000000000000405,-0.527838818682111244
0.582000000000000406,-0.542681072078759152
0.583000000000000407,-0.557319963135969654
0.584000000000000408,-0.571752584420317733
0.585000000000000409,-0.585976177728141590
0.586000000000000409,-0.599988131424995741
0.587000000000000410,-0.613785977792426829
0.588000000000000411,-0.627367390383345547
0.589000000000000412,-0.640730181387089592
0.590000000000000413,-0.653872299005309188
0.591000000000000414,-0.666791824839732317
0.592000000000000415,-0.679486971292791120
0.593000000000000416,-0.691956078982120526
0.594000000000000417,-0.704197614169834507
0.595000000000000417,-0.716210166207424948
0.596000000000000418,-0.727992444997213717
0.597000000000000419,-0.739543278471055610
0.598000000000000420,-0.750861610087143250
0.599000000000000421,-0.761946496345571878
0.600000000000000422,-0.772797104323410977
0.601000000000000423,-0.783412709229872828
0.602000000000000424,-0.793792691982248888
0.603000000000000425,-0.803936536803181001
0.604000000000000425,-0.813843828839788785
0.605000000000000426,-0.823514251805211317
0.606000000000000427,-0.832947585643032395
0.607000000000000428,-0.842143704215032818
0.608000000000000429,-0.851102573012729957
0.609000000000000430,-0.859824246893053479
0.610000000000000431,-0.868308867838587295
0.611000000000000432,-0.876556662742660642
