# AlFCC111UCD_TRPSCA-AC
# h[nm],U(h)[kJ/mol]
0.149999999999999994,65.619273195591759418
0.150999999999999995,60.821602407369539378
0.151999999999999996,56.578558685828696184
0.152999999999999997,52.502343793505346525
0.153999999999999998,48.466872651798091454
0.154999999999999999,44.461685466660163968
0.156000000000000000,40.515916588278138022
0.157000000000000001,36.662496853994227308
0.158000000000000002,32.924326265490776677
0.159000000000000002,29.311552193189516657
0.160000000000000003,25.823738306223070538
0.161000000000000004,22.453566042354673016
0.162000000000000005,19.190413579981203895
0.163000000000000006,16.023131659824080941
0.164000000000000007,12.941859880480867773
0.165000000000000008,9.938981561470672688
0.166000000000000009,7.009414602517492376
0.167000000000000010,4.150451320539391808
0.168000000000000010,1.361335146150834063
0.169000000000000011,-1.357278649778381752
0.170000000000000012,-4.003873668681477760
0.171000000000000013,-6.576567830089667055
0.172000000000000014,-9.073517195748026509
0.173000000000000015,-11.493214307585841283
0.174000000000000016,-13.834682570403050050
0.175000000000000017,-16.097577757504133444
0.176000000000000018,-18.282212764526526882
0.177000000000000018,-20.389523531124616795
0.178000000000000019,-22.420993649841371109
0.179000000000000020,-24.378553428530807423
0.180000000000000021,-26.264466702580619994
0.181000000000000022,-28.081215960936305009
0.182000000000000023,-29.831393662280515144
0.183000000000000024,-31.517605165422899915
0.184000000000000025,-33.142386584915030312
0.185000000000000026,-34.708139150893600799
0.186000000000000026,-36.217080300750424726
0.187000000000000027,-37.671210732288372469
0.188000000000000028,-39.072295961266917175
0.189000000000000029,-40.421860501553183553
0.190000000000000030,-41.721192573249538782
0.191000000000000031,-42.971357195523538053
0.192000000000000032,-44.173215593557202396
0.193000000000000033,-45.327449006070970938
0.194000000000000034,-46.434585190479729988
0.195000000000000034,-47.495026162173054729
0.196000000000000035,-48.509075953498168587
0.197000000000000036,-49.476967422504301908
0.198000000000000037,-50.398887371308056515
0.199000000000000038,-51.274999442458501164
0.200000000000000039,-52.105464445099073600
0.201000000000000040,-52.890457919390392760
0.202000000000000041,-53.630184877547129929
0.203000000000000042,-54.324891764100087244
0.204000000000000042,-54.974875758560600048
0.205000000000000043,-55.580491602958488784
0.206000000000000044,-56.142156177433392372
0.207000000000000045,-56.660351071916558396
0.208000000000000046,-57.135623413639336832
0.209000000000000047,-57.568585211269592605
0.210000000000000048,-57.959911469221445657
0.211000000000000049,-58.310337312173643909
0.212000000000000050,-58.620654341866824666
0.213000000000000050,-58.891706427361590670
0.214000000000000051,-59.124385107413807816
0.215000000000000052,-59.319624760496182603
0.216000000000000053,-59.478397675097156139
0.217000000000000054,-59.601709130889773292
0.218000000000000055,-59.690592580651426147
0.219000000000000056,-59.746105003750244578
0.220000000000000057,-59.769322484802749784
0.221000000000000058,-59.761336055843671033
0.222000000000000058,-59.723247827068178140
0.223000000000000059,-59.656167419861120038
0.224000000000000060,-59.561208706337495755
0.225000000000000061,-59.439486851864991479
0.226000000000000062,-59.292115650877647681
0.227000000000000063,-59.120205141568305862
0.228000000000000064,-58.924859481602958056
0.229000000000000065,-58.707175064669911535
0.230000000000000066,-58.468238856302605200
0.231000000000000066,-58.209126926847680750
0.232000000000000067,-57.930903159546048187
0.233000000000000068,-57.634618112325107120
0.234000000000000069,-57.321308012950566990
0.235000000000000070,-56.991993868545556268
0.236000000000000071,-56.647680672068588592
0.237000000000000072,-56.289356690065247335
0.238000000000000073,-55.917992817806045025
0.239000000000000073,-55.534541989739054202
0.240000000000000074,-55.139938634971642273
0.241000000000000075,-54.735098169217543784
0.242000000000000076,-54.320916516271026353
0.243000000000000077,-53.898269653581415639
0.244000000000000078,-53.468013177881445586
0.245000000000000079,-53.030981888062648011
0.246000000000000080,-52.587989383587476766
0.247000000000000081,-52.139827677677850204
0.248000000000000081,-51.687266825327199626
0.249000000000000082,-51.231054566853153176
0.250000000000000111,-50.771915988246846041
0.251000000000000112,-50.310553199990593498
0.252000000000000113,-49.847645036320933798
0.253000000000000114,-49.383846777113710402
0.254000000000000115,-48.919789894678650910
0.255000000000000115,-48.456081827778078264
0.256000000000000116,-47.993305785142915454
0.257000000000000117,-47.532020580655760966
0.258000000000000118,-47.072760502217711576
0.259000000000000119,-46.616035216121474605
0.260000000000000120,-46.162329708526200989
0.261000000000000121,-45.712104265377462298
0.262000000000000122,-45.265794491847451297
0.263000000000000123,-44.823811372090560212
0.264000000000000123,-44.386541369825010861
0.265000000000000124,-43.954346569966432412
0.266000000000000125,-43.527564861260572115
0.267000000000000126,-43.106510159589909392
0.268000000000000127,-42.691472671370341629
0.269000000000000128,-42.282719196208290668
0.270000000000000129,-41.880493467760018689
0.271000000000000130,-41.485016531523868366
0.272000000000000131,-41.096487158104551440
0.273000000000000131,-40.715082290316786384
0.274000000000000132,-40.340957522343927621
0.275000000000000133,-39.974247609036851259
0.276000000000000134,-39.615067003326984718
0.277000000000000135,-39.263510419637498217
0.278000000000000136,-38.919653421104598578
0.279000000000000137,-38.583553028368598348
0.280000000000000138,-38.255248347659630781
0.281000000000000139,-37.934761215883952445
0.282000000000000139,-37.622096860415382480
0.283000000000000140,-37.317244571307369938
0.284000000000000141,-37.020178383667598609
0.285000000000000142,-36.730857767974327999
0.286000000000000143,-36.449228326162803171
0.287000000000000144,-36.175222491368479893
0.288000000000000145,-35.908760229281945442
0.289000000000000146,-35.649749739144745320
0.290000000000000147,-35.398088152497869885
0.291000000000000147,-35.153662227881284252
0.292000000000000148,-34.916349039774928542
0.293000000000000149,-34.686016660166970382
0.294000000000000150,-34.462524831232911993
0.295000000000000151,-34.245725627709710182
0.296000000000000152,-34.035464107649197274
0.297000000000000153,-33.831578950337970468
0.298000000000000154,-33.633903080270847852
0.299000000000000155,-33.442264276166852710
0.300000000000000155,-33.256485764115005566
0.301000000000000156,-33.076386794035343542
0.302000000000000157,-32.901783198735380154
0.303000000000000158,-32.732487934935562635
0.304000000000000159,-32.568311605726663061
0.305000000000000160,-32.409062964009137886
0.306000000000000161,-32.254549396547730566
0.307000000000000162,-32.104577388354584855
0.308000000000000163,-31.958952967190175087
0.309000000000000163,-31.817482128044002110
0.310000000000000164,-31.679971237524995331
0.311000000000000165,-31.546227418156782107
0.312000000000000166,-31.416058912633083366
0.313000000000000167,-31.289275428145536750
0.314000000000000168,-31.165688460948494765
0.315000000000000169,-31.045111601374912880
0.316000000000000170,-30.927360819561830141
0.317000000000000171,-30.812254732185785144
0.318000000000000171,-30.699614850545497546
0.319000000000000172,-30.589265810364274500
0.320000000000000173,-30.481035583713953940
0.321000000000000174,-30.374755673490891894
0.322000000000000175,-30.270261290897565232
0.323000000000000176,-30.167391516405196228
0.324000000000000177,-30.065989444690494281
0.325000000000000178,-29.965902314055465894
0.326000000000000179,-29.866981620851483115
0.327000000000000179,-29.769083219439533394
0.328000000000000180,-29.672067408226119767
0.329000000000000181,-29.575799002320184883
0.330000000000000182,-29.480147393359779073
0.331000000000000183,-29.384986597059175040
0.332000000000000184,-29.290195289026591752
0.333000000000000185,-29.195656829401269050
0.334000000000000186,-29.101259276854726465
0.335000000000000187,-29.006895392496808483
0.336000000000000187,-28.912462634220652546
0.337000000000000188,-28.817863142013322886
0.338000000000000189,-28.723003714750937831
0.339000000000000190,-28.627795778987206177
0.340000000000000191,-28.532155350234376101
0.341000000000000192,-28.436002987224856753
0.342000000000000193,-28.339263739629394934
0.343000000000000194,-28.241867089696210513
0.344000000000000195,-28.143746888262125339
0.345000000000000195,-28.044841285574058531
0.346000000000000196,-27.945092657345174558
0.347000000000000197,-27.844447526456633568
0.348000000000000198,-27.742856480701465927
0.349000000000000199,-27.640274086953105837
0.350000000000000200,-27.536658802126702028
0.351000000000000201,-27.431972881287055799
0.352000000000000202,-27.326182283242406612
0.353000000000000203,-27.219256573949387246
0.354000000000000203,-27.111168828039808432
0.355000000000000204,-27.001895528765874843
0.356000000000000205,-26.891416466646823835
0.357000000000000206,-26.779714637085685780
0.358000000000000207,-26.666776137211435582
0.359000000000000208,-26.552590062188677678
0.360000000000000209,-26.437148401223726779
0.361000000000000210,-26.320445933482972123
0.362000000000000210,-26.202480124127237815
0.363000000000000211,-26.083251020653342778
0.364000000000000212,-25.962761149722467735
0.365000000000000213,-25.841015414642868109
0.366000000000000214,-25.718020993663980533
0.367000000000000215,-25.593787239227282271
0.368000000000000216,-25.468325578309581658
0.369000000000000217,-25.341649413983333261
0.370000000000000218,-25.213774028309714481
0.371000000000000218,-25.084716486669993429
0.372000000000000219,-24.954495543631985299
0.373000000000000220,-24.823131550439704540
0.374000000000000221,-24.690646364205683483
0.375000000000000222,-24.557063258877811052
0.376000000000000223,-24.422406838044295796
0.377000000000000224,-24.286702949633721005
0.378000000000000225,-24.149978602559610152
0.379000000000000226,-24.012261885352497615
0.380000000000000226,-23.873581886816321429
0.381000000000000227,-23.733968618739453404
0.382000000000000228,-23.593452940685772035
0.383000000000000229,-23.452066486884980634
0.384000000000000230,-23.309841595236655110
0.385000000000000231,-23.166811238438079101
0.386000000000000232,-23.023008957240566730
0.387000000000000233,-22.878468795835413374
0.388000000000000234,-22.733225239366404935
0.389000000000000234,-22.587313153562092793
0.390000000000000235,-22.440767726477425015
0.391000000000000236,-22.293624412331457307
0.392000000000000237,-22.145918877424286109
0.393000000000000238,-21.997686948114377969
0.394000000000000239,-21.848964560833795900
0.395000000000000240,-21.699787714117537263
0.396000000000000241,-21.550192422620398247
0.397000000000000242,-21.400214673092676776
0.398000000000000242,-21.249890382284945645
0.399000000000000243,-21.099255356749530677
0.400000000000000244,-20.948345254505525759
0.401000000000000245,-20.797195548532755538
0.402000000000000246,-20.645841492058632838
0.403000000000000247,-20.494318085600962576
0.404000000000000248,-20.342660045729168417
0.405000000000000249,-20.190901775504983107
0.406000000000000250,-20.039077336563739351
0.407000000000000250,-19.887220422796136887
0.408000000000000251,-19.735364335590460882
0.409000000000000252,-19.583541960594736508
0.410000000000000253,-19.431785745957853351
0.411000000000000254,-19.280127682008817658
0.412000000000000255,-19.128599282333148324
0.413000000000000256,-18.977231566205453817
0.414000000000000257,-18.826055042336978573
0.415000000000000258,-18.675099693897788455
0.416000000000000258,-18.524394964772707084
0.417000000000000259,-18.373969747010853837
0.418000000000000260,-18.223852369428865217
0.419000000000000261,-18.074070587328087356
0.420000000000000262,-17.924651573286709549
0.421000000000000263,-17.775621908988192388
0.422000000000000264,-17.627007578047603431
0.423000000000000265,-17.478833959798386388
0.424000000000000266,-17.331125824002555191
0.425000000000000266,-17.183907326447613428
0.426000000000000267,-17.037202005394572524
0.427000000000000268,-16.891032778841736928
0.428000000000000269,-16.745421942569812757
0.429000000000000270,-16.600391168934521602
0.430000000000000271,-16.455961506373430581
0.431000000000000272,-16.312153379594835911
0.432000000000000273,-16.168986590416722038
0.433000000000000274,-16.026480319225136384
0.434000000000000274,-15.884653127021470809
0.435000000000000275,-15.743522958029412706
0.436000000000000276,-15.603107142832817189
0.437000000000000277,-15.463422402016377077
0.438000000000000278,-15.324484850282052761
0.439000000000000279,-15.186310001014849291
0.440000000000000280,-15.048912771272009437
0.441000000000000281,-14.912307487170895826
0.442000000000000282,-14.776507889651256278
0.443000000000000282,-14.641527140588399547
0.444000000000000283,-14.507377829234570754
0.445000000000000284,-14.374071978966492580
0.446000000000000285,-14.241621054317709749
0.447000000000000286,-14.110035968275402851
0.448000000000000287,-13.979327089821321550
0.449000000000000288,-13.849504251698153467
0.450000000000000289,-13.720576758382398097
0.451000000000000290,-13.592553394246118970
0.452000000000000290,-13.465442431890275898
0.453000000000000291,-13.339251640633104756
0.454000000000000292,-13.213988295137664153
0.455000000000000293,-13.089659184163130234
0.456000000000000294,-12.966270619425293020
0.457000000000000295,-12.843828444552027435
0.458000000000000296,-12.722338044120268918
0.459000000000000297,-12.601804352761615036
0.460000000000000298,-12.482231864323956927
0.461000000000000298,-12.363624641077512578
0.462000000000000299,-12.245986322953822167
0.463000000000000300,-12.129320136806857278
0.464000000000000301,-12.013628905686017490
0.465000000000000302,-11.898915058111194654
0.466000000000000303,-11.785180637340491927
0.467000000000000304,-11.672427310621724672
0.468000000000000305,-11.560656378419357893
0.469000000000000306,-11.449868783608756928
0.470000000000000306,-11.340065120630319129
0.471000000000000307,-11.231245644596114630
0.472000000000000308,-11.123410280342541867
0.473000000000000309,-11.016558631422354253
0.474000000000000310,-10.910689989030220914
0.475000000000000311,-10.805803340856023453
0.476000000000000312,-10.701897379860882964
0.477000000000000313,-10.598970512970476321
0.478000000000000314,-10.497020869681463751
0.479000000000000314,-10.396046310576480209
0.480000000000000315,-10.296044435743620937
0.481000000000000316,-10.197012593096882682
0.482000000000000317,-10.098947886593922618
0.483000000000000318,-10.001847184348079622
0.484000000000000319,-9.905707126631638104
0.485000000000000320,-9.810524133767826171
0.486000000000000321,-9.716294413908917349
0.487000000000000322,-9.623013970698425013
0.488000000000000322,-9.530678610815236595
0.489000000000000323,-9.439283951398147465
0.490000000000000324,-9.348825427348998574
0.491000000000000325,-9.259298298513289893
0.492000000000000326,-9.170697656736804149
0.493000000000000327,-9.083018432797612007
0.494000000000000328,-8.996255403212261470
0.495000000000000329,-8.910403196915783752
0.496000000000000330,-8.825456301814785576
0.497000000000000330,-8.741409071213412929
0.498000000000000331,-8.658255730111912740
0.499000000000000332,-8.575990381377689431
0.500000000000000333,-8.494607011788920303
0.501000000000000334,-8.414099497950891404
0.502000000000000335,-8.334461612085279469
0.503000000000000336,-8.255687027692895086
0.504000000000000337,-8.177769325090199715
0.505000000000000338,-8.100701996820303563
0.506000000000000338,-8.024478452939089124
0.507000000000000339,-7.949092026177180692
0.508000000000000340,-7.874535976978657814
0.509000000000000341,-7.800803498417418602
0.510000000000000342,-7.727887720992159259
0.511000000000000343,-7.655781717301013423
0.512000000000000344,-7.584478506597049474
0.513000000000000345,-7.513971059225694304
0.514000000000000346,-7.444252300945407796
0.515000000000000346,-7.375315117132830167
0.516000000000000347,-7.307152356873743315
0.517000000000000348,-7.239756836941277918
0.518000000000000349,-7.173121345662612391
0.519000000000000350,-7.107238646675817506
0.520000000000000351,-7.042101482578187799
0.521000000000000352,-6.977702578467587458
0.522000000000000353,-6.914034645378388966
0.523000000000000353,-6.851090383613495760
0.524000000000000354,-6.788862485974119565
0.525000000000000355,-6.727343640888800103
0.526000000000000356,-6.666526535443371593
0.527000000000000357,-6.606403858313479205
0.528000000000000358,-6.546968302601233525
0.529000000000000359,-6.488212568577715444
0.530000000000000360,-6.430129366332986152
0.531000000000000361,-6.372711418335201827
0.532000000000000361,-6.315951461900557007
0.533000000000000362,-6.259842251575697958
0.534000000000000363,-6.204376561434303383
0.535000000000000364,-6.149547187289414296
0.536000000000000365,-6.095346948823289424
0.537000000000000366,-6.041768691636364430
0.538000000000000367,-5.988805289216986516
0.539000000000000368,-5.936449644833593275
0.540000000000000369,-5.884694693350907890
0.541000000000000369,-5.833533402971879056
0.542000000000000370,-5.782958776906905740
0.543000000000000371,-5.732963854971946382
0.544000000000000372,-5.683541715117188531
0.545000000000000373,-5.634685474887763057
0.546000000000000374,-5.586388292818147860
0.547000000000000375,-5.538643369761716784
0.548000000000000376,-5.491443950157131937
0.549000000000000377,-5.444783323232937455
0.550000000000000377,-5.398654824151897458
0.551000000000000378,-5.353051835096668931
0.552000000000000379,-5.307967786298163126
0.553000000000000380,-5.263396157008065401
0.554000000000000381,-5.219330476417002096
0.555000000000000382,-5.175764324519748882
0.556000000000000383,-5.132691332928794203
0.557000000000000384,-5.090105185637775698
0.558000000000000385,-5.047999619736027732
0.559000000000000385,-5.006368426075643363
0.560000000000000386,-4.965205449892303058
0.561000000000000387,-4.924504591381239749
0.562000000000000388,-4.884259806229595213
0.563000000000000389,-4.844465106106325969
0.564000000000000390,-4.805114559111052230
0.565000000000000391,-4.766202290182929957
0.566000000000000392,-4.727722481470800098
0.567000000000000393,-4.689669372665784763
0.568000000000000393,-4.652037261297430781
0.569000000000000394,-4.614820502994577467
0.570000000000000395,-4.578013511712066830
0.571000000000000396,-4.541610759924291862
0.572000000000000397,-4.505606778786786393
0.573000000000000398,-4.469996158266742903
0.574000000000000399,-4.434773547243643144
0.575000000000000400,-4.399933653580870185
0.576000000000000401,-4.365471244169346399
0.577000000000000401,-4.331381144944174366
0.578000000000000402,-4.297658240875184887
0.579000000000000403,-4.264297475932310455
0.580000000000000404,-4.231293853026733665
0.581000000000000405,-4.198642433928672091
0.582000000000000406,-4.166338339162583004
0.583000000000000407,-4.134376747880805780
0.584000000000000408,-4.102752897716271718
0.585000000000000409,-4.071462084615236066
0.586000000000000409,-4.040499662650718804
0.587000000000000410,-4.009861043817505966
0.588000000000000411,-3.979541697809386935
0.589000000000000412,-3.949537151779403565
0.590000000000000413,-3.919842990083812317
0.591000000000000414,-3.890454854010477526
0.592000000000000415,-3.861368441492325054
0.593000000000000416,-3.832579506806566005
0.594000000000000417,-3.804083860260325078
0.595000000000000417,-3.775877367863304634
0.596000000000000418,-3.747955950988048901
0.597000000000000419,-3.720315586018521081
0.598000000000000420,-3.692952303987409923
0.599000000000000421,-3.665862190202913151
0.600000000000000422,-3.639041383865385448
0.601000000000000423,-3.612486077674499363
0.602000000000000424,-3.586192517427386317
0.603000000000000425,-3.560157001608266203
0.604000000000000425,-3.534375880970078043
0.605000000000000426,-3.508845558108586005
