# AlFCC111UCD_HIDSCA-JS
# h[nm],U(h)[kJ/mol]
0.149999999999999994,92.611506626295067690
0.150999999999999995,88.581460857081282256
0.151999999999999996,84.966921173490888464
0.152999999999999997,81.465183776088863965
0.153999999999999998,78.012198990639689100
0.154999999999999999,74.627621564554601719
0.156000000000000000,71.344387462927826959
0.157000000000000001,68.182747148623121802
0.158000000000000002,65.145675137039887659
0.159000000000000002,62.222971770557293780
0.160000000000000003,59.397561241153184142
0.161000000000000004,56.651039033015550217
0.162000000000000005,53.967452264639383941
0.163000000000000006,51.335261762839934363
0.164000000000000007,48.747847002958138773
0.165000000000000008,46.203028118561746851
0.166000000000000009,43.702044963960560153
0.167000000000000010,41.248339097800460706
0.168000000000000010,38.846377908556419811
0.169000000000000011,36.500664152011978558
0.170000000000000012,34.214998155655486300
0.171000000000000013,31.992005454875179993
0.172000000000000014,29.832907460020702928
0.173000000000000015,27.737493183417207376
0.174000000000000016,25.704242081452115087
0.175000000000000017,23.730548054131713087
0.176000000000000018,21.812999591213113604
0.177000000000000018,19.947678650707590720
0.178000000000000019,18.130449435529847335
0.179000000000000020,16.357216675099174097
0.180000000000000021,14.624140630793476703
0.181000000000000022,12.927802462225127300
0.182000000000000023,11.265318681732342299
0.183000000000000024,9.634407208697764347
0.184000000000000025,8.033410130375061797
0.185000000000000026,6.461279850283162318
0.186000000000000026,4.917536047383689990
0.187000000000000027,3.402200966547959560
0.188000000000000028,1.915720186287552140
0.189000000000000029,0.458875314772421383
0.190000000000000030,-0.967305823601741777
0.191000000000000031,-2.361636929908853766
0.192000000000000032,-3.722855314964437667
0.193000000000000033,-5.049695693611738534
0.194000000000000034,-6.340953928426168673
0.195000000000000034,-7.595539729165477816
0.196000000000000035,-8.812517964104866763
0.197000000000000036,-9.991138769114188634
0.198000000000000037,-11.130857053613127050
0.199000000000000038,-12.231342307639060607
0.200000000000000039,-13.292479822362491149
0.201000000000000040,-14.314364560260589343
0.202000000000000041,-15.297288964150883572
0.203000000000000042,-16.241725989544487874
0.204000000000000042,-17.148308594732053933
0.205000000000000043,-18.017806839013360332
0.206000000000000044,-18.851103631602274646
0.207000000000000045,-19.649170050674442223
0.208000000000000046,-20.413041021096447025
0.209000000000000047,-21.143792006563884911
0.210000000000000048,-21.842517241927641436
0.211000000000000049,-22.510309908024236591
0.212000000000000050,-23.148244536985245645
0.213000000000000050,-23.757361832555300651
0.214000000000000051,-24.338655998465391406
0.215000000000000052,-24.893064588849462382
0.216000000000000053,-25.421460828051287706
0.217000000000000054,-25.924648292566427443
0.218000000000000055,-26.403357804643899698
0.219000000000000056,-26.858246354379343046
0.220000000000000057,-27.289897843988207171
0.221000000000000058,-27.698825433289623987
0.222000000000000058,-28.085475258188562719
0.223000000000000059,-28.450231293029798252
0.224000000000000060,-28.793421132086429282
0.225000000000000061,-29.115322474153096266
0.226000000000000062,-29.416170106335748358
0.227000000000000063,-29.696163197840672154
0.228000000000000064,-29.955472731125176722
0.229000000000000065,-30.194248915532575950
0.230000000000000066,-30.412628446927605808
0.231000000000000066,-30.610741495398997358
0.232000000000000067,-30.788718321398725664
0.233000000000000068,-30.946695438419112634
0.234000000000000069,-31.084821257205980771
0.235000000000000070,-31.203261162372871951
0.236000000000000071,-31.302201986967947533
0.237000000000000072,-31.381855863959678743
0.238000000000000073,-31.442463445686087198
0.239000000000000073,-31.484296493036687536
0.240000000000000074,-31.507659845512741015
0.241000000000000075,-31.512892791367658418
0.242000000000000076,-31.500369863816956695
0.243000000000000077,-31.470501094890465765
0.244000000000000078,-31.423731762952144209
0.245000000000000079,-31.360541673318984124
0.246000000000000080,-31.281444013858504150
0.247000000000000081,-31.186983829024491399
0.248000000000000081,-31.077736156593243066
0.249000000000000082,-30.954303871479556420
0.250000000000000111,-30.817315280529122390
0.251000000000000112,-30.667421511185949612
0.252000000000000113,-30.505293735501396668
0.253000000000000114,-30.331620269156342573
0.254000000000000115,-30.147103583084522427
0.255000000000000115,-29.952457262971115881
0.256000000000000116,-29.748402949419194385
0.257000000000000117,-29.535667288977009548
0.258000000000000118,-29.314978923548324019
0.259000000000000119,-29.087065543009021695
0.260000000000000120,-28.852651023159619825
0.261000000000000121,-28.612452668488153051
0.262000000000000122,-28.367178576625935449
0.263000000000000123,-28.117525138873951107
0.264000000000000123,-27.864174688775740663
0.265000000000000124,-27.607793308430274237
0.266000000000000125,-27.349028800085772417
0.267000000000000126,-27.088508828539932694
0.268000000000000127,-26.826839238000776078
0.269000000000000128,-26.564602545337759665
0.270000000000000129,-26.302356610075065646
0.271000000000000130,-26.040633480049184101
0.272000000000000131,-25.779938410367883250
0.273000000000000131,-25.520749052163370862
0.274000000000000132,-25.263514806625799736
0.275000000000000133,-25.008656338927941931
0.276000000000000134,-24.756565245901171579
0.277000000000000135,-24.507603870692403092
0.278000000000000136,-24.262105257111215906
0.279000000000000137,-24.020373235961638869
0.280000000000000138,-23.782682635335323340
0.281000000000000139,-23.549279606613687577
0.282000000000000139,-23.320382057781312568
0.283000000000000140,-23.096180185580742261
0.284000000000000141,-22.876837098035920803
0.285000000000000142,-22.662489518928659038
0.286000000000000143,-22.453248565923857427
0.287000000000000144,-22.249200594198676129
0.288000000000000145,-22.050408097632033133
0.289000000000000146,-21.856910659847660128
0.290000000000000147,-21.668725947671912735
0.291000000000000147,-21.485850739860698155
0.292000000000000148,-21.308261984264380118
0.293000000000000149,-21.135917876930314208
0.294000000000000150,-20.968758956986171427
0.295000000000000151,-20.806709211499942569
0.296000000000000152,-20.649677184870363078
0.297000000000000153,-20.497557087662979569
0.298000000000000154,-20.350229900167200014
0.299000000000000155,-20.207564466308923556
0.300000000000000155,-20.069418573906865788
0.301000000000000156,-19.935640017608413643
0.302000000000000157,-19.806067641180369776
0.303000000000000158,-19.680532356160245655
0.304000000000000159,-19.558858134193386036
0.305000000000000160,-19.440862970689064326
0.306000000000000161,-19.326359817724600987
0.307000000000000162,-19.215157484409399302
0.308000000000000163,-19.107061503189669338
0.309000000000000163,-19.001874960830527073
0.310000000000000164,-18.899399293053384952
0.311000000000000165,-18.799435042033820764
0.312000000000000166,-18.701782576178551665
0.313000000000000167,-18.606242771799170299
0.314000000000000168,-18.512617656485552686
0.315000000000000169,-18.420711014153575036
0.316000000000000170,-18.330328951900188628
0.317000000000000171,-18.241280428944104841
0.318000000000000171,-18.153377748062887065
0.319000000000000172,-18.066437010058184143
0.320000000000000173,-17.980278531889247517
0.321000000000000174,-17.894727229212456621
0.322000000000000175,-17.809612964151416037
0.323000000000000176,-17.724770859198727635
0.324000000000000177,-17.640041578216980156
0.325000000000000178,-17.555271575564283637
0.326000000000000179,-17.470313314418525863
0.327000000000000179,-17.385025455414663043
0.328000000000000180,-17.299273016742827025
0.329000000000000181,-17.212927506880543405
0.330000000000000182,-17.125867031151010167
0.331000000000000183,-17.037976373313011180
0.332000000000000184,-16.949147053394273854
0.333000000000000185,-16.859277362982449944
0.334000000000000186,-16.768272379184541165
0.335000000000000187,-16.676043958458073746
0.336000000000000187,-16.582510711506063927
0.337000000000000188,-16.487597960412124110
0.338000000000000189,-16.391237679174050612
0.339000000000000190,-16.293368418772665507
0.340000000000000191,-16.193935217888320466
0.341000000000000192,-16.092889500351930110
0.342000000000000193,-15.990188960388232786
0.343000000000000194,-15.885797436679641947
0.344000000000000195,-15.779684776247094646
0.345000000000000195,-15.671826689112020148
0.346000000000000196,-15.562204594669534430
0.347000000000000197,-15.450805460668664892
0.348000000000000198,-15.337621635660493524
0.349000000000000199,-15.222650675739350490
0.350000000000000200,-15.105895166366988036
0.351000000000000201,-14.987362540033405622
0.352000000000000202,-14.867064890472747152
0.353000000000000203,-14.745018784116997068
0.354000000000000203,-14.621245069434973374
0.355000000000000204,-14.495768684769467782
0.356000000000000205,-14.368618465250960980
0.357000000000000206,-14.239826949332831774
0.358000000000000207,-14.109430185459549634
0.359000000000000208,-13.977467539347609105
0.360000000000000209,-13.843981502326798250
0.361000000000000210,-13.709017501159149077
0.362000000000000210,-13.572623709722737573
0.363000000000000211,-13.434850862918802150
0.364000000000000212,-13.295752073132527826
0.365000000000000213,-13.155382649550670493
0.366000000000000214,-13.013799920613351446
0.367000000000000215,-12.871063059851987731
0.368000000000000216,-12.727232915341394559
0.369000000000000217,-12.582371842970800913
0.370000000000000218,-12.436543543716560123
0.371000000000000218,-12.289812905077990735
0.372000000000000219,-12.142245846817701249
0.373000000000000220,-11.993909171128642299
0.374000000000000221,-11.844870417331662793
0.375000000000000222,-11.695197721190222495
0.376000000000000223,-11.544959678912414702
0.377000000000000224,-11.394225215895101400
0.378000000000000225,-11.243063460250164454
0.379000000000000226,-11.091543621139347664
0.380000000000000226,-10.939734871931234395
0.381000000000000227,-10.787706238181597129
0.382000000000000228,-10.635526490427494650
0.383000000000000229,-10.483264041774638997
0.384000000000000230,-10.330986850247759534
0.385000000000000231,-10.178762325865047700
0.386000000000000232,-10.026657242388822056
0.387000000000000233,-9.874737653697318152
0.388000000000000234,-9.723068814715107422
0.389000000000000234,-9.571715106833561748
0.390000000000000235,-9.420739967746333932
0.391000000000000236,-9.270205825620283946
0.392000000000000237,-9.120174037516656895
0.393000000000000238,-8.970704831973813853
0.394000000000000239,-8.821857255658448693
0.395000000000000240,-8.673689123989209548
0.396000000000000241,-8.526256975633746293
0.397000000000000242,-8.379616030777453872
0.398000000000000242,-8.233820153060566582
0.399000000000000243,-8.088921815078043309
0.400000000000000244,-7.944972067335539734
0.401000000000000245,-7.802020510553939303
0.402000000000000246,-7.660115271213745025
0.403000000000000247,-7.519302980230355260
0.404000000000000248,-7.379628754651347933
0.405000000000000249,-7.241136182266461496
0.406000000000000250,-7.103867309021711485
0.407000000000000250,-6.967862629129302654
0.408000000000000251,-6.833161077765842251
0.409000000000000252,-6.699800026252374252
0.410000000000000253,-6.567815279610468515
0.411000000000000254,-6.437241076390343153
0.412000000000000255,-6.308110090667895520
0.413000000000000256,-6.180453436109362819
0.414000000000000257,-6.054300672003706474
0.415000000000000258,-5.929679811164777270
0.416000000000000258,-5.806617329606964084
0.417000000000000259,-5.685138177899984768
0.418000000000000260,-5.565265794110593411
0.419000000000000261,-5.447022118240711919
0.420000000000000262,-5.330427608074058909
0.421000000000000263,-5.215501256345048020
0.422000000000000264,-5.102260609146241244
0.423000000000000265,-4.990721785492652884
0.424000000000000266,-4.880899497963731903
0.425000000000000266,-4.772807074345751133
0.426000000000000267,-4.666456480199950185
0.427000000000000268,-4.561858342283886536
0.428000000000000269,-4.459021972755809138
0.429000000000000270,-4.357955394094195078
0.430000000000000271,-4.258665364666752495
0.431000000000000272,-4.161157404885633682
0.432000000000000273,-4.065435823887713518
0.433000000000000274,-3.971503746681174896
0.434000000000000274,-3.879363141701666073
0.435000000000000275,-3.789014848723708972
0.436000000000000276,-3.700458607075076678
0.437000000000000277,-3.613693084103903885
0.438000000000000278,-3.528715903850636160
0.439000000000000279,-3.445523675878815251
0.440000000000000280,-3.364112024220690778
0.441000000000000281,-3.284475616395782005
0.442000000000000282,-3.206608192462410578
0.443000000000000282,-3.130502594064014321
0.444000000000000283,-3.056150793434130097
0.445000000000000284,-2.983543922325623043
0.446000000000000285,-2.912672300831397276
0.447000000000000286,-2.843525466065990326
0.448000000000000287,-2.776092200678532240
0.449000000000000288,-2.710360561169769422
0.450000000000000289,-2.646317905987058960
0.451000000000000290,-2.583950923372971609
0.452000000000000290,-2.523245658944622161
0.453000000000000291,-2.464187542982257728
0.454000000000000292,-2.406761417407161652
0.455000000000000293,-2.350951562430096065
0.456000000000000294,-2.296741722853130163
0.457000000000000295,-2.244115134008629830
0.458000000000000296,-2.193054547320787417
0.459000000000000297,-2.143542255475930691
0.460000000000000298,-2.095560117189245286
0.461000000000000298,-2.049089581556490014
0.462000000000000299,-2.004111711980510524
0.463000000000000300,-1.960607209663157047
0.464000000000000301,-1.918556436654447195
0.465000000000000302,-1.877939438451582177
0.466000000000000303,-1.838735966141401779
0.467000000000000304,-1.800925498080648612
0.468000000000000305,-1.764487261109460858
0.469000000000000306,-1.729400251293989665
0.470000000000000306,-1.695643254195058347
0.471000000000000307,-1.663194864660346939
0.472000000000000308,-1.632033506138407031
0.473000000000000309,-1.602137449513277856
0.474000000000000310,-1.573484831459314837
0.475000000000000311,-1.546053672316253014
0.476000000000000312,-1.519821893485266973
0.477000000000000313,-1.494767334347051779
0.478000000000000314,-1.470867768703795875
0.479000000000000314,-1.448100920747125375
0.480000000000000315,-1.426444480554619698
0.481000000000000316,-1.405876119118008027
0.482000000000000317,-1.386373502906432575
0.483000000000000318,-1.367914307968598697
0.484000000000000319,-1.350476233577948104
0.485000000000000320,-1.334037015425415751
0.486000000000000321,-1.318574438364448875
0.487000000000000322,-1.304066348713426304
0.488000000000000322,-1.290490666120790442
0.489000000000000323,-1.277825394998457709
0.490000000000000324,-1.266048635529298583
0.491000000000000325,-1.255138594254728845
0.492000000000000326,-1.245073594248514937
0.493000000000000327,-1.235832084883225379
0.494000000000000328,-1.227392651195814866
0.495000000000000329,-1.219734022858975919
0.496000000000000330,-1.212835082765054029
0.497000000000000330,-1.206674875229376109
0.498000000000000331,-1.201232613820034656
0.499000000000000332,-1.196487688821098239
0.500000000000000333,-1.192419674336452573
0.501000000000000334,-1.189008335041460196
0.502000000000000335,-1.186233632589614340
0.503000000000000336,-1.184075731681553112
0.504000000000000337,-1.182515005803647323
0.505000000000000338,-1.181532042643558267
0.506000000000000338,-1.181107649190037412
0.507000000000000339,-1.181222856524320131
0.508000000000000340,-1.181858924310448922
0.509000000000000341,-1.182997344991753907
0.510000000000000342,-1.184619847700880690
0.511000000000000343,-1.186708401890492537
0.512000000000000344,-1.189245220691953042
0.513000000000000345,-1.192212764009073611
0.514000000000000346,-1.195593741354108230
0.515000000000000346,-1.199371114433006369
0.516000000000000347,-1.203528099486933511
0.517000000000000348,-1.208048169397028415
0.518000000000000349,-1.212915055559203203
0.519000000000000350,-1.218112749535816608
0.520000000000000351,-1.223625504490968297
0.521000000000000352,-1.229437836415946395
0.522000000000000353,-1.235534525151494867
0.523000000000000353,-1.241900615213295200
0.524000000000000354,-1.248521416427051056
0.525000000000000355,-1.255382504379480402
0.526000000000000356,-1.262469720691380193
0.527000000000000357,-1.269769173118864058
0.528000000000000358,-1.277267235488807717
0.529000000000000359,-1.284950547474289939
0.530000000000000360,-1.292806014215990063
0.531000000000000361,-1.300820805795074975
0.532000000000000361,-1.308982356563276994
0.533000000000000362,-1.317278364335594976
0.534000000000000363,-1.325696789451035418
0.535000000000000364,-1.334225853706635823
0.536000000000000365,-1.342854039169977920
0.537000000000000366,-1.351570086875236720
0.538000000000000367,-1.360362995407747633
0.539000000000000368,-1.369222019381912903
0.540000000000000369,-1.378136667817249750
0.541000000000000369,-1.387096702417155880
0.542000000000000370,-1.396092135755028885
0.543000000000000371,-1.405113229372050521
0.544000000000000372,-1.414150491791105413
0.545000000000000373,-1.423194676450930229
0.546000000000000374,-1.432236779564729501
0.547000000000000375,-1.441268037907187605
0.548000000000000376,-1.450279926533890817
0.549000000000000377,-1.459264156436893334
0.550000000000000377,-1.468212672140195796
0.551000000000000378,-1.477117649238775865
0.552000000000000379,-1.485971491884637619
0.553000000000000380,-1.494766830223371867
0.554000000000000381,-1.503496517784524755
0.555000000000000382,-1.512153628829025154
0.556000000000000383,-1.520731455656820330
0.557000000000000384,-1.529223505877771894
0.558000000000000385,-1.537623499648790526
0.559000000000000385,-1.545925366880078311
0.560000000000000386,-1.554123244413248894
0.561000000000000387,-1.562211473174071052
0.562000000000000388,-1.570184595302440256
0.563000000000000389,-1.578037351262079557
0.564000000000000390,-1.585764676932469808
0.565000000000000391,-1.593361700685372417
0.566000000000000392,-1.600823740448219512
0.567000000000000393,-1.608146300756608138
0.568000000000000393,-1.615325069798025037
0.569000000000000394,-1.622355916448896762
0.570000000000000395,-1.629234887306921120
0.571000000000000396,-1.635958203720615289
0.572000000000000397,-1.642522258817966208
0.573000000000000398,-1.648923614535894755
0.574000000000000399,-1.655158998652324076
0.575000000000000400,-1.661225301822456313
0.576000000000000401,-1.667119574620845146
0.577000000000000401,-1.672839024590800916
0.578000000000000402,-1.678381013302600921
0.579000000000000403,-1.683743053421858038
0.580000000000000404,-1.688922805789431436
0.581000000000000405,-1.693918076514168591
0.582000000000000406,-1.698726814079645875
0.583000000000000407,-1.703347106466174710
0.584000000000000408,-1.707777178289107578
0.585000000000000409,-1.712015387954554768
0.586000000000000409,-1.716060224833531489
0.587000000000000410,-1.719910306455491922
0.588000000000000411,-1.723564375722167030
0.589000000000000412,-1.727021298142592531
0.590000000000000413,-1.730280059090139488
0.591000000000000414,-1.733339761082362429
0.592000000000000415,-1.736199621084352884
0.593000000000000416,-1.738858967836352409
0.594000000000000417,-1.741317239206258360
0.595000000000000417,-1.743573979567625498
0.596000000000000418,-1.745628837203777151
0.597000000000000419,-1.747481561738554401
0.598000000000000420,-1.749132001594192243
0.599000000000000421,-1.750580101476835848
0.600000000000000422,-1.751825899890090854
0.601000000000000423,-1.752869526677044876
0.602000000000000424,-1.753711200591117514
0.603000000000000425,-1.754351226896100568
0.604000000000000425,-1.754789994995659796
0.605000000000000426,-1.755027976092638609
0.606000000000000427,-1.755065720878375757
0.607000000000000428,-1.754903857252279931
0.608000000000000429,-1.754543088071875534
