# AlFCC111UCD_CS-173-AC
# h[nm],U(h)[kJ/mol]
0.200000000000000011,39.861231754486560419
0.201000000000000012,35.190544517815013137
0.202000000000000013,32.725889614749540613
0.203000000000000014,31.233144001927229283
0.204000000000000015,30.037109882198372190
0.205000000000000016,28.809529738132663823
0.206000000000000016,27.427069291264380979
0.207000000000000017,25.878556836965948662
0.208000000000000018,24.206397413108771133
0.209000000000000019,22.471278406874187539
0.210000000000000020,20.732395295831626214
0.211000000000000021,19.037717813412591283
0.212000000000000022,17.420491296979953688
0.213000000000000023,15.899380596389738329
0.214000000000000024,14.480532851171355802
0.215000000000000024,13.160450262333563742
0.216000000000000025,11.928992315078820852
0.217000000000000026,10.772119563003411002
0.218000000000000027,9.674186037457390697
0.219000000000000028,8.619712805670733502
0.220000000000000029,7.594651974052314181
0.221000000000000030,6.587193739597776876
0.222000000000000031,5.588189960090538477
0.223000000000000032,4.591274039669335671
0.224000000000000032,3.592754285388742197
0.225000000000000033,2.591350148555756849
0.226000000000000034,1.587830541030722520
0.227000000000000035,0.584602430613218926
0.228000000000000036,-0.414712750696203059
0.229000000000000037,-1.405687077472959512
0.230000000000000038,-2.383459133218818415
0.231000000000000039,-3.343059777762434237
0.232000000000000040,-4.279684131944093473
0.233000000000000040,-5.188907685648322499
0.234000000000000041,-6.066847764734096593
0.235000000000000042,-6.910273956689088948
0.236000000000000043,-7.716672655289817051
0.237000000000000044,-8.484271794601944805
0.238000000000000045,-9.212032241837826874
0.239000000000000046,-9.899612329599035476
0.240000000000000047,-10.547311735801612187
0.241000000000000048,-11.156000451639716431
0.242000000000000048,-11.727037985581464596
0.243000000000000049,-12.262187291284559976
0.244000000000000050,-12.763527223321506909
0.245000000000000051,-13.233366649616243649
0.246000000000000052,-13.674162707209680079
0.247000000000000053,-14.088445094548315950
0.248000000000000054,-14.478747758997371875
0.249000000000000055,-14.847548868001265276
0.250000000000000056,-15.197219547854256660
0.251000000000000056,-15.529981534254815756
0.252000000000000057,-15.847873600583991305
0.253000000000000058,-16.152726408708112160
0.254000000000000059,-16.446145257764793968
0.255000000000000060,-16.729500083109794417
0.256000000000000061,-17.003921974508322990
0.257000000000000062,-17.270305433966047559
0.258000000000000063,-17.529315573785748228
0.259000000000000064,-17.781399459346584280
0.260000000000000064,-18.026800824015378311
0.261000000000000065,-18.265577421269387770
0.262000000000000066,-18.497620327790034622
0.263000000000000067,-18.722674567711301563
0.264000000000000068,-18.940360489581703263
0.265000000000000069,-19.150195391571802617
0.266000000000000070,-19.351614955082020231
0.267000000000000071,-19.543994110603161829
0.268000000000000071,-19.726667021206729657
0.269000000000000072,-19.898945927441342718
0.270000000000000073,-20.060138651983930203
0.271000000000000074,-20.209564612657910487
0.272000000000000075,-20.346569238089735165
0.273000000000000076,-20.470536721183560047
0.274000000000000077,-20.580901081738094405
0.275000000000000078,-20.677155540991506655
0.276000000000000079,-20.758860237825285111
0.277000000000000079,-20.825648339011259225
0.278000000000000080,-20.877230614514889595
0.279000000000000081,-20.913398563773384353
0.280000000000000082,-20.934026190365383258
0.281000000000000083,-20.939070530905883771
0.282000000000000084,-20.928571049662799908
0.283000000000000085,-20.902648013620698464
0.284000000000000086,-20.861499963822090820
0.285000000000000087,-20.805400398093588876
0.286000000000000087,-20.734693777990475638
0.287000000000000088,-20.649790969228131843
0.288000000000000089,-20.551164220249635406
0.289000000000000090,-20.439341778124681781
0.290000000000000091,-20.314902234880040766
0.291000000000000092,-20.178468690803534002
0.292000000000000093,-20.030702814395834110
0.293000000000000094,-19.872298871604776593
0.294000000000000095,-19.703977789882571869
0.295000000000000095,-19.526481315558552154
0.296000000000000096,-19.340566316104748523
0.297000000000000097,-19.146999272158549132
0.298000000000000098,-18.946550997714290077
0.299000000000000099,-18.739991620749414380
0.300000000000000100,-18.528085850745650731
0.301000000000000101,-18.311588554127059325
0.302000000000000102,-18.091240653582453035
0.303000000000000103,-17.867765362578619914
0.304000000000000103,-17.641864762107559272
0.305000000000000104,-17.414216722842688512
0.306000000000000105,-17.185472172401023983
0.307000000000000106,-16.956252704308255375
0.308000000000000107,-16.727148522530725927
0.309000000000000108,-16.498716713055479488
0.310000000000000109,-16.271479831949370976
0.311000000000000110,-16.045924797592917344
0.312000000000000111,-15.822502073342596063
0.313000000000000111,-15.601625125708176611
0.314000000000000112,-15.383670142216766763
0.315000000000000113,-15.168975992453553658
0.316000000000000114,-14.957844415299145879
0.317000000000000115,-14.750540415105675152
0.318000000000000116,-14.547292849448405505
0.319000000000000117,-14.348295191138802807
0.320000000000000118,-14.153706447369838628
0.321000000000000119,-13.963652219168704249
0.322000000000000119,-13.778225884740001206
0.323000000000000120,-13.597489890778504673
0.324000000000000121,-13.421477136401094299
0.325000000000000122,-13.250192434979766176
0.326000000000000123,-13.083614039839194021
0.327000000000000124,-12.921695220502613211
0.328000000000000125,-12.764365876919335108
0.329000000000000126,-12.611534179875544481
0.330000000000000127,-12.463088226570793182
0.331000000000000127,-12.318897701127379918
0.332000000000000128,-12.178815530582401294
0.333000000000000129,-12.042679527687232266
0.334000000000000130,-11.910314012601352474
0.335000000000000131,-11.781531406312760524
0.336000000000000132,-11.656133789341582840
0.337000000000000133,-11.533914419984492739
0.338000000000000134,-11.414659207031878196
0.339000000000000135,-11.298148132536359967
0.340000000000000135,-11.184156620827106821
0.341000000000000136,-11.072456850550105756
0.342000000000000137,-10.962819007067556853
0.343000000000000138,-10.855012473070583923
0.344000000000000139,-10.748806955747472358
0.345000000000000140,-10.643973549305556503
0.346000000000000141,-10.540285732067676605
0.347000000000000142,-10.437520297755765952
0.348000000000000143,-10.335458220934217621
0.349000000000000143,-10.233885456915048806
0.350000000000000144,-10.132593676727271514
0.351000000000000145,-10.031380938024183180
0.352000000000000146,-9.930052293046363943
0.353000000000000147,-9.828420334975962902
0.354000000000000148,-9.726305684210471370
0.355000000000000149,-9.623537416252833765
0.356000000000000150,-9.519953433061079551
0.357000000000000151,-9.415400779825313649
0.358000000000000151,-9.309735909244789553
0.359000000000000152,-9.202824895463614041
0.360000000000000153,-9.094543599892174868
0.361000000000000154,-8.984777791193465646
0.362000000000000155,-8.873423221750378787
0.363000000000000156,-8.760385662953257935
0.364000000000000157,-8.645580901656998662
0.365000000000000158,-8.528934700155822668
0.366000000000000159,-8.410382722011480183
0.367000000000000159,-8.289870426048826957
0.368000000000000160,-8.167352930802541877
0.369000000000000161,-8.042794851660127975
0.370000000000000162,-7.916170112901326661
0.371000000000000163,-7.787461736783098942
0.372000000000000164,-7.656661611762141106
0.373000000000000165,-7.523770241886595045
0.374000000000000166,-7.388796479322823352
0.375000000000000167,-7.251757241915433028
0.376000000000000167,-7.112677217607448199
0.377000000000000168,-6.971588557474587056
0.378000000000000169,-6.828530559052945037
0.379000000000000170,-6.683549341563737478
0.380000000000000171,-6.536697514561884859
0.381000000000000172,-6.388033841458979012
0.382000000000000173,-6.237622899293913115
0.383000000000000174,-6.085534736048527016
0.384000000000000175,-5.931844526729597611
0.385000000000000175,-5.776632229364108362
0.386000000000000176,-5.619982241980801874
0.387000000000000177,-5.461983061579161358
0.388000000000000178,-5.302726946016193210
0.389000000000000179,-5.142309579672465603
0.390000000000000180,-4.980829743692043898
0.391000000000000181,-4.818388991525538678
0.392000000000000182,-4.655091330443129394
0.393000000000000183,-4.491042909622867896
0.394000000000000183,-4.326351715361683503
0.395000000000000184,-4.161127273899832169
0.396000000000000185,-3.995480362295496857
0.397000000000000186,-3.829522727734919751
0.398000000000000187,-3.663366815613742666
0.399000000000000188,-3.497125506678337992
0.400000000000000189,-3.330911863471592849
0.401000000000000190,-3.164838886284491171
0.402000000000000191,-2.999019278775755026
0.403000000000000191,-2.833565223383065046
0.404000000000000192,-2.668588166614366930
0.405000000000000193,-2.504198614274086410
0.406000000000000194,-2.340505936647716556
0.407000000000000195,-2.177618183639197902
0.408000000000000196,-2.015641909827921907
0.409000000000000197,-1.854682009387153441
0.410000000000000198,-1.694841560782151646
0.411000000000000199,-1.536221681144630979
0.412000000000000199,-1.378921390200295471
0.413000000000000200,-1.223037483608307774
0.414000000000000201,-1.068664415554646308
0.415000000000000202,-0.915894190426508104
0.416000000000000203,-0.764816263381615125
0.417000000000000204,-0.615517449613698475
0.418000000000000205,-0.468081842105340928
0.419000000000000206,-0.322590737649524784
0.420000000000000207,-0.179122570913023582
0.421000000000000207,-0.037752856308146822
0.422000000000000208,0.101445862567181425
0.423000000000000209,0.238404056165411216
0.424000000000000210,0.373055245150084425
0.425000000000000211,0.505336029732806891
0.426000000000000212,0.635186112440217276
0.427000000000000213,0.762548314566005914
0.428000000000000214,0.887368586563596629
0.429000000000000214,1.009596012635150197
0.430000000000000215,1.129182809771659413
0.431000000000000216,1.246084321497470615
0.432000000000000217,1.360259006571016505
0.433000000000000218,1.471668422890639594
0.434000000000000219,1.580277206851897098
0.435000000000000220,1.686053048399200893
0.436000000000000221,1.788966662011013398
0.437000000000000222,1.888991753853788591
0.438000000000000222,1.986104985335380047
0.439000000000000223,2.080285933284069078
0.440000000000000224,2.171517046974446696
0.441000000000000225,2.259783602216255183
0.442000000000000226,2.345073652716833656
0.443000000000000227,2.427377978922605983
0.444000000000000228,2.506690034539161172
0.445000000000000229,2.583005890923890657
0.446000000000000230,2.656324179539149899
0.447000000000000230,2.726646032648260665
0.448000000000000231,2.793975022430444710
0.449000000000000232,2.858317098684854507
0.450000000000000233,2.919680525288049999
0.451000000000000234,2.978075815562857276
0.452000000000000235,3.033515666710985492
0.453000000000000236,3.086014893455462982
0.454000000000000237,3.135590361033143481
0.455000000000000238,3.182260917671721145
0.456000000000000238,3.226047326679657434
0.457000000000000239,3.266972198271977046
0.458000000000000240,3.305059921248818089
0.459000000000000241,3.340336594638448897
0.460000000000000242,3.372829959410638345
0.461000000000000243,3.402569330361074229
0.462000000000000244,3.429585528262157901
0.463000000000000245,3.453910812370330152
0.464000000000000246,3.475578813375096221
0.465000000000000246,3.494624466869848955
0.466000000000000247,3.511083947419908924
0.467000000000000248,3.524994603298472917
0.468000000000000249,3.536394891956528674
0.469000000000000250,3.545324316288481103
0.470000000000000251,3.551823361750837016
0.471000000000000252,3.555933434387229308
0.472000000000000253,3.557696799808892418
0.473000000000000254,3.557156523175940777
0.474000000000000254,3.554356410220969487
0.475000000000000255,3.549340949352786545
0.476000000000000256,3.542155254874777004
0.477000000000000257,3.532845011348802355
0.478000000000000258,3.521456419132405813
0.479000000000000259,3.508036141114055706
0.480000000000000260,3.492631250667949327
0.481000000000000261,3.475289180847269677
0.482000000000000262,3.456057674831826354
0.483000000000000262,3.434984737643644426
0.484000000000000263,3.412118589141218017
0.485000000000000264,3.387507618301170087
0.486000000000000265,3.361200338793345566
0.487000000000000266,3.333245345853552699
0.488000000000000267,3.303691274455976323
0.489000000000000268,3.272586758785218652
0.490000000000000269,3.239980393006335113
0.491000000000000270,3.205920693329231685
0.492000000000000270,3.170456061362313616
0.493000000000000271,3.133634748748595378
0.494000000000000272,3.095504823076212109
0.495000000000000273,3.056114135053536351
0.496000000000000274,3.015510286938314799
0.497000000000000275,2.973740602208607253
0.498000000000000276,2.930852096462343237
0.499000000000000277,2.886891449531450604
0.500000000000000222,2.841904978795108949
0.501000000000000334,2.795938613676323570
0.502000000000000224,2.749037871304712333
0.503000000000000336,2.701247833327929282
0.504000000000000226,2.652613123853438282
0.505000000000000338,2.603177888501456039
0.506000000000000227,2.552985774549799469
0.507000000000000339,2.502079912150278140
0.508000000000000229,2.450502896596421731
0.509000000000000341,2.398296771621268864
0.510000000000000231,2.345503013704349549
0.511000000000000343,2.292162517365857077
0.512000000000000233,2.238315581426588707
0.513000000000000345,2.184001896211197113
0.514000000000000234,2.129260531672909185
0.515000000000000346,2.074129926416961034
0.516000000000000236,2.018647877600702856
0.517000000000000348,1.962851531687410667
0.518000000000000238,1.906777376031719040
0.519000000000000350,1.850461231273646590
0.520000000000000240,1.793938244519159841
0.521000000000000352,1.737242883284449091
0.522000000000000242,1.680408930181896299
0.523000000000000353,1.623469478325098025
0.524000000000000243,1.566456927431288282
0.525000000000000355,1.509402980598795185
0.526000000000000245,1.452338641738130987
0.527000000000000357,1.395294213634800773
0.528000000000000247,1.338299296622837975
0.529000000000000359,1.281382787847643812
0.530000000000000249,1.224572881097524713
0.531000000000000361,1.167897067183110149
0.532000000000000250,1.111382134844579372
0.533000000000000362,1.055054172166351112
0.534000000000000252,0.998938568479949551
0.535000000000000364,0.943060016735059792
0.536000000000000254,0.887442516320328778
0.537000000000000366,0.832109376314501104
0.538000000000000256,0.777083219150019544
0.539000000000000368,0.722385984670523174
0.540000000000000258,0.668038934564935682
0.541000000000000369,0.614062657160265646
0.542000000000000259,0.560477072556639255
0.543000000000000371,0.507301438087338630
0.544000000000000261,0.454554354087920554
0.545000000000000373,0.402253769958242136
0.546000000000000263,0.350416990501988379
0.547000000000000375,0.299060682528154653
0.548000000000000265,0.248200881700117337
0.549000000000000377,0.197852999617229630
0.550000000000000266,0.148031831115370938
0.551000000000000378,0.098751561772197266
0.552000000000000268,0.050025775604083847
0.553000000000000380,0.001867462941430687
0.554000000000000270,-0.045710971530102090
0.555000000000000382,-0.092697700575014780
0.556000000000000272,-0.139081466071730719
0.557000000000000384,-0.184851570546567590
0.558000000000000274,-0.229997868589013305
0.559000000000000385,-0.274510758159365376
0.560000000000000275,-0.318381171799184126
0.561000000000000387,-0.361600567754987279
0.562000000000000277,-0.404160921024885156
0.563000000000000389,-0.446054714338015412
0.564000000000000279,-0.487274929075773133
0.565000000000000391,-0.527815036144072103
0.566000000000000281,-0.567668986804992337
0.567000000000000393,-0.606831203476443148
0.568000000000000282,-0.645296570507601919
0.569000000000000394,-0.683060424938141453
0.570000000000000284,-0.720118547248368435
0.571000000000000396,-0.756467152107824226
0.572000000000000286,-0.792102879128840032
0.573000000000000398,-0.827022783631976344
0.574000000000000288,-0.861224327429424341
0.575000000000000400,-0.894705369632686653
0.576000000000000290,-0.927464157490091923
0.577000000000000401,-0.959499317259989271
0.578000000000000291,-0.990809845124675403
0.579000000000000403,-1.021395098150341463
0.580000000000000293,-1.051254785297700556
0.581000000000000405,-1.080388958488127660
0.582000000000000295,-1.108798003729404291
0.583000000000000407,-1.136482632305582108
0.584000000000000297,-1.163443872034573001
0.585000000000000409,-1.189683058597537535
0.586000000000000298,-1.215201826943335117
0.587000000000000410,-1.240002102771630366
0.588000000000000300,-1.264086094097593094
0.589000000000000412,-1.287456282901388915
0.590000000000000302,-1.310115416865032190
0.591000000000000414,-1.332066501199410391
0.592000000000000304,-1.353312790563790724
0.593000000000000416,-1.373857781080176199
0.594000000000000306,-1.393705202444562641
0.595000000000000417,-1.412859010137170968
0.596000000000000307,-1.431323377733320301
0.597000000000000419,-1.449102689316754011
0.598000000000000309,-1.466201531996882412
0.599000000000000421,-1.482624688531315904
0.600000000000000311,-1.498377130055006390
0.601000000000000423,-1.513464008917119852
0.602000000000000313,-1.527890651626561569
0.603000000000000425,-1.541662551907243106
0.604000000000000314,-1.554785363863618652
0.605000000000000426,-1.567264895257402868
0.606000000000000316,-1.579107100895845717
0.607000000000000428,-1.590318076132119618
0.608000000000000318,-1.600904050478182183
0.609000000000000430,-1.610871381330334584
0.610000000000000320,-1.620226547807672945
0.611000000000000432,-1.628976144703548901
0.612000000000000322,-1.637126876549995114
0.613000000000000433,-1.644685551795072254
0.614000000000000323,-1.651659077092997752
0.615000000000000435,-1.658054451706790999
0.616000000000000325,-1.663878762023146551
0.617000000000000437,-1.669139176179233797
0.618000000000000327,-1.673842938800886859
0.619000000000000439,-1.677997365851791045
0.620000000000000329,-1.681609839593085853
0.621000000000000441,-1.684687803652736848
0.622000000000000330,-1.687238758204113953
0.623000000000000442,-1.689270255252984798
0.624000000000000332,-1.690789894032202367
0.625000000000000444,-1.691805316503302681
0.626000000000000334,-1.692324202964144986
0.627000000000000446,-1.692354267761726705
0.628000000000000336,-1.691903255109252102
0.629000000000000448,-1.690978935006503647
0.630000000000000338,-1.689589099262501559
0.631000000000000449,-1.687741557619470090
0.632000000000000339,-1.685444133977049841
0.633000000000000451,-1.682704662715633237
0.634000000000000341,-1.679530985117790420
0.635000000000000453,-1.675930945886621615
0.636000000000000343,-1.671912389759872664
0.637000000000000455,-1.667483158218698636
0.638000000000000345,-1.662651086289805846
0.639000000000000457,-1.657423999439852746
0.640000000000000346,-1.651809710560840916
0.641000000000000458,-1.645816017045268254
0.642000000000000348,-1.639450697949810687
0.643000000000000460,-1.632721511246253865
0.644000000000000350,-1.625636191158455146
0.645000000000000462,-1.618202445583973415
0.646000000000000352,-1.610427953599186113
0.647000000000000464,-1.602320363046525697
0.648000000000000353,-1.593887288202594954
0.649000000000000465,-1.585136307525797594
0.650000000000000355,-1.576074961482289760
0.651000000000000467,-1.566710750448813361
0.652000000000000357,-1.557051132691259054
0.653000000000000469,-1.547103522417487609
0.654000000000000359,-1.536875287903292531
0.655000000000000471,-1.526373749690042025
0.656000000000000361,-1.515606178852803909
0.657000000000000473,-1.504579795337608106
0.658000000000000362,-1.493301766366593952
0.659000000000000474,-1.481779204909728032
0.660000000000000364,-1.470019168221831762
0.661000000000000476,-1.458028656443629112
0.662000000000000366,-1.445814611265586525
0.663000000000000478,-1.433383914653209246
