# AlFCC111UCD_CS-1913-AC
# h[nm],U(h)[kJ/mol]
0.149999999999999994,79.461433963488531163
0.150999999999999995,76.040056024002296908
0.151999999999999996,73.192562342498973749
0.152999999999999997,70.420269544181337551
0.153999999999999998,67.601712029865538511
0.154999999999999999,64.761556321707686834
0.156000000000000000,61.959250618470456118
0.157000000000000001,59.243018217265635883
0.158000000000000002,56.637074205938255034
0.159000000000000002,54.143816626257390112
0.160000000000000003,51.751183743235344537
0.161000000000000004,49.440349945902852369
0.162000000000000005,47.191750976739456291
0.163000000000000006,44.988927179554778490
0.164000000000000007,42.820390593368465204
0.165000000000000008,40.679996924524047586
0.166000000000000009,38.566344717273238984
0.167000000000000010,36.481655134579966671
0.168000000000000010,34.430477050062862077
0.169000000000000011,32.418451058168258783
0.170000000000000012,30.451270171344411608
0.171000000000000013,28.533900659364757502
0.172000000000000014,26.670073845776613553
0.173000000000000015,24.862025921495192193
0.174000000000000016,23.110444096075273279
0.175000000000000017,21.414569750215566302
0.176000000000000018,19.772409186482899912
0.177000000000000018,18.181007247290029483
0.178000000000000019,16.636746296558701630
0.179000000000000020,15.135641269721418212
0.180000000000000021,13.673609622250614493
0.181000000000000022,12.246702390461862819
0.182000000000000023,10.851288864500190812
0.183000000000000024,9.484192423905096092
0.184000000000000025,8.142778909120703901
0.185000000000000026,6.825001597342696513
0.186000000000000026,5.529408568109749567
0.187000000000000027,4.255119154055474695
0.188000000000000028,3.001776447412522586
0.189000000000000029,1.769482633952694117
0.190000000000000030,0.558723395176054738
0.191000000000000031,-0.629713123080925863
0.192000000000000032,-1.794818134255318443
0.193000000000000033,-2.935441080391343771
0.194000000000000034,-4.050362676927510286
0.195000000000000034,-5.138360080344567038
0.196000000000000035,-6.198262859302947625
0.197000000000000036,-7.228999084063508107
0.198000000000000037,-8.229631378280434006
0.199000000000000038,-9.199383202449004315
0.200000000000000039,-10.137655964840977418
0.201000000000000040,-11.044037792246914620
0.202000000000000041,-11.918304949706076457
0.203000000000000042,-12.760416986954890461
0.204000000000000042,-13.570506721013510187
0.205000000000000043,-14.348866150194345082
0.206000000000000044,-15.095929345130304711
0.207000000000000045,-15.812253286441720235
0.208000000000000046,-16.498497524529192049
0.209000000000000047,-17.155403431654384860
0.210000000000000048,-17.783773705764630790
0.211000000000000049,-18.384452674141975592
0.212000000000000050,-18.958307836627547260
0.213000000000000050,-19.506212985687945149
0.214000000000000051,-20.029033145976192998
0.215000000000000052,-20.527611490630071955
0.216000000000000053,-21.002758316120338833
0.217000000000000054,-21.455242092317735825
0.218000000000000055,-21.885782549526734186
0.219000000000000056,-22.295045719184923172
0.220000000000000057,-22.683640809188631238
0.221000000000000058,-23.052118767657567844
0.222000000000000058,-23.400972369590828492
0.223000000000000059,-23.730637648420707109
0.224000000000000060,-24.041496488063273773
0.225000000000000061,-24.333880189822696849
0.226000000000000062,-24.608073831588828995
0.227000000000000063,-24.864321243387152549
0.228000000000000064,-25.102830432760562474
0.229000000000000065,-25.323779305022050323
0.230000000000000066,-25.527321536514918421
0.231000000000000066,-25.713592473131676286
0.232000000000000067,-25.882714941014661747
0.233000000000000068,-26.034804871204777044
0.234000000000000069,-26.169976654692352014
0.235000000000000070,-26.288348158591247739
0.236000000000000071,-26.390045347789829577
0.237000000000000072,-26.475206469269057408
0.238000000000000073,-26.543985768195206276
0.239000000000000073,-26.596556715811601634
0.240000000000000074,-26.633114739021316097
0.241000000000000075,-26.653879450346160240
0.242000000000000076,-26.659096384671151725
0.243000000000000077,-26.649038255857171009
0.244000000000000078,-26.624005751964592292
0.245000000000000079,-26.584327892525447368
0.246000000000000080,-26.530361975089704174
0.247000000000000081,-26.462493141216292258
0.248000000000000081,-26.381133594249710939
0.249000000000000082,-26.286721502690433283
0.250000000000000111,-26.179719623802533590
0.251000000000000112,-26.060613682376185807
0.252000000000000113,-25.929910539346280984
0.253000000000000114,-25.788136184325441747
0.254000000000000115,-25.635833585107256738
0.255000000000000115,-25.473560425889445469
0.256000000000000116,-25.301886764415336017
0.257000000000000117,-25.121392636485218475
0.258000000000000118,-24.932665634393110565
0.259000000000000119,-24.736298483843366824
0.260000000000000120,-24.532886641831261443
0.261000000000000121,-24.323025935866581904
0.262000000000000122,-24.107310262809182433
0.263000000000000123,-23.886329363495139688
0.264000000000000123,-23.660666687284013676
0.265000000000000124,-23.430897358669859898
0.266000000000000125,-23.197586256186582432
0.267000000000000126,-22.961286212013863661
0.268000000000000127,-22.722536338963120528
0.269000000000000128,-22.481860489901290379
0.270000000000000129,-22.239765853157969389
0.271000000000000130,-21.996741686062581067
0.272000000000000131,-21.753258187474255436
0.273000000000000131,-21.509765508997126915
0.274000000000000132,-21.266692903517629532
0.275000000000000133,-21.024448008755999950
0.276000000000000134,-20.783416262686596809
0.277000000000000135,-20.543960446949579790
0.278000000000000136,-20.306420353743366292
0.279000000000000137,-20.071112571148702841
0.280000000000000138,-19.838330381387287105
0.281000000000000139,-19.608343766151996590
0.282000000000000139,-19.381399512860120637
0.283000000000000140,-19.157721415466422599
0.284000000000000141,-18.937510563325751889
0.285000000000000142,-18.720945711508573339
0.286000000000000143,-18.508183725942217279
0.287000000000000144,-18.299360096769518691
0.288000000000000145,-18.094589513381052370
0.289000000000000146,-17.893966494680533685
0.290000000000000147,-17.697566068281865626
0.291000000000000147,-17.505444492505297660
0.292000000000000148,-17.317640015235362227
0.293000000000000149,-17.134173663920510222
0.294000000000000150,-16.955050061229336222
0.295000000000000151,-16.780258261129379349
0.296000000000000152,-16.609772600415169563
0.297000000000000153,-16.443553560983669826
0.298000000000000154,-16.281548638430528797
0.299000000000000155,-16.123693212821006426
0.300000000000000155,-15.969911417769926842
0.301000000000000156,-15.820117004245492609
0.302000000000000157,-15.674214195789085480
0.303000000000000158,-15.532098532117245782
0.304000000000000159,-15.393657698339762163
0.305000000000000160,-15.258772337289542520
0.306000000000000161,-15.127316842713744549
0.307000000000000162,-14.999160131321252365
0.308000000000000163,-14.874166391917521324
0.309000000000000163,-14.752195810084643313
0.310000000000000164,-14.633105267080594558
0.311000000000000165,-14.516749011837370986
0.312000000000000166,-14.402979305133001731
0.313000000000000167,-14.291647035196254123
0.314000000000000168,-14.182602304176194608
0.315000000000000169,-14.075694985071091736
0.316000000000000170,-13.970775248862455697
0.317000000000000171,-13.867694061740838407
0.318000000000000171,-13.766303652440239347
0.319000000000000172,-13.666457949817985451
0.320000000000000173,-13.568012990926906269
0.321000000000000174,-13.470827299927066178
0.322000000000000175,-13.374762238275213377
0.323000000000000176,-13.279682326712228146
0.324000000000000177,-13.185455539642180867
0.325000000000000178,-13.091953572561763508
0.326000000000000179,-12.999052083256444234
0.327000000000000179,-12.906630907529143215
0.328000000000000180,-12.814574250270458933
0.329000000000000181,-12.722770852715786560
0.330000000000000182,-12.631114136763955003
0.331000000000000183,-12.539502327257121550
0.332000000000000184,-12.447838553139412454
0.333000000000000185,-12.356030928425997928
0.334000000000000186,-12.263992613922718888
0.335000000000000187,-12.171641860641084776
0.336000000000000187,-12.078902035853836594
0.337000000000000188,-11.985701632733027466
0.338000000000000189,-11.891974264506014691
0.339000000000000190,-11.797658644055104560
0.340000000000000191,-11.702698549873964851
0.341000000000000192,-11.607042779279616695
0.342000000000000193,-11.510645089760755511
0.343000000000000194,-11.413464129325099350
0.344000000000000195,-11.315463356686757734
0.345000000000000195,-11.216610952113002853
0.346000000000000196,-11.116879719725762499
0.347000000000000197,-11.016246982028681245
0.348000000000000198,-10.914694467404988387
0.349000000000000199,-10.812208191304991445
0.350000000000000200,-10.708778331815267393
0.351000000000000201,-10.604399100274164880
0.352000000000000202,-10.499068607570658074
0.353000000000000203,-10.392788726735968652
0.354000000000000203,-10.285564952409332662
0.355000000000000204,-10.177406257731735906
0.356000000000000205,-10.068324949193822704
0.357000000000000206,-9.958336519936850095
0.358000000000000207,-9.847459501978407914
0.359000000000000208,-9.735715317808393721
0.360000000000000209,-9.623128131774199900
0.361000000000000210,-9.509724701648664791
0.362000000000000210,-9.395534230749248650
0.363000000000000211,-9.280588220952427747
0.364000000000000212,-9.164920326923594374
0.365000000000000213,-9.048566211859419894
0.366000000000000214,-8.931563405017547197
0.367000000000000215,-8.813951161286460945
0.368000000000000216,-8.695770323027721460
0.369000000000000217,-8.577063184402328844
0.370000000000000218,-8.457873358373763750
0.371000000000000218,-8.338245646561389890
0.372000000000000219,-8.218225912100185937
0.373000000000000220,-8.097860955645574066
0.374000000000000221,-7.977198394645773405
0.375000000000000222,-7.856286545988524495
0.376000000000000223,-7.735174312114144968
0.377000000000000224,-7.613911070672877202
0.378000000000000225,-7.492546567791033674
0.379000000000000226,-7.371130814997781222
0.380000000000000226,-7.249713989852631713
0.381000000000000227,-7.128346340302063489
0.382000000000000228,-7.007078092783639356
0.383000000000000229,-6.885959364085560530
0.384000000000000230,-6.765040076960464610
0.385000000000000231,-6.644369879483771335
0.386000000000000232,-6.523998068138412876
0.387000000000000233,-6.403973514600560080
0.388000000000000234,-6.284344596193783161
0.389000000000000234,-6.165159129972885843
0.390000000000000235,-6.046464310392366315
0.391000000000000236,-5.928306650509473918
0.392000000000000237,-5.810731926666418801
0.393000000000000238,-5.693785126592219470
0.394000000000000239,-5.577510400860226980
0.395000000000000240,-5.461951017633960070
0.396000000000000241,-5.347149320630573577
0.397000000000000242,-5.233146690228222653
0.398000000000000242,-5.119983507641392428
0.399000000000000243,-5.007699122085730536
0.400000000000000244,-4.896331820852149797
0.401000000000000245,-4.785918802208638745
0.402000000000000246,-4.676496151046580785
0.403000000000000247,-4.568098817187459915
0.404000000000000248,-4.460760596265335387
0.405000000000000249,-4.354514113099566153
0.406000000000000250,-4.249390807472212650
0.407000000000000250,-4.145420922224365867
0.408000000000000251,-4.042633493585706006
0.409000000000000252,-3.941056343652070471
0.410000000000000253,-3.840716074925914825
0.411000000000000254,-3.741638066835566434
0.412000000000000255,-3.643846474149564418
0.413000000000000256,-3.547364227203511522
0.414000000000000257,-3.452213033857629565
0.415000000000000258,-3.358413383104595251
0.416000000000000258,-3.265984550248197671
0.417000000000000259,-3.174944603574779034
0.418000000000000260,-3.085310412440845695
0.419000000000000261,-2.997097656701502189
0.420000000000000262,-2.910320837406171979
0.421000000000000263,-2.824993288689392479
0.422000000000000264,-2.741127190786226908
0.423000000000000265,-2.658733584103434744
0.424000000000000266,-2.577822384279434331
0.425000000000000266,-2.498402398167540284
0.426000000000000267,-2.420481340678974025
0.427000000000000268,-2.344065852423800944
0.428000000000000269,-2.269161518089816809
0.429000000000000270,-2.195772885501138028
0.430000000000000271,-2.123903485300149718
0.431000000000000272,-2.053555851198191728
0.432000000000000273,-1.984731540742259881
0.433000000000000274,-1.917431156546758331
0.434000000000000274,-1.851654367941106383
0.435000000000000275,-1.787399932985863860
0.436000000000000276,-1.724665720811772385
0.437000000000000277,-1.663448734237755300
0.438000000000000278,-1.603745132625865821
0.439000000000000279,-1.545550254932686940
0.440000000000000280,-1.488858642918425179
0.441000000000000281,-1.433664064476615208
0.442000000000000282,-1.379959537049009421
0.443000000000000282,-1.327737351091696105
0.444000000000000283,-1.276989093560209731
0.445000000000000284,-1.227705671382864461
0.446000000000000285,-1.179877334892924123
0.447000000000000286,-1.133493701192011871
0.448000000000000287,-1.088543777418161884
0.449000000000000288,-1.045015983893724520
0.450000000000000289,-1.002898177129416979
0.451000000000000290,-0.962177672662260619
0.452000000000000290,-0.922841267706416390
0.453000000000000291,-0.884875263597200701
0.454000000000000292,-0.848265488009747104
0.455000000000000293,-0.812997316934971237
0.456000000000000294,-0.779055696396694031
0.457000000000000295,-0.746425163894779198
0.458000000000000296,-0.715089869560380231
0.459000000000000297,-0.685033597010220152
0.460000000000000298,-0.656239783888057593
0.461000000000000298,-0.628691542082236543
0.462000000000000299,-0.602371677609385814
0.463000000000000300,-0.577262710154995196
0.464000000000000301,-0.553346892262654988
0.465000000000000302,-0.530606228164474336
0.466000000000000303,-0.509022492246048230
0.467000000000000304,-0.488577247139998394
0.468000000000000305,-0.469251861443085727
0.469000000000000306,-0.451027527052307309
0.470000000000000306,-0.433885276116301455
0.471000000000000307,-0.417805997598878431
0.472000000000000308,-0.402770453452252486
0.473000000000000309,-0.388759294397961863
0.474000000000000310,-0.375753075314186002
0.475000000000000311,-0.363732270228656174
0.476000000000000312,-0.352677286916815214
0.477000000000000313,-0.342568481105387623
0.478000000000000314,-0.333386170282057748
0.479000000000000314,-0.325110647112269113
0.480000000000000315,-0.317722192464640618
0.481000000000000316,-0.311201088046877516
0.482000000000000317,-0.305527628654407191
0.483000000000000318,-0.300682134034315707
0.484000000000000319,-0.296644960367470012
0.485000000000000320,-0.293396511372102375
0.486000000000000321,-0.290917249032268288
0.487000000000000322,-0.289187703954983555
0.488000000000000322,-0.288188485360055924
0.489000000000000323,-0.287900290706816553
0.490000000000000324,-0.288303914962236063
0.491000000000000325,-0.289380259515085503
0.492000000000000326,-0.291110340740929119
0.493000000000000327,-0.293475298222995673
0.494000000000000328,-0.296456402634080129
0.495000000000000329,-0.300035063284743775
0.496000000000000330,-0.304192835343273682
0.497000000000000330,-0.308911426732877692
0.498000000000000331,-0.314172704711845274
0.499000000000000332,-0.319958702142275841
0.500000000000000333,-0.326251623453282069
0.501000000000000334,-0.333033850304507384
0.502000000000000335,-0.340287946955853626
0.503000000000000336,-0.347996665349447787
0.504000000000000337,-0.356142949909820261
0.505000000000000338,-0.364709942068369819
0.506000000000000338,-0.373680984518162951
0.507000000000000339,-0.383039625205155609
0.508000000000000340,-0.392769621061939467
0.509000000000000341,-0.402854941490033869
0.510000000000000342,-0.413279771596900491
0.511000000000000343,-0.424028515193643929
0.512000000000000344,-0.435085797559508880
0.513000000000000345,-0.446436467979138552
0.514000000000000346,-0.458065602058620847
0.515000000000000346,-0.469958503826236385
0.516000000000000347,-0.482100707623812685
0.517000000000000348,-0.494477979794581635
0.518000000000000349,-0.507076320173289741
0.519000000000000350,-0.519881963384344115
0.520000000000000351,-0.532881379953731082
0.521000000000000352,-0.546061277240247001
0.522000000000000353,-0.559408600191690253
0.523000000000000353,-0.572910531931509093
0.524000000000000354,-0.586554494181279584
0.525000000000000355,-0.600328147524462175
0.526000000000000356,-0.614219391516646618
0.527000000000000357,-0.628216364647529057
0.528000000000000358,-0.642307444159792795
0.529000000000000359,-0.656481245729814922
0.530000000000000360,-0.670726623015349133
0.531000000000000361,-0.685032667074908508
0.532000000000000361,-0.699388705663757326
0.533000000000000362,-0.713784302411173965
0.534000000000000363,-0.728209255883650375
0.535000000000000364,-0.742653598538539184
0.536000000000000365,-0.757107595572647285
0.537000000000000366,-0.771561743670104105
0.538000000000000367,-0.786006769653834536
0.539000000000000368,-0.800433629044775996
0.540000000000000369,-0.814833504533010733
0.541000000000000369,-0.829197804364751212
0.542000000000000370,-0.843518160649209703
0.543000000000000371,-0.857786427589085854
0.544000000000000372,-0.871994679638522840
0.545000000000000373,-0.886135209592118556
0.546000000000000374,-0.900200526608646356
0.547000000000000375,-0.914183354172903195
0.548000000000000376,-0.928076627999174897
0.549000000000000377,-0.941873493879560209
0.550000000000000377,-0.955567305480448548
0.551000000000000378,-0.969151622090291154
0.552000000000000379,-0.982620206321714429
0.553000000000000380,-0.995967021771002159
0.554000000000000381,-1.009186230637822312
0.555000000000000382,-1.022272191308042366
0.556000000000000383,-1.035219455902379071
0.557000000000000384,-1.048022767793539867
0.558000000000000385,-1.060677059094474295
0.559000000000000385,-1.073177448120225197
0.560000000000000386,-1.085519236825821077
0.561000000000000387,-1.097697908222599272
0.562000000000000388,-1.109709123775238115
0.563000000000000389,-1.121548720781708530
0.564000000000000390,-1.133212709738306900
0.565000000000000391,-1.144697271691869078
0.566000000000000392,-1.155998755581137960
0.567000000000000393,-1.167113675569263265
0.568000000000000393,-1.178038708369285148
0.569000000000000394,-1.188770690564465493
0.570000000000000395,-1.199306615925148645
0.571000000000000396,-1.209643632723894413
0.572000000000000397,-1.219779041050497392
0.573000000000000398,-1.229710290128445349
0.574000000000000399,-1.239434975634342795
0.575000000000000400,-1.248950837021753912
0.576000000000000401,-1.258255754850834407
0.577000000000000401,-1.267347748125123186
0.578000000000000402,-1.276224971636774841
0.579000000000000403,-1.284885713321446410
0.580000000000000404,-1.293328391624035900
0.581000000000000405,-1.301551552876430096
0.582000000000000406,-1.309553868688274836
0.583000000000000407,-1.317334133351900416
0.584000000000000408,-1.324891261262300279
0.585000000000000409,-1.332224284353154653
0.586000000000000409,-1.339332349549802181
0.587000000000000410,-1.346214716239990228
0.588000000000000411,-1.352870753763228295
0.589000000000000412,-1.359299938919520834
0.590000000000000413,-1.365501853498205964
0.591000000000000414,-1.371476181827603336
0.592000000000000415,-1.377222708346101054
0.593000000000000416,-1.382741315195334275
0.594000000000000417,-1.388031979836025886
0.595000000000000417,-1.393094772687003102
0.596000000000000418,-1.397929854787969939
0.597000000000000419,-1.402537475486460128
0.598000000000000420,-1.406917970149439201
0.599000000000000421,-1.411071757899985624
0.600000000000000422,-1.414999339379419130
0.601000000000000423,-1.418701294535245738
0.602000000000000424,-1.422178280435245856
0.603000000000000425,-1.425431029108028547
0.604000000000000425,-1.428460345410285770
0.605000000000000426,-1.431267104921043254
0.606000000000000427,-1.433852251863115379
0.607000000000000428,-1.436216797051951932
0.608000000000000429,-1.438361815872089888
0.609000000000000430,-1.440288446281333457
