# AlFCC111UCD_CS-61686-AC
# h[nm],U(h)[kJ/mol]
0.149999999999999994,86.429090849566989618
0.150999999999999995,82.166361103935244614
0.151999999999999996,79.060189366236286901
0.152999999999999997,76.191785874333362472
0.153999999999999998,73.268799597312522565
0.154999999999999999,70.269065619313707316
0.156000000000000000,67.259026729681153256
0.157000000000000001,64.310785545967362964
0.158000000000000002,61.471848515797702817
0.159000000000000002,58.760679668675813048
0.160000000000000003,56.173007402652771702
0.161000000000000004,53.690981994514871189
0.162000000000000005,51.291466459583887172
0.163000000000000006,48.952077816752044725
0.164000000000000007,46.654806259230618082
0.165000000000000008,44.387590622350096226
0.166000000000000009,42.144411031274408685
0.167000000000000010,39.924451686972972198
0.168000000000000010,37.730793568093204726
0.169000000000000011,35.568977554213716985
0.170000000000000012,33.445663917844008495
0.171000000000000013,31.367518167178133126
0.172000000000000014,29.340380083855126969
0.173000000000000015,27.368721617336781549
0.174000000000000016,25.455366832360262208
0.175000000000000017,23.601429343913583381
0.176000000000000018,21.806415685848129726
0.177000000000000018,20.068443416037798244
0.178000000000000019,18.384527688266839363
0.179000000000000020,16.750897404322568462
0.180000000000000021,15.163310376870033025
0.181000000000000022,13.617345155918453514
0.182000000000000023,12.108654659582260393
0.183000000000000024,10.633173156336706455
0.184000000000000025,9.187273333339316395
0.185000000000000026,7.767874157630901166
0.186000000000000026,6.372503087254659526
0.187000000000000027,4.999318060444082334
0.188000000000000028,3.647095747530934240
0.189000000000000029,2.315192958976156401
0.190000000000000030,1.003488020810463954
0.191000000000000031,-0.287691504458607028
0.192000000000000032,-1.557649038575718681
0.193000000000000033,-2.805402236330460930
0.194000000000000034,-4.029765205154281382
0.195000000000000034,-5.229426493140396204
0.196000000000000035,-6.403020454470730094
0.197000000000000036,-7.549190340801122723
0.198000000000000037,-8.666642117864299166
0.199000000000000038,-9.754188560199299474
0.200000000000000039,-10.810783632043747815
0.201000000000000040,-11.835547522480080573
0.202000000000000041,-12.827782974735535859
0.203000000000000042,-13.786983742058856350
0.204000000000000042,-14.712836125948419053
0.205000000000000043,-15.605214617187295190
0.206000000000000044,-16.464172676498783687
0.207000000000000045,-17.289929669449978888
0.208000000000000046,-18.082854918473621808
0.209000000000000047,-18.843449761545393528
0.210000000000000048,-19.572328419104149333
0.211000000000000049,-20.270198374140928621
0.212000000000000050,-20.937840869906242602
0.213000000000000050,-21.576092029331888966
0.214000000000000051,-22.185825003120321242
0.215000000000000052,-22.767933461830118347
0.216000000000000053,-23.323316662827604517
0.217000000000000054,-23.852866246758608781
0.218000000000000055,-24.357454850823010872
0.219000000000000056,-24.837926567821035917
0.220000000000000057,-25.295089230598147623
0.221000000000000058,-25.729708460806154591
0.222000000000000058,-26.142503388329561886
0.223000000000000059,-26.534143922660415882
0.224000000000000060,-26.905249439244709464
0.225000000000000061,-27.256388731617789745
0.226000000000000062,-27.588081073237031404
0.227000000000000063,-27.900798230558329749
0.228000000000000064,-28.194967270367509826
0.229000000000000065,-28.470974008991852600
0.230000000000000066,-28.729166958147658306
0.231000000000000066,-28.969861631259664847
0.232000000000000067,-29.193345084598728789
0.233000000000000068,-29.399880579075681197
0.234000000000000069,-29.589712260604393634
0.235000000000000070,-29.763069769269179687
0.236000000000000071,-29.920172699816038886
0.237000000000000072,-30.061234848000129460
0.238000000000000073,-30.186468188874528096
0.239000000000000073,-30.296086544048897338
0.240000000000000074,-30.390308905174578058
0.241000000000000075,-30.469362390342030977
0.242000000000000076,-30.533484818660930671
0.243000000000000077,-30.582926896005112383
0.244000000000000078,-30.617954011739652032
0.245000000000000079,-30.638847652214725059
0.246000000000000080,-30.645906441937501796
0.247000000000000081,-30.639446827654996497
0.248000000000000081,-30.619803424138645198
0.249000000000000082,-30.587329043309210874
0.250000000000000111,-30.542394430530386273
0.251000000000000112,-30.485387733487321782
0.252000000000000113,-30.416713730113013270
0.253000000000000114,-30.336792842583967911
0.254000000000000115,-30.246059964538584808
0.255000000000000115,-30.144963128427662014
0.256000000000000116,-30.033962039341798089
0.257000000000000117,-29.913526500822758436
0.258000000000000118,-29.784134757102684432
0.259000000000000119,-29.646271774968404600
0.260000000000000120,-29.500427487058392018
0.261000000000000121,-29.347095016901647568
0.262000000000000122,-29.186768904434739369
0.263000000000000123,-29.019943349112754305
0.264000000000000123,-28.847110486088826775
0.265000000000000124,-28.668758709296128018
0.266000000000000125,-28.485371053646481698
0.267000000000000126,-28.297423646975254030
0.268000000000000127,-28.105384240829401676
0.269000000000000128,-27.909710827723113624
0.270000000000000129,-27.710850351084353349
0.271000000000000130,-27.509237512791344216
0.272000000000000131,-27.305293681957572005
0.273000000000000131,-27.099425907468582153
0.274000000000000132,-26.892026035707811360
0.275000000000000133,-26.683469933932080664
0.276000000000000134,-26.474116818869099177
0.277000000000000135,-26.264308689310126965
0.278000000000000136,-26.054369860756889210
0.279000000000000137,-25.844606599551717352
0.280000000000000138,-25.635306853369808522
0.281000000000000139,-25.426740074479276643
0.282000000000000139,-25.219157131773961567
0.283000000000000140,-25.012790307252245725
0.284000000000000141,-24.807853372346972520
0.285000000000000142,-24.604541739304259806
0.286000000000000143,-24.403032682655947383
0.287000000000000144,-24.203485625728841768
0.288000000000000145,-24.006042487078889991
0.289000000000000146,-23.810828081725013305
0.290000000000000147,-23.617950572082314409
0.291000000000000147,-23.427501963552849418
0.292000000000000148,-23.239558639821204622
0.293000000000000149,-23.054181933016742789
0.294000000000000150,-22.871418724042165138
0.295000000000000151,-22.691302068525669000
0.296000000000000152,-22.513851844027037430
0.297000000000000153,-22.339075414315850310
0.298000000000000154,-22.166968306737448557
0.299000000000000155,-21.997514898889065194
0.300000000000000155,-21.830689111041060357
0.301000000000000156,-21.666455100954600255
0.302000000000000157,-21.504767957966301140
0.303000000000000158,-21.345574393429330939
0.304000000000000159,-21.188813424819386455
0.305000000000000160,-21.034417051029265622
0.306000000000000161,-20.882310916589172933
0.307000000000000162,-20.732414962757310661
0.308000000000000163,-20.584644063628179111
0.309000000000000163,-20.438908645602587910
0.310000000000000164,-20.295115288752818117
0.311000000000000165,-20.153167308798845880
0.312000000000000166,-20.012965318586097396
0.313000000000000167,-19.874407768121741924
0.314000000000000168,-19.737391462384696439
0.315000000000000169,-19.601812056274138030
0.316000000000000170,-19.467564526202739472
0.317000000000000171,-19.334543617973203311
0.318000000000000171,-19.202644270700663043
0.319000000000000172,-19.071762016659228323
0.320000000000000173,-18.941793357037926882
0.321000000000000174,-18.812636113690448525
0.322000000000000175,-18.684189757053779601
0.323000000000000176,-18.556355710494532474
0.324000000000000177,-18.429037631416800735
0.325000000000000178,-18.302141669534240265
0.326000000000000179,-18.175576702770392501
0.327000000000000179,-18.049254551305850214
0.328000000000000180,-17.923090170339328608
0.329000000000000181,-17.797001822172155983
0.330000000000000182,-17.670911228261640957
0.331000000000000183,-17.544743701920701540
0.332000000000000184,-17.418428262366131065
0.333000000000000185,-17.291897730839796310
0.334000000000000186,-17.165088809543085802
0.335000000000000187,-17.037942144137623757
0.336000000000000187,-16.910402370573599740
0.337000000000000188,-16.782418147011931353
0.338000000000000189,-16.653942171607958755
0.339000000000000190,-16.524931186922856341
0.340000000000000191,-16.395345971724186285
0.341000000000000192,-16.265151320930758772
0.342000000000000193,-16.134316014446660859
0.343000000000000194,-16.002812775618938446
0.344000000000000195,-15.870618220039236945
0.345000000000000195,-15.737712795395415455
0.346000000000000196,-15.604080713062263186
0.347000000000000197,-15.469709872102907156
0.348000000000000198,-15.334591776333766688
0.349000000000000199,-15.198721445085690007
0.350000000000000200,-15.062097318273966806
0.351000000000000201,-14.924721156367979802
0.352000000000000202,-14.786597935829931316
0.353000000000000203,-14.647735740569885365
0.354000000000000203,-14.508145649941701194
0.355000000000000204,-14.367841623781959726
0.356000000000000205,-14.226840384971421116
0.357000000000000206,-14.085161299975746729
0.358000000000000207,-13.942826257799405099
0.359000000000000208,-13.799859547764935286
0.360000000000000209,-13.656287736506891761
0.361000000000000210,-13.512139544548313452
0.362000000000000210,-13.367445722805967989
0.363000000000000211,-13.222238929349495962
0.364000000000000212,-13.076553606719008016
0.365000000000000213,-12.930425860085293266
0.366000000000000214,-12.783893336517490269
0.367000000000000215,-12.636995105603556766
0.368000000000000216,-12.489771541650682707
0.369000000000000217,-12.342264207674542575
0.370000000000000218,-12.194515741369132300
0.371000000000000218,-12.046569743231994920
0.372000000000000219,-11.898470667003667955
0.373000000000000220,-11.750263712564541052
0.374000000000000221,-11.601994721417623779
0.375000000000000222,-11.453710074871228386
0.376000000000000223,-11.305456595022112865
0.377000000000000224,-11.157281448626697795
0.378000000000000225,-11.009232053935409823
0.379000000000000226,-10.861355990553530404
0.380000000000000226,-10.713700912380938135
0.381000000000000227,-10.566314463672128454
0.382000000000000228,-10.419244198248446054
0.383000000000000229,-10.272537501884707822
0.384000000000000230,-10.126241517883432408
0.385000000000000231,-9.980403075842060545
0.386000000000000232,-9.835068623610206728
0.387000000000000233,-9.690284162426989312
0.388000000000000234,-9.546095185221656010
0.389000000000000234,-9.402546618054476113
0.390000000000000235,-9.259682764668738741
0.391000000000000236,-9.117547254119772404
0.392000000000000237,-8.976182991441394421
0.393000000000000238,-8.835632111306155778
0.394000000000000239,-8.695935934631148001
0.395000000000000240,-8.557134928077623215
0.396000000000000241,-8.419268666389280398
0.397000000000000242,-8.282375797510683313
0.398000000000000242,-8.146494010425040955
0.399000000000000243,-8.011660005647708971
0.400000000000000244,-7.877909468309742813
0.401000000000000245,-7.745277043764380309
0.402000000000000246,-7.613796315647192614
0.403000000000000247,-7.483499786319572245
0.404000000000000248,-7.354418859624423987
0.405000000000000249,-7.226583825881609968
0.406000000000000250,-7.100023849050408842
0.407000000000000250,-6.974766955985650441
0.408000000000000251,-6.850840027714002467
0.409000000000000252,-6.728268792656926678
0.410000000000000253,-6.607077821726609734
0.411000000000000254,-6.487290525221875548
0.412000000000000255,-6.368929151451037107
0.413000000000000256,-6.252014787009562369
0.414000000000000257,-6.136567358640668601
0.415000000000000258,-6.022605636608183488
0.416000000000000258,-5.910147239511486461
0.417000000000000259,-5.799208640473478837
0.418000000000000260,-5.689805174633642437
0.419000000000000261,-5.581951047879089245
0.420000000000000262,-5.475659346748101619
0.421000000000000263,-5.370942049441579158
0.422000000000000264,-5.267810037879223195
0.423000000000000265,-5.166273110738712759
0.424000000000000266,-5.066339997417524721
0.425000000000000266,-4.968018372858337806
0.426000000000000267,-4.871314873180630833
0.427000000000000268,-4.776235112062449772
0.428000000000000269,-4.682783697817910706
0.429000000000000270,-4.590964251117499728
0.430000000000000271,-4.500779423299787751
0.431000000000000272,-4.412230915224744976
0.432000000000000273,-4.325319496620402937
0.433000000000000274,-4.240045025876169937
0.434000000000000274,-4.156406470237632433
0.435000000000000275,-4.074401926359310977
0.436000000000000276,-3.994028641173330563
0.437000000000000277,-3.915283033033414739
0.438000000000000278,-3.838160713095390086
0.439000000000000279,-3.762656506896597364
0.440000000000000280,-3.688764476098287393
0.441000000000000281,-3.616477940356475962
0.442000000000000282,-3.545789499288248159
0.443000000000000282,-3.476691054501772182
0.444000000000000283,-3.409173831659926712
0.445000000000000284,-3.343228402548622746
0.446000000000000285,-3.278844707122225088
0.447000000000000286,-3.216012075500151557
0.448000000000000287,-3.154719249889467392
0.449000000000000288,-3.094954406410095338
0.450000000000000289,-3.036705176800149619
0.451000000000000290,-2.979958669980247610
0.452000000000000290,-2.924701493456815182
0.453000000000000291,-2.870919774545554581
0.454000000000000292,-2.818599181397331233
0.455000000000000293,-2.767724943809814153
0.456000000000000294,-2.718281873809346827
0.457000000000000295,-2.670254385988394485
0.458000000000000296,-2.623626517585067042
0.459000000000000297,-2.578381948292046921
0.460000000000000298,-2.534504019783274220
0.461000000000000298,-2.491975754947551636
0.462000000000000299,-2.450779876819212610
0.463000000000000300,-2.410898827196693794
0.464000000000000301,-2.372314784940789956
0.465000000000000302,-2.335009683945085790
0.466000000000000303,-2.298965230771798485
0.467000000000000304,-2.264162921946962115
0.468000000000000305,-2.230584060909747812
0.469000000000000306,-2.198209774611094236
0.470000000000000306,-2.167021029757716821
0.471000000000000307,-2.136998648698019032
0.472000000000000308,-2.108123324947117627
0.473000000000000309,-2.080375638348628264
0.474000000000000310,-2.053736069871533232
0.475000000000000311,-2.028185016040860766
0.476000000000000312,-2.003702803001462751
0.477000000000000313,-1.980269700214511541
0.478000000000000314,-1.957865933786975265
0.479000000000000314,-1.936471699434595406
0.480000000000000315,-1.916067175079285700
0.481000000000000316,-1.896632533082387884
0.482000000000000317,-1.878147952115383656
0.483000000000000318,-1.860593628670163424
0.484000000000000319,-1.843949788211121543
0.485000000000000320,-1.828196695971830765
0.486000000000000321,-1.813314667399096525
0.487000000000000322,-1.799284078247650243
0.488000000000000322,-1.786085374328889142
0.489000000000000323,-1.773699080917315429
0.490000000000000324,-1.762105811818543533
0.491000000000000325,-1.751286278102973215
0.492000000000000326,-1.741221296509322558
0.493000000000000327,-1.731891797522484566
0.494000000000000328,-1.723278833130290177
0.495000000000000329,-1.715363584263850161
0.496000000000000330,-1.708127367926382423
0.497000000000000330,-1.701551644015426801
0.498000000000000331,-1.695618021843602552
0.499000000000000332,-1.690308266362980261
0.500000000000000333,-1.685604304098396344
0.501000000000000334,-1.681488228795024131
0.502000000000000335,-1.677942306785546789
0.503000000000000336,-1.674948982082453908
0.504000000000000337,-1.672490881200879853
0.505000000000000338,-1.670550817717577630
0.506000000000000338,-1.669111796571559392
0.507000000000000339,-1.668157018111979806
0.508000000000000340,-1.667669881898911965
0.509000000000000341,-1.667633990262531452
0.510000000000000342,-1.668033151626433952
0.511000000000000343,-1.668851383600574279
0.512000000000000344,-1.670072915849517559
0.513000000000000345,-1.671682192741493100
0.514000000000000346,-1.673663875783888200
0.515000000000000346,-1.676002845850639744
0.516000000000000347,-1.678684205207044311
0.517000000000000348,-1.681693279337490576
0.518000000000000349,-1.685015618581437780
0.519000000000000350,-1.688636999583095433
0.520000000000000351,-1.692543426560143782
0.521000000000000352,-1.696721132396667553
0.522000000000000353,-1.701156579565645810
0.523000000000000353,-1.705836460886096528
0.524000000000000354,-1.710747700119985115
0.525000000000000355,-1.715877452413974380
0.526000000000000356,-1.721213104590947562
0.527000000000000357,-1.726742275296244244
0.528000000000000358,-1.732452815003477919
0.529000000000000359,-1.738332805884601040
0.530000000000000360,-1.744370561549076326
0.531000000000000361,-1.750554626656629198
0.532000000000000361,-1.756873776408231391
0.533000000000000362,-1.763317015919741326
0.534000000000000363,-1.769873579482625470
0.535000000000000364,-1.776532929716048370
0.536000000000000365,-1.783284756614616384
0.537000000000000366,-1.790118976495887138
0.538000000000000367,-1.797025730851780523
0.539000000000000368,-1.803995385107836302
0.540000000000000369,-1.811018527294289582
0.541000000000000369,-1.818085966632764894
0.542000000000000370,-1.825188732042396511
0.543000000000000371,-1.832318070568980772
0.544000000000000372,-1.839465445740858573
0.545000000000000373,-1.846622535854945069
0.546000000000000374,-1.853781232196427764
0.547000000000000375,-1.860933637195426371
0.548000000000000376,-1.868072062523961963
0.549000000000000377,-1.875189027136370257
0.550000000000000377,-1.882277255256316284
0.551000000000000378,-1.889329674313464436
0.552000000000000379,-1.896339412832736881
0.553000000000000380,-1.903299798279082466
0.554000000000000381,-1.910204354860560061
0.555000000000000382,-1.917046801292474623
0.556000000000000383,-1.923821048525236055
0.557000000000000384,-1.930521197438521241
0.558000000000000385,-1.937141536504292549
0.559000000000000385,-1.943676539421090199
0.560000000000000386,-1.950120862721963944
0.561000000000000387,-1.956469343358410828
0.562000000000000388,-1.962716996262507507
0.563000000000000389,-1.968859011889422916
0.564000000000000390,-1.974890753742410965
0.565000000000000391,-1.980807755882359356
0.566000000000000392,-1.986605720423817001
0.567000000000000393,-1.992280515019444920
0.568000000000000393,-1.997828170334729148
0.569000000000000394,-2.003244877514763100
0.570000000000000395,-2.008526985644791374
0.571000000000000396,-2.013670999206210066
0.572000000000000397,-2.018673575529642328
0.573000000000000398,-2.023531522246608372
0.574000000000000399,-2.028241794741320270
0.575000000000000400,-2.032801493604037724
0.576000000000000401,-2.037207862087362376
0.577000000000000401,-2.041458283566806919
0.578000000000000402,-2.045550279006968175
0.579000000000000403,-2.049481504434464085
0.580000000000000404,-2.053249748418882525
0.581000000000000405,-2.056852929562872134
0.582000000000000406,-2.060289094002419663
0.583000000000000407,-2.063556412918432947
0.584000000000000408,-2.066653180060566086
0.585000000000000409,-2.069577809284262937
0.586000000000000409,-2.072328832101964391
0.587000000000000410,-2.074904895249296555
0.588000000000000411,-2.077304758267117357
0.589000000000000412,-2.079527291100188968
0.590000000000000413,-2.081571471713221655
0.591000000000000414,-2.083436383725052021
0.592000000000000415,-2.085121214061556039
0.593000000000000416,-2.086625250628010519
0.594000000000000417,-2.087947880001489676
0.595000000000000417,-2.089088585143831001
0.596000000000000418,-2.090046943135779767
0.597000000000000419,-2.090822622932772212
0.598000000000000420,-2.091415383142844586
0.599000000000000421,-2.091825069827133010
0.600000000000000422,-2.092051614323364284
0.601000000000000423,-2.092095031092731983
0.602000000000000424,-2.091955415590526890
0.603000000000000425,-2.091632942160861042
0.604000000000000425,-2.091127861955762945
0.605000000000000426,-2.090440500878979257
0.606000000000000427,-2.089571257554706296
0.607000000000000428,-2.088520601321484094
0.608000000000000429,-2.087289070251507894
