# AlFCC111UCD_CS-8009726-AC
# h[nm],U(h)[kJ/mol]
0.200000000000000011,67.138947926244114228
0.201000000000000012,60.100911015178539287
0.202000000000000013,56.293608395293730950
0.203000000000000014,53.971610091845398927
0.204000000000000015,52.149186749387169471
0.205000000000000016,50.323703125679578818
0.206000000000000016,48.286755779672091649
0.207000000000000017,45.998033385361104308
0.208000000000000018,43.503449300333215888
0.209000000000000019,40.884047738175148368
0.210000000000000020,38.225897246266001162
0.211000000000000021,35.603952323733523144
0.212000000000000022,33.074913021384233502
0.213000000000000023,30.675618114061187214
0.214000000000000024,28.424604192275570114
0.215000000000000024,26.325253546782725778
0.216000000000000025,24.369516388432476361
0.217000000000000026,22.541587287887487889
0.218000000000000027,20.821186754127555929
0.219000000000000028,19.186280467859273102
0.220000000000000029,17.615186182202904774
0.221000000000000030,16.088090524270864279
0.222000000000000031,14.588038757735253270
0.223000000000000032,13.101480138755965399
0.224000000000000032,11.618457143375625407
0.225000000000000033,10.132523788420392918
0.226000000000000034,8.640470173663040043
0.227000000000000035,7.141919754689540767
0.228000000000000036,5.638854389748988005
0.229000000000000037,4.135110962319820338
0.230000000000000038,2.635883008047623211
0.231000000000000039,1.147251615297883998
0.232000000000000040,-0.324237935021247536
0.233000000000000040,-1.771943763753328849
0.234000000000000041,-3.189434344442426017
0.235000000000000042,-4.570733915342882092
0.236000000000000043,-5.910508417495396571
0.237000000000000044,-7.204196116029883967
0.238000000000000045,-8.448088434465645946
0.239000000000000046,-9.639367323211084582
0.240000000000000047,-10.776105817948527843
0.241000000000000048,-11.857238429594328721
0.242000000000000048,-12.882507737565115136
0.243000000000000049,-13.852393109360312096
0.244000000000000050,-14.768026905061883980
0.245000000000000051,-15.631102895701053157
0.246000000000000052,-16.443780968901055672
0.247000000000000053,-17.208591543671197144
0.248000000000000054,-17.928342490597081849
0.249000000000000055,-18.606030769253663948
0.250000000000000056,-19.244760461416163366
0.251000000000000056,-19.847668402243638042
0.252000000000000057,-20.417858194425349438
0.253000000000000058,-20.958343032140980711
0.254000000000000059,-21.471997460568086780
0.255000000000000060,-21.961517949225605406
0.256000000000000061,-22.429391959462215311
0.257000000000000062,-22.877875033150687045
0.258000000000000063,-23.308975316166375080
0.259000000000000064,-23.724444851512224375
0.260000000000000064,-24.125776928135930888
0.261000000000000065,-24.514208747939356670
0.262000000000000066,-24.890728670899779473
0.263000000000000067,-25.256087312660309152
0.264000000000000068,-25.610811796852932076
0.265000000000000069,-25.955222502635997728
0.266000000000000070,-26.289451693695475853
0.267000000000000071,-26.613463465891364024
0.268000000000000071,-26.927074504794507703
0.269000000000000072,-27.229975199854862922
0.270000000000000073,-27.521750717464463776
0.271000000000000074,-27.801901689596853373
0.272000000000000075,-28.069864227125435718
0.273000000000000076,-28.325029016663059167
0.274000000000000077,-28.566759306326787282
0.275000000000000078,-28.794407628870875016
0.276000000000000079,-29.007331149937915171
0.277000000000000079,-29.204905564655927463
0.278000000000000080,-29.386537497446333589
0.279000000000000081,-29.551675387774189119
0.280000000000000082,-29.699818868788401716
0.281000000000000083,-29.830526666536236746
0.282000000000000084,-29.943423064892908059
0.283000000000000085,-30.038202995749621493
0.284000000000000086,-30.114635825588283780
0.285000000000000087,-30.172567918586416624
0.286000000000000087,-30.211924063087913339
0.287000000000000088,-30.232707852889397770
0.288000000000000089,-30.235001117565889928
0.289000000000000090,-30.218962497221991015
0.290000000000000091,-30.184825256820964512
0.291000000000000092,-30.132894433819892299
0.292000000000000093,-30.063543410410250800
0.293000000000000094,-29.977209998406824099
0.294000000000000095,-29.874392120900818526
0.295000000000000095,-29.755643170340846382
0.296000000000000096,-29.621567117856642426
0.297000000000000097,-29.472813443510851528
0.298000000000000098,-29.310071951854848038
0.299000000000000099,-29.134067531765673209
0.300000000000000100,-28.945554914127956891
0.301000000000000101,-28.745313475564408634
0.302000000000000102,-28.534142131166117196
0.303000000000000103,-28.312854354074953989
0.304000000000000103,-28.082273354864184967
0.305000000000000104,-27.843227448977330596
0.306000000000000105,-27.596545636045682670
0.307000000000000106,-27.343053410724515118
0.308000000000000107,-27.083568820782875974
0.309000000000000108,-26.818898784554580317
0.310000000000000109,-26.549835676514781824
0.311000000000000110,-26.277154186683425507
0.312000000000000111,-26.001608456772991929
0.313000000000000111,-25.723929493484643416
0.314000000000000112,-25.444822857107343594
0.315000000000000113,-25.164966621577942618
0.316000000000000114,-24.885009600405957997
0.317000000000000115,-24.605569831341728815
0.318000000000000116,-24.327233311358664736
0.319000000000000117,-24.050552972415509601
0.320000000000000118,-23.776047887549275117
0.321000000000000119,-23.504202696109821602
0.322000000000000119,-23.235467236370020316
0.323000000000000120,-22.970256373316239262
0.324000000000000121,-22.708950009130752790
0.325000000000000122,-22.451893263706757864
0.326000000000000123,-22.199396812476503982
0.327000000000000124,-21.951737368870791300
0.328000000000000125,-21.709158298854465130
0.329000000000000126,-21.471870355184499601
0.330000000000000127,-21.240052519306669154
0.331000000000000127,-21.013852939134341824
0.332000000000000128,-20.793389951328311582
0.333000000000000129,-20.578753177113831896
0.334000000000000130,-20.370004681120825296
0.335000000000000131,-20.167180183210739131
0.336000000000000132,-19.970290313750222566
0.337000000000000133,-19.779321903304317942
0.338000000000000134,-19.594239298242996483
0.339000000000000135,-19.414985694282158590
0.340000000000000135,-19.241484480507189403
0.341000000000000136,-19.073640586952386400
0.342000000000000137,-18.911341829328158326
0.343000000000000138,-18.754460244998163887
0.344000000000000139,-18.602853414807253074
0.345000000000000140,-18.456365765846967975
0.346000000000000141,-18.314829850715518944
0.347000000000000142,-18.178067599283544098
0.348000000000000143,-18.045891539413386084
0.349000000000000143,-17.918105983497181199
0.350000000000000144,-17.794508178077840910
0.351000000000000145,-17.674889414195671833
0.352000000000000146,-17.559036096461873910
0.353000000000000147,-17.446730769198644850
0.354000000000000148,-17.337753098303668509
0.355000000000000149,-17.231880807794567545
0.356000000000000150,-17.128890570267149229
0.357000000000000151,-17.028558850759559107
0.358000000000000151,-16.930662703753874609
0.359000000000000152,-16.834980523267173425
0.360000000000000153,-16.741292746186953622
0.361000000000000154,-16.649382509190612467
0.362000000000000155,-16.559036259756965137
0.363000000000000156,-16.470044321930028985
0.364000000000000157,-16.382201417631534923
0.365000000000000158,-16.295307144440918989
0.366000000000000159,-16.209166410869091379
0.367000000000000159,-16.123589830246736199
0.368000000000000160,-16.038394074430428304
0.369000000000000161,-15.953402188599222100
0.370000000000000162,-15.868443868474253478
0.371000000000000163,-15.783355701342097532
0.372000000000000164,-15.697981372301658354
0.373000000000000165,-15.612171837184575907
0.374000000000000166,-15.525785463620556115
0.375000000000000167,-15.438688141732820114
0.376000000000000167,-15.350753365956000707
0.377000000000000168,-15.261862289468623999
0.378000000000000169,-15.171903752726816350
0.379000000000000170,-15.080774287574925552
0.380000000000000171,-14.988378098392223237
0.381000000000000172,-14.894627021715015402
0.382000000000000173,-14.799440465748546103
0.383000000000000174,-14.702745331155693265
0.384000000000000175,-14.604475914478118881
0.385000000000000175,-14.504573795512007095
0.386000000000000176,-14.402987709924664372
0.387000000000000177,-14.299673408359939941
0.388000000000000178,-14.194593503241188515
0.389000000000000179,-14.087717304439143717
0.390000000000000180,-13.979020644930141515
0.391000000000000181,-13.868485697527191292
0.392000000000000182,-13.756100783722866154
0.393000000000000183,-13.641860175638919728
0.394000000000000183,-13.525763892033785041
0.395000000000000184,-13.407817489274668432
0.396000000000000185,-13.288031848137290325
0.397000000000000186,-13.166422957252640558
0.398000000000000187,-13.043011693977041077
0.399000000000000188,-12.917823603419154921
0.400000000000000189,-12.790888676315857353
0.401000000000000190,-12.662241126407689507
0.402000000000000191,-12.531919167924538527
0.403000000000000191,-12.399964793752705106
0.404000000000000192,-12.266423554816531905
0.405000000000000193,-12.131344341170338552
0.406000000000000194,-11.994779165260371911
0.407000000000000195,-11.856782947781738358
0.408000000000000196,-11.717413306521033078
0.409000000000000197,-11.576730348543325277
0.410000000000000198,-11.434796466050427100
0.411000000000000199,-11.291676136207374981
0.412000000000000199,-11.147435725204939416
0.413000000000000200,-11.002143296798674754
0.414000000000000201,-10.855868425538030664
0.415000000000000202,-10.708682014874103317
0.416000000000000203,-10.560656120310598638
0.417000000000000204,-10.411863777739270631
0.418000000000000205,-10.262378837079955574
0.419000000000000206,-10.112275801324384972
0.420000000000000207,-9.961629671063423785
0.421000000000000207,-9.810515794559615088
0.422000000000000208,-9.659009723408772174
0.423000000000000209,-9.507187073819036272
0.424000000000000210,-9.355123393519900077
0.425000000000000211,-9.202894034299868409
0.426000000000000212,-9.050574030158013983
0.427000000000000213,-8.898237981042345979
0.428000000000000214,-8.745959942136515508
0.429000000000000214,-8.593813318645686650
0.430000000000000215,-8.441870766022594452
0.431000000000000216,-8.290204095566162223
0.432000000000000217,-8.138884185316237918
0.433000000000000218,-7.987980896161097633
0.434000000000000219,-7.837562993067190398
0.435000000000000220,-7.687698071334699179
0.436000000000000221,-7.538452487776784672
0.437000000000000222,-7.389891296715641822
0.438000000000000222,-7.242078190684170913
0.439000000000000223,-7.095075445718194374
0.440000000000000224,-6.948943871120979665
0.441000000000000225,-6.803742763578900288
0.442000000000000226,-6.659529865505168900
0.443000000000000227,-6.516361327486012378
0.444000000000000228,-6.374291674702915245
0.445000000000000229,-6.233373777202942279
0.446000000000000230,-6.093658823888680409
0.447000000000000230,-5.955196300098909212
0.448000000000000231,-5.818033968650972554
0.449000000000000232,-5.682217854216073505
0.450000000000000233,-5.547792230899265320
0.451000000000000234,-5.414799612896504577
0.452000000000000235,-5.283280748102295199
0.453000000000000236,-5.153274614542389997
0.454000000000000237,-5.024818419507723455
0.455000000000000238,-4.897947601266947615
0.456000000000000238,-4.772695833237035501
0.457000000000000239,-4.649095030492867764
0.458000000000000240,-4.527175358499340163
0.459000000000000241,-4.406965243950815569
0.460000000000000242,-4.288491387605943395
0.461000000000000243,-4.171778779007325078
0.462000000000000244,-4.056850712978634199
0.463000000000000245,-3.943728807793681845
0.464000000000000246,-3.832433024914996711
0.465000000000000246,-3.722981690201778715
0.466000000000000247,-3.615391516489791179
0.467000000000000248,-3.509677627448435366
0.468000000000000249,-3.405853582623162623
0.469000000000000250,-3.303931403573700631
0.470000000000000251,-3.203921601021764154
0.471000000000000252,-3.105833202924248582
0.472000000000000253,-3.009673783391026980
0.473000000000000254,-2.915449492368913376
0.474000000000000254,-2.823165086016235392
0.475000000000000255,-2.732823957695141637
0.476000000000000256,-2.644428169511361837
0.477000000000000257,-2.557978484334049174
0.478000000000000258,-2.473474398230564475
0.479000000000000259,-2.390914173254075514
0.480000000000000260,-2.310294870524153055
0.481000000000000261,-2.231612383543043254
0.482000000000000262,-2.154861471693072072
0.483000000000000262,-2.080035793862650362
0.484000000000000263,-2.007127942151108790
0.485000000000000264,-1.936129475604679628
0.486000000000000265,-1.867030953938434878
0.487000000000000266,-1.799821971201083670
0.488000000000000267,-1.734491189341708095
0.489000000000000268,-1.671026371639936503
0.490000000000000269,-1.609414415962639566
0.491000000000000270,-1.549641387812820126
0.492000000000000270,-1.491692553137856425
0.493000000000000271,-1.435552410866578255
0.494000000000000272,-1.381204725146183643
0.495000000000000273,-1.328632557252067636
0.496000000000000274,-1.277818297145309812
0.497000000000000275,-1.228743694654114815
0.498000000000000276,-1.181389890257456221
0.499000000000000277,-1.135737445450462513
0.500000000000000222,-1.091766372672812180
0.501000000000000334,-1.049456164782758272
0.502000000000000224,-1.008785824061063430
0.503000000000000336,-0.969733890730039128
0.504000000000000226,-0.932278470974909568
0.505000000000000338,-0.896397264455175424
0.506000000000000227,-0.862067591295746061
0.507000000000000339,-0.829266418547890405
0.508000000000000229,-0.797970386112041075
0.509000000000000341,-0.768155832114871151
0.510000000000000231,-0.739798817734648395
0.511000000000000343,-0.712875151469339663
0.512000000000000233,-0.687360412843414093
0.513000000000000345,-0.663229975549721629
0.514000000000000234,-0.640459030024130072
0.515000000000000346,-0.619022605450924024
0.516000000000000236,-0.598895591198284505
0.517000000000000348,-0.580052757683470088
0.518000000000000238,-0.562468776668267445
0.519000000000000350,-0.546118240985868253
0.520000000000000240,-0.530975683700985468
0.521000000000000352,-0.517015596705559966
0.522000000000000242,-0.504212448753046605
0.523000000000000353,-0.492540702934771424
0.524000000000000243,-0.481974833602307418
0.525000000000000355,-0.472489342740324836
0.526000000000000245,-0.464058775794852774
0.527000000000000357,-0.456657736962151284
0.528000000000000247,-0.450260903944001645
0.529000000000000359,-0.444843042175295467
0.530000000000000249,-0.440379018530426158
0.531000000000000361,-0.436843814515032514
0.532000000000000250,-0.434212538950144444
0.533000000000000362,-0.432460440155845283
0.534000000000000252,-0.431562917641913846
0.535000000000000364,-0.431495533313196677
0.536000000000000254,-0.432234022197373058
0.537000000000000366,-0.433754302703325489
0.538000000000000256,-0.436032486418181597
0.539000000000000368,-0.439044887451379762
0.540000000000000258,-0.442768031334214218
0.541000000000000369,-0.447178663483402683
0.542000000000000259,-0.452253757237273735
0.543000000000000371,-0.457970521473340664
0.544000000000000261,-0.464306407816035993
0.545000000000000373,-0.471239117443354782
0.546000000000000263,-0.478746607501341626
0.547000000000000375,-0.486807097135294242
0.548000000000000265,-0.495399073146489843
0.549000000000000377,-0.504501295283473428
0.550000000000000266,-0.514092801176591729
0.551000000000000378,-0.524152910924848947
0.552000000000000268,-0.534661231343745214
0.553000000000000380,-0.545597659882972152
0.554000000000000270,-0.556942388222696705
0.555000000000000382,-0.568675905557140204
0.556000000000000272,-0.580779001574065257
0.557000000000000384,-0.593232769138725358
0.558000000000000274,-0.606018606690832962
0.559000000000000385,-0.619118220362884331
0.560000000000000275,-0.632513625828200921
0.561000000000000387,-0.646187149886957690
0.562000000000000277,-0.660121431798243008
0.563000000000000389,-0.674299424366318179
0.564000000000000279,-0.688704394788908214
0.565000000000000391,-0.703319925275451396
0.566000000000000281,-0.718129913442896672
0.567000000000000393,-0.733118572496831655
0.568000000000000282,-0.748270431205270148
0.569000000000000394,-0.763570333672600299
0.570000000000000284,-0.779003438920801705
0.571000000000000396,-0.794555220285254826
0.572000000000000286,-0.810211464631958478
0.573000000000000398,-0.825958271403158806
0.574000000000000288,-0.841782051498038419
0.575000000000000400,-0.857669525995249815
0.576000000000000290,-0.873607724723555634
0.577000000000000401,-0.889583984687183693
0.578000000000000291,-0.905585948351945724
0.579000000000000403,-0.921601561798311764
0.580000000000000293,-0.937619072747366666
0.581000000000000405,-0.953627028465598436
0.582000000000000295,-0.969614273554014638
0.583000000000000407,-0.985569947627432441
0.584000000000000297,-1.001483482889145904
0.585000000000000409,-1.017344601606510412
0.586000000000000298,-1.033143313492423943
0.587000000000000410,-1.048869912997984155
0.588000000000000300,-1.064514976521058642
0.589000000000000412,-1.080069359535760665
0.590000000000000302,-1.095524193647343214
0.591000000000000414,-1.110870883577259161
0.592000000000000304,-1.126101104082641413
0.593000000000000416,-1.141206796814680624
0.594000000000000306,-1.156180167119980284
0.595000000000000417,-1.171013680789090738
0.596000000000000307,-1.185700060756017082
0.597000000000000419,-1.200232283752739715
0.598000000000000309,-1.214603576922363093
0.599000000000000421,-1.228807414394507580
0.600000000000000311,-1.242837513826533069
0.601000000000000423,-1.256687832913953251
0.602000000000000313,-1.270352565873289485
0.603000000000000425,-1.283826139900663410
0.604000000000000314,-1.297103211609086815
0.605000000000000426,-1.310178663447549852
0.606000000000000316,-1.323047600104700683
0.607000000000000428,-1.335705344899927427
0.608000000000000318,-1.348147436164564894
0.609000000000000430,-1.360369623615800938
0.610000000000000320,-1.372367864725703823
0.611000000000000432,-1.384138321087946766
0.612000000000000322,-1.395677354784356394
0.613000000000000433,-1.406981524753674107
0.614000000000000323,-1.418047583164587122
0.615000000000000435,-1.428872471795129773
0.616000000000000325,-1.439453318420392813
0.617000000000000437,-1.449787433210520060
0.618000000000000327,-1.459872305140717641
0.619000000000000439,-1.469705598415097958
0.620000000000000329,-1.479285148905991498
0.621000000000000441,-1.488608960610319665
0.622000000000000330,-1.497675202124588267
0.623000000000000442,-1.506482203139935638
0.624000000000000332,-1.515028450958582074
0.625000000000000444,-1.523312587033128995
0.626000000000000334,-1.531333403529793635
0.627000000000000446,-1.539089839916940372
0.628000000000000336,-1.546580979579924797
0.629000000000000448,-1.553806046463396928
0.630000000000000338,-1.560764401742017027
0.631000000000000449,-1.567455540520635626
0.632000000000000339,-1.573879088564751338
0.633000000000000451,-1.580034799062160378
0.634000000000000341,-1.585922549416548533
0.635000000000000453,-1.591542338073880014
0.636000000000000343,-1.596894281382108094
0.637000000000000455,-1.601978610485100818
0.638000000000000345,-1.606795668251127962
0.639000000000000457,-1.611345906236726133
0.640000000000000346,-1.615629881686257985
0.641000000000000458,-1.619648254567816137
0.642000000000000348,-1.623401784645757573
0.643000000000000460,-1.626891328590415187
0.644000000000000350,-1.630117837125238722
0.645000000000000462,-1.633082352211766564
0.646000000000000352,-1.635786004272653971
0.647000000000000464,-1.638230009453109925
0.648000000000000353,-1.640415666920858495
0.649000000000000465,-1.642344356204904487
0.650000000000000355,-1.644017534573232409
0.651000000000000467,-1.645436734449556182
0.652000000000000357,-1.646603560869282390
0.653000000000000469,-1.647519688974667051
0.654000000000000359,-1.648186861549350679
0.655000000000000471,-1.648606886592167697
0.656000000000000361,-1.648781634930307494
0.657000000000000473,-1.648713037871800013
0.658000000000000362,-1.648403084897251292
