# AlFCC111UCD_CS-86862-AC
# h[nm],U(h)[kJ/mol]
0.200000000000000011,52.119967864325147389
0.201000000000000012,46.337785004652616294
0.202000000000000013,43.032916162919214287
0.203000000000000014,40.868909500985317607
0.204000000000000015,39.091801334984886296
0.205000000000000016,37.317814752013092061
0.206000000000000016,35.388448393225196753
0.207000000000000017,33.273731785421844620
0.208000000000000018,31.009472349240013500
0.209000000000000019,28.658123920607948776
0.210000000000000020,26.285759178388111934
0.211000000000000021,23.949754683481110362
0.212000000000000022,21.693371735530170952
0.213000000000000023,19.544573278198292599
0.214000000000000024,17.517259790492524019
0.215000000000000024,15.613714452563788981
0.216000000000000025,13.827480097090965927
0.217000000000000026,12.146193305785413230
0.218000000000000027,10.554109087523325883
0.219000000000000028,9.034188916541051384
0.220000000000000029,7.569714993114526003
0.221000000000000030,6.145448888221582529
0.222000000000000031,4.748383918951289751
0.223000000000000032,3.368155468815507536
0.224000000000000032,1.997177649762407636
0.225000000000000033,0.630572216649581962
0.226000000000000034,-0.734050694271359938
0.227000000000000035,-2.096908692089054060
0.228000000000000036,-3.456417707647626347
0.229000000000000037,-4.809583310936640821
0.230000000000000038,-6.152387085910107523
0.231000000000000039,-7.480149459023318848
0.232000000000000040,-8.787856404680116640
0.233000000000000040,-10.070442419658579780
0.234000000000000041,-11.323026128321048489
0.235000000000000042,-12.541097946648653405
0.236000000000000043,-13.720661509357118035
0.237000000000000044,-14.858332169132179246
0.238000000000000045,-15.951396925795444659
0.239000000000000046,-16.997840743163269650
0.240000000000000047,-17.996344458691872603
0.241000000000000048,-18.946259469669783471
0.242000000000000048,-19.847564161315990106
0.243000000000000049,-20.700806686389935152
0.244000000000000050,-21.507038261593496742
0.245000000000000051,-22.267740652143110935
0.246000000000000052,-22.984751002815947629
0.247000000000000053,-23.660186664613050311
0.248000000000000054,-24.296372177823798211
0.249000000000000055,-24.895770116511386050
0.250000000000000056,-25.460917083914626602
0.251000000000000056,-25.994365777319494271
0.252000000000000057,-26.498633716368921398
0.253000000000000058,-26.976158950363043232
0.254000000000000059,-27.429262826237156503
0.255000000000000060,-27.860119706946441909
0.256000000000000061,-28.270733376631277167
0.257000000000000062,-28.662919750475715830
0.258000000000000063,-29.038295419716831702
0.259000000000000064,-29.398271501908418202
0.260000000000000064,-29.744052229482001337
0.261000000000000065,-30.076637692269862612
0.262000000000000066,-30.396830148593160459
0.263000000000000067,-30.705243331693207409
0.264000000000000068,-31.002314200924200094
0.265000000000000069,-31.288316617767769401
0.266000000000000070,-31.563376463215838896
0.267000000000000071,-31.827487753539521975
0.268000000000000071,-32.080529354330202807
0.269000000000000072,-32.322281936638439959
0.270000000000000073,-32.552444862951837479
0.271000000000000074,-32.770652733760698538
0.272000000000000075,-32.976491366865573696
0.273000000000000076,-33.169513020849564100
0.274000000000000077,-33.349250710884867033
0.275000000000000078,-33.515231498997955839
0.276000000000000079,-33.666988671921828313
0.277000000000000079,-33.804072747638748808
0.278000000000000080,-33.926061276659268628
0.279000000000000081,-34.032567426046412606
0.280000000000000082,-34.123247353275296234
0.281000000000000083,-34.197806393352465193
0.282000000000000084,-34.256004096363206202
0.283000000000000085,-34.297658163948369747
0.284000000000000086,-34.322647342320578900
0.285000000000000087,-34.330913336508515954
0.286000000000000087,-34.322461815762686399
0.287000000000000088,-34.297362583658546953
0.288000000000000089,-34.255748988581963488
0.289000000000000090,-34.197816651157211254
0.290000000000000091,-34.123821584949133978
0.291000000000000092,-34.034077785601496657
0.292000000000000093,-33.928954361608958834
0.293000000000000094,-33.808872277300814346
0.294000000000000095,-33.674300775464338642
0.295000000000000095,-33.525753543469605233
0.296000000000000096,-33.363784682877295040
0.297000000000000097,-33.188984538407623859
0.298000000000000098,-33.001975437903411148
0.299000000000000099,-32.803407390602743021
0.300000000000000100,-32.593953786708553366
0.301000000000000101,-32.374307136955266628
0.302000000000000102,-32.145174886671426862
0.303000000000000103,-31.907275334757315477
0.304000000000000103,-31.661333684068996064
0.305000000000000104,-31.408078245948690466
0.306000000000000105,-31.148236818083820054
0.307000000000000106,-30.882533251526599116
0.308000000000000107,-30.611684219574236465
0.309000000000000108,-30.336396198298650972
0.310000000000000109,-30.057362665829522541
0.311000000000000110,-29.775261525033254628
0.312000000000000111,-29.490752751990520153
0.313000000000000111,-29.204476270651717584
0.314000000000000112,-28.917050052236646707
0.315000000000000113,-28.629068436333362513
0.316000000000000114,-28.341100669233576070
0.317000000000000115,-28.053689653807925453
0.318000000000000116,-27.767350904163457415
0.319000000000000117,-27.482571697428266333
0.320000000000000118,-27.199810414261651914
0.321000000000000119,-26.919496059083751760
0.322000000000000119,-26.642027950543358372
0.323000000000000120,-26.367775572387763816
0.324000000000000121,-26.097078574651497718
0.325000000000000122,-25.830246914934054558
0.326000000000000123,-25.567561129477503812
0.327000000000000124,-25.309272723776608416
0.328000000000000125,-25.055604672545818801
0.329000000000000126,-24.806752019022248135
0.330000000000000127,-24.562882563791628598
0.331000000000000127,-24.324137633581088380
0.332000000000000128,-24.090632920757375501
0.333000000000000129,-23.862459384598832202
0.334000000000000130,-23.639684205765963299
0.335000000000000131,-23.422351785774885968
0.336000000000000132,-23.210484783673411613
0.337000000000000133,-23.004085182528488218
0.338000000000000134,-22.803135378750621243
0.339000000000000135,-22.607599287702598190
0.340000000000000135,-22.417423459462966662
0.341000000000000136,-22.232538199036007143
0.342000000000000137,-22.052858685717446008
0.343000000000000138,-21.878286086735791116
0.344000000000000139,-21.708708660691243608
0.345000000000000140,-21.544002846706838739
0.346000000000000141,-21.384034335586115105
0.347000000000000142,-21.228659119639878838
0.348000000000000143,-21.077724518198124315
0.349000000000000143,-20.931070176162418051
0.350000000000000144,-20.788529033278109637
0.351000000000000145,-20.649928262113853350
0.352000000000000146,-20.515090173028692533
0.353000000000000147,-20.383833084682930092
0.354000000000000148,-20.255972158909472114
0.355000000000000149,-20.131320199006218274
0.356000000000000150,-20.009688410738672104
0.357000000000000151,-19.890887125554293391
0.358000000000000151,-19.774726485707482482
0.359000000000000152,-19.661017091176500315
0.360000000000000153,-19.549570608421344531
0.361000000000000154,-19.440200341185303046
0.362000000000000155,-19.332721763683188954
0.363000000000000156,-19.226953016646326944
0.364000000000000157,-19.122715366808741067
0.365000000000000158,-19.019833630522292367
0.366000000000000159,-18.918136562279151747
0.367000000000000159,-18.817457209000849616
0.368000000000000160,-18.717633231023793172
0.369000000000000161,-18.618507190771218518
0.370000000000000162,-18.519926810153702235
0.371000000000000163,-18.421745197783486958
0.372000000000000164,-18.323821047122677896
0.373000000000000165,-18.226018806713931042
0.374000000000000166,-18.128208823662443905
0.375000000000000167,-18.030267461553094677
0.376000000000000167,-17.932077193995329623
0.377000000000000168,-17.833526674991190930
0.378000000000000169,-17.734510787320939329
0.379000000000000170,-17.634930670133918795
0.380000000000000171,-17.534693726922441215
0.381000000000000172,-17.433713615042428557
0.382000000000000173,-17.331910217926996154
0.383000000000000174,-17.229209601119393369
0.384000000000000175,-17.125543953228309135
0.385000000000000175,-17.020851512883673706
0.386000000000000176,-16.915076482743778286
0.387000000000000177,-16.808168931575373506
0.388000000000000178,-16.700084685398412176
0.389000000000000179,-16.590785208654843075
0.390000000000000180,-16.480237476328763790
0.391000000000000181,-16.368413837911269582
0.392000000000000182,-16.255291874069737190
0.393000000000000183,-16.140854246846338071
0.394000000000000183,-16.025088544176192329
0.395000000000000184,-15.907987119480669236
0.396000000000000185,-15.789546927056264281
0.397000000000000186,-15.669769353945337542
0.398000000000000187,-15.548660048940186940
0.399000000000000188,-15.426228749338212864
0.400000000000000189,-15.302489106032348687
0.401000000000000190,-15.177458507487987305
0.402000000000000191,-15.051157903125357507
0.403000000000000191,-14.923611626594546209
0.404000000000000192,-14.794847219399699156
0.405000000000000193,-14.664895255298574739
0.406000000000000194,-14.533789165874585692
0.407000000000000195,-14.401565067650082597
0.408000000000000196,-14.268261591081866868
0.409000000000000197,-14.133919711753728521
0.410000000000000198,-13.998582584054934941
0.411000000000000199,-13.862295377608990776
0.412000000000000199,-13.725105116693068652
0.413000000000000200,-13.587060522866233114
0.414000000000000201,-13.448211861002079104
0.415000000000000202,-13.308610788901040323
0.416000000000000203,-13.168310210637645952
0.417000000000000204,-13.027364133778679189
0.418000000000000205,-12.885827530590583834
0.419000000000000206,-12.743756203337087030
0.420000000000000207,-12.601206653751575004
0.421000000000000207,-12.458235956753926033
0.422000000000000208,-12.314901638466240641
0.423000000000000209,-12.171261558568952310
0.424000000000000210,-12.027373797025429525
0.425000000000000211,-11.883296545191235793
0.426000000000000212,-11.739088001313071175
0.427000000000000213,-11.594806270411538662
0.428000000000000214,-11.450509268532423235
0.429000000000000214,-11.306254631341552397
0.430000000000000215,-11.162099627030205085
0.431000000000000216,-11.018101073490157660
0.432000000000000217,-10.874315259709906201
0.433000000000000218,-10.730797871337383498
0.434000000000000219,-10.587603920348238162
0.435000000000000220,-10.444787678753261417
0.436000000000000221,-10.302402616273521829
0.437000000000000222,-10.160501341907361095
0.438000000000000222,-10.019135549309321931
0.439000000000000223,-9.878355965897577917
0.440000000000000224,-9.738212305603157759
0.441000000000000225,-9.598753225171666514
0.442000000000000226,-9.460026283925857982
0.443000000000000227,-9.322077906895236410
0.444000000000000228,-9.184953351217465922
0.445000000000000229,-9.048696675714866799
0.446000000000000230,-8.913350713548322091
0.447000000000000230,-8.778957047850189710
0.448000000000000231,-8.645555990237337340
0.449000000000000232,-8.513186562105143906
0.450000000000000233,-8.381886478603407298
0.451000000000000234,-8.251692135195304090
0.452000000000000235,-8.122638596700912927
0.453000000000000236,-7.994759588727447408
0.454000000000000237,-7.868087491389294641
0.455000000000000238,-7.742653335221554300
0.456000000000000238,-7.618486799192298875
0.457000000000000239,-7.495616210719473926
0.458000000000000240,-7.374068547600411527
0.459000000000000241,-7.253869441762437198
0.460000000000000242,-7.135043184745667233
0.461000000000000243,-7.017612734829754118
0.462000000000000244,-6.901599725718829070
0.463000000000000245,-6.787024476700088016
0.464000000000000246,-6.673906004193739250
0.465000000000000246,-6.562262034613780770
0.466000000000000247,-6.452109018460904899
0.467000000000000248,-6.343462145570955890
0.468000000000000249,-6.236335361444476533
0.469000000000000250,-6.130741384584624143
0.470000000000000251,-6.026691724773095338
0.471000000000000252,-5.924196702215541066
0.472000000000000253,-5.823265467490286618
0.473000000000000254,-5.723906022235964564
0.474000000000000254,-5.626125240515995607
0.475000000000000255,-5.529928890799781449
0.476000000000000256,-5.435321658502608066
0.477000000000000257,-5.342307169028341463
0.478000000000000258,-5.250888011260880894
0.479000000000000259,-5.161065761452570122
0.480000000000000260,-5.072841007459620855
0.481000000000000261,-4.986213373276506822
0.482000000000000262,-4.901181543823528663
0.483000000000000262,-4.817743289943231311
0.484000000000000263,-4.735895493563651470
0.485000000000000264,-4.655634172987880959
0.486000000000000265,-4.576954508271523281
0.487000000000000266,-4.499850866651212478
0.488000000000000267,-4.424316827989089873
0.489000000000000268,-4.350345210200103452
0.490000000000000269,-4.277928094630217615
0.491000000000000270,-4.207056851355704730
0.492000000000000270,-4.137722164374876499
0.493000000000000271,-4.069914056665494329
0.494000000000000272,-4.003621915082296034
0.495000000000000273,-3.938834515070749998
0.496000000000000274,-3.875540045174541426
0.497000000000000275,-3.813726131315461565
0.498000000000000276,-3.753379860826052461
0.499000000000000277,-3.694487806216347536
0.500000000000000222,-3.637036048657463105
0.501000000000000334,-3.581010201165926610
0.502000000000000224,-3.526395431473975606
0.503000000000000336,-3.473176484571761868
0.504000000000000226,-3.421337704909185540
0.505000000000000338,-3.370863058245265442
0.506000000000000227,-3.321736153134932756
0.507000000000000339,-3.273940262043069538
0.508000000000000229,-3.227458342077583975
0.509000000000000341,-3.182273055333314282
0.510000000000000231,-3.138366788840176280
0.511000000000000343,-3.095721674109090493
0.512000000000000233,-3.054319606270704757
0.513000000000000345,-3.014142262802049110
0.514000000000000234,-2.975171121837634214
0.515000000000000346,-2.937387480061474765
0.516000000000000236,-2.900772470177923612
0.517000000000000348,-2.865307077959216464
0.518000000000000238,-2.830972158868653388
0.519000000000000350,-2.797748454258628392
0.520000000000000240,-2.765616607143509320
0.521000000000000352,-2.734557177547634055
0.522000000000000242,-2.704550657429407590
0.523000000000000353,-2.675577485182774939
0.524000000000000243,-2.647618059717908867
0.525000000000000355,-2.620652754123216965
0.526000000000000245,-2.594661928911384141
0.527000000000000357,-2.569625944852220290
0.528000000000000247,-2.545525175395817019
0.529000000000000359,-2.522340018689384067
0.530000000000000249,-2.500050909191902537
0.531000000000000361,-2.478638328890581555
0.532000000000000250,-2.458082818123775048
0.533000000000000362,-2.438364986014843083
0.534000000000000252,-2.419465520522017243
0.535000000000000364,-2.401365198109366883
0.536000000000000254,-2.384044893044126479
0.537000000000000366,-2.367485586325894786
0.538000000000000256,-2.351668374253414129
0.539000000000000368,-2.336574476634573294
0.540000000000000258,-2.322185244645726954
0.541000000000000369,-2.308482168346191354
0.542000000000000259,-2.295446883854195264
0.543000000000000371,-2.283061180190375516
0.544000000000000261,-2.271307005795277334
0.545000000000000373,-2.260166474727047792
0.546000000000000263,-2.249621872545908730
0.547000000000000375,-2.239655661891768457
0.548000000000000265,-2.230250487761540779
0.549000000000000377,-2.221389182492690573
0.550000000000000266,-2.213054770459510046
0.551000000000000378,-2.205230472488767912
0.552000000000000268,-2.197899710001245399
0.553000000000000380,-2.191046108885674748
0.554000000000000270,-2.184653503111724238
0.555000000000000382,-2.178705938088438820
0.556000000000000272,-2.173187673774733764
0.557000000000000384,-2.168083187548272228
0.558000000000000274,-2.163377176839324623
0.559000000000000385,-2.159054561535817207
0.560000000000000275,-2.155100486166016349
0.561000000000000387,-2.151500321865082110
0.562000000000000277,-2.148239668131693758
0.563000000000000389,-2.145304354380953349
0.564000000000000279,-2.142680441299626093
0.565000000000000391,-2.140354222009764218
0.566000000000000281,-2.138312223046614058
0.567000000000000393,-2.136541205156771817
0.568000000000000282,-2.135028163922322086
0.569000000000000394,-2.133760330216687429
0.570000000000000284,-2.132725170497827616
0.571000000000000396,-2.131910386944382729
0.572000000000000286,-2.131303917440170004
0.573000000000000398,-2.130893935412433216
0.574000000000000288,-2.130668849529118170
0.575000000000000400,-2.130617303260445627
0.576000000000000290,-2.130728174309759915
0.577000000000000401,-2.130990573918791764
0.578000000000000291,-2.131393846052183072
0.579000000000000403,-2.131927566466102597
0.580000000000000293,-2.132581541665708791
0.581000000000000405,-2.133345807756110712
0.582000000000000295,-2.134210629191284792
0.583000000000000407,-2.135166497425505128
0.584000000000000297,-2.136204129471529267
0.585000000000000409,-2.137314466369891530
0.586000000000000298,-2.138488671573368194
0.587000000000000410,-2.139718129250759659
0.588000000000000300,-2.140994442513895368
0.589000000000000412,-2.142309431571784550
0.590000000000000302,-2.143655131815647152
0.591000000000000414,-2.145023791838564176
0.592000000000000304,-2.146407871393297917
0.593000000000000416,-2.147800039291805074
0.594000000000000306,-2.149193171249860868
0.595000000000000417,-2.150580347680126181
0.596000000000000307,-2.151954851436831184
0.597000000000000419,-2.153310165515310182
0.598000000000000309,-2.154639970709406604
0.599000000000000421,-2.155938143229672921
0.600000000000000311,-2.157198752285343968
0.601000000000000423,-2.158416057632830842
0.602000000000000313,-2.159584507093456285
0.603000000000000425,-2.160698734043092539
0.604000000000000314,-2.161753554876262751
0.605000000000000426,-2.162743966447156385
0.606000000000000316,-2.163665143490017151
0.607000000000000428,-2.164512436021134079
0.608000000000000318,-2.165281366724816969
0.609000000000000430,-2.165967628325431882
0.610000000000000320,-2.166567080947615409
0.611000000000000432,-2.167075749466761625
0.612000000000000322,-2.167489820851660198
0.613000000000000433,-2.167805641501250768
0.614000000000000323,-2.168019714577279711
0.615000000000000435,-2.168128697334643640
0.616000000000000325,-2.168129398451076550
0.617000000000000437,-2.168018775357885453
0.618000000000000327,-2.167793931573222643
0.619000000000000439,-2.167452114039460032
0.620000000000000329,-2.166990710466111913
0.621000000000000441,-2.166407246679654008
0.622000000000000330,-2.165699383981648740
0.623000000000000442,-2.164864916516388682
0.624000000000000332,-2.163901768649307833
0.625000000000000444,-2.162807992357368647
0.626000000000000334,-2.161581764632479086
0.627000000000000446,-2.160221384899073449
0.628000000000000336,-2.158725272446844201
0.629000000000000448,-2.157091963879611107
0.630000000000000338,-2.155320110581241622
0.631000000000000449,-2.153408476199524912
0.632000000000000339,-2.151355934148843296
0.633000000000000451,-2.149161465132380044
0.634000000000000341,-2.146824154684687791
0.635000000000000453,-2.144343190735300109
0.636000000000000343,-2.141717861194019967
0.637000000000000455,-2.138947551558612936
0.638000000000000345,-2.136031742545382528
0.639000000000000457,-2.132970007743292040
0.640000000000000346,-2.129762011292088530
0.641000000000000458,-2.126407505584963609
0.642000000000000348,-2.122906328996161385
0.643000000000000460,-2.119258403634010079
0.644000000000000350,-2.115463733119738343
0.645000000000000462,-2.111522400392439991
0.646000000000000352,-2.107434565540521110
0.647000000000000464,-2.103200463659965269
0.648000000000000353,-2.098820402739643320
0.649000000000000465,-2.094294761573952446
0.650000000000000355,-2.089623987703022934
0.651000000000000467,-2.084808595380630347
0.652000000000000357,-2.079849163570087978
0.653000000000000469,-2.074746333968149781
0.654000000000000359,-2.069500809057195578
0.655000000000000471,-2.064113350185673657
0.656000000000000361,-2.058584775676979284
0.657000000000000473,-2.052915958966809562
0.658000000000000362,-2.047107826769029693
