# AlFCC111UCD_METHANAL-AC
# h[nm],U(h)[kJ/mol]
0.200000000000000011,40.307312001699088455
0.201000000000000012,38.337724699415630880
0.202000000000000013,36.958649081921777224
0.203000000000000014,35.793820640309775172
0.204000000000000015,34.658465833658617328
0.205000000000000016,33.479893443326020019
0.206000000000000016,32.246200694639917117
0.207000000000000017,30.974287359158665822
0.208000000000000018,29.690879098314070461
0.209000000000000019,28.422106153074356172
0.210000000000000020,27.188530672742292182
0.211000000000000021,26.003491535726613648
0.212000000000000022,24.873335068623372734
0.213000000000000023,23.798595903830225495
0.214000000000000024,22.775538751283455952
0.215000000000000024,21.797709878743791734
0.216000000000000025,20.857306999187091634
0.217000000000000026,19.946280582556333627
0.218000000000000027,19.057144924029017830
0.219000000000000028,18.183515719838617031
0.220000000000000029,17.320411183606598371
0.221000000000000030,16.464362147584473917
0.222000000000000031,15.613377557278379726
0.223000000000000032,14.766808354576991036
0.224000000000000032,13.925147039038034080
0.225000000000000033,13.089793575661909486
0.226000000000000034,12.262811652356871761
0.227000000000000035,11.446693100501040163
0.228000000000000036,10.644142854473439996
0.229000000000000037,9.857892255873041520
0.230000000000000038,9.090544816264266359
0.231000000000000039,8.344455686091599489
0.232000000000000040,7.621643949098016790
0.233000000000000040,6.923735367353532233
0.234000000000000041,6.251932234623896356
0.235000000000000042,5.607006452546229980
0.236000000000000043,4.989311731266428573
0.237000000000000044,4.398810851563285773
0.238000000000000045,3.835114138943478856
0.239000000000000046,3.297525633619108554
0.240000000000000047,2.785093846722851652
0.241000000000000048,2.296664435648664071
0.242000000000000048,1.830932581852350083
0.243000000000000049,1.386493292059053584
0.244000000000000050,0.961888254049447111
0.245000000000000051,0.555648251496231760
0.246000000000000052,0.166330473172271731
0.247000000000000053,-0.207449662177087546
0.248000000000000054,-0.566992302993214792
0.249000000000000055,-0.913492524113659998
0.250000000000000056,-1.248025030901934063
0.251000000000000056,-1.571533870973938818
0.252000000000000057,-1.884826728957511133
0.253000000000000058,-2.188573321253490356
0.254000000000000059,-2.483307373910018434
0.255000000000000060,-2.769431653465479037
0.256000000000000061,-3.047225524205910752
0.257000000000000062,-3.316854522275689110
0.258000000000000063,-3.578381464384400967
0.259000000000000064,-3.831778643737412615
0.260000000000000064,-4.076940705916671348
0.261000000000000065,-4.313697840733369482
0.262000000000000066,-4.541828970879205229
0.263000000000000067,-4.761074663131563689
0.264000000000000068,-4.971149531813649602
0.265000000000000069,-5.171753946308517591
0.266000000000000070,-5.362584894028157301
0.267000000000000071,-5.543345886885010287
0.268000000000000071,-5.713755832698891979
0.269000000000000072,-5.873556822930358301
0.270000000000000073,-6.022520814601058703
0.271000000000000074,-6.160455207273196621
0.272000000000000075,-6.287207335614375836
0.273000000000000076,-6.402667914523734183
0.274000000000000077,-6.506773487235842701
0.275000000000000078,-6.599507937470607821
0.276000000000000079,-6.680903134800290744
0.277000000000000079,-6.751038788206928487
0.278000000000000080,-6.810041586554349990
0.279000000000000081,-6.858083706646496580
0.280000000000000082,-6.895380769926029885
0.281000000000000083,-6.922189327912198209
0.282000000000000084,-6.938803954399309859
0.283000000000000085,-6.945554019435519422
0.284000000000000086,-6.942800216358740784
0.285000000000000087,-6.930930908849086691
0.286000000000000087,-6.910358360213574080
0.287000000000000088,-6.881514902082470186
0.288000000000000089,-6.844849094483589802
0.289000000000000090,-6.800821923973002114
0.290000000000000091,-6.749903081224404744
0.291000000000000092,-6.692567354288716963
0.292000000000000093,-6.629291168690987668
0.293000000000000094,-6.560549300683652163
0.294000000000000095,-6.486811785362616156
0.295000000000000095,-6.408541037005640817
0.296000000000000096,-6.326189194934050519
0.297000000000000097,-6.240195704442432323
0.298000000000000098,-6.150985138896152726
0.299000000000000099,-6.058965265966214986
0.300000000000000100,-5.964525358153459855
0.301000000000000101,-5.868034745243750905
0.302000000000000102,-5.769841604125269363
0.303000000000000103,-5.670271979475193902
0.304000000000000103,-5.569629027174451963
0.305000000000000104,-5.468192470920091530
0.306000000000000105,-5.366218261359509079
0.307000000000000106,-5.263938426152313887
0.308000000000000107,-5.161561098657482916
0.309000000000000108,-5.059270712427617944
0.310000000000000109,-4.957228348351739200
0.311000000000000110,-4.855572221106542408
0.312000000000000111,-4.754418291535884578
0.313000000000000111,-4.653860991664787505
0.314000000000000112,-4.553974049251428902
0.315000000000000113,-4.454811399073934197
0.316000000000000114,-4.356408168525369717
0.317000000000000115,-4.258781725536410434
0.318000000000000116,-4.161932777349545809
0.319000000000000117,-4.065846509220147453
0.320000000000000118,-3.970493752708006419
0.321000000000000119,-3.875832173838838379
0.322000000000000119,-3.781807472050844776
0.323000000000000120,-3.688354581488198392
0.324000000000000121,-3.595398866855546771
0.325000000000000122,-3.502857306698603956
0.326000000000000123,-3.410639657620705201
0.327000000000000124,-3.318649593578830270
0.328000000000000125,-3.226785815021933068
0.329000000000000126,-3.134943123234861240
0.330000000000000127,-3.043013455830814618
0.331000000000000127,-2.950886879891843506
0.332000000000000128,-2.858452539787542879
0.333000000000000129,-2.765599557206646963
0.334000000000000130,-2.672217881412670692
0.335000000000000131,-2.578199088182853593
0.336000000000000132,-2.483437126308851717
0.337000000000000133,-2.387829010927831508
0.338000000000000134,-2.291275463313609428
0.339000000000000135,-2.193681497090635979
0.340000000000000135,-2.094956951137544543
0.341000000000000136,-1.995016969724522582
0.342000000000000137,-1.893782430678970119
0.343000000000000138,-1.791180322598617369
0.344000000000000139,-1.687144072331010491
0.345000000000000140,-1.581613824114682654
0.346000000000000141,-1.474536671930534837
0.347000000000000142,-1.365866846744216989
0.348000000000000143,-1.255565860432121594
0.349000000000000143,-1.143602608276147015
0.350000000000000144,-1.029953431987417733
0.351000000000000145,-0.914602145277259693
0.352000000000000146,-0.797540024036318185
0.353000000000000147,-0.678765763211142792
0.354000000000000148,-0.558285402482688653
0.355000000000000149,-0.436112222854080744
0.356000000000000150,-0.312266616247218243
0.357000000000000151,-0.186775930189669287
0.358000000000000151,-0.059674289646345538
0.359000000000000152,0.068997601984558884
0.360000000000000153,0.199192680734162658
0.361000000000000154,0.330857756855114093
0.362000000000000155,0.463933764668840620
0.363000000000000156,0.598356025651647472
0.364000000000000157,0.734054523006451021
0.365000000000000158,0.870954186032922073
0.366000000000000159,1.008975182677560589
0.367000000000000159,1.148033218716514536
0.368000000000000160,1.288039842095984655
0.369000000000000161,1.428902751029321738
0.370000000000000162,1.570526104524007982
0.371000000000000163,1.712810834086149425
0.372000000000000164,1.855654955425144026
0.373000000000000165,1.998953879054520710
0.374000000000000166,2.142600718758917555
0.375000000000000167,2.286486596968695384
0.376000000000000167,2.430500946155147002
0.377000000000000168,2.574531805428385667
0.378000000000000169,2.718466111587825029
0.379000000000000170,2.862189983940902405
0.380000000000000171,3.005589002269911880
0.381000000000000172,3.148548477388065869
0.382000000000000173,3.290953713786021417
0.383000000000000174,3.432690263926913676
0.384000000000000175,3.573644173803267599
0.385000000000000175,3.713702219421347372
0.386000000000000176,3.852752133929052913
0.387000000000000177,3.990682825150793978
0.388000000000000178,4.127384583338306712
0.389000000000000179,4.262749278989203638
0.390000000000000180,4.396670550625321638
0.391000000000000181,4.529043982461438134
0.392000000000000182,4.659767271929966093
0.393000000000000183,4.788740387061539039
0.394000000000000183,4.915865713751850663
0.395000000000000184,5.041048192974432851
0.396000000000000185,5.164195448026040580
0.397000000000000186,5.285217901915695293
0.398000000000000187,5.404028885031531004
0.399000000000000188,5.520544733240432933
0.400000000000000189,5.634684876593945013
0.401000000000000190,5.746371918831879810
0.402000000000000191,5.855531707889552351
0.403000000000000191,5.962093397629149472
0.404000000000000192,6.065989501027434727
0.405000000000000193,6.167155935062835326
0.406000000000000194,6.265532057554287881
0.407000000000000195,6.361060696211964682
0.408000000000000196,6.453688170166732796
0.409000000000000197,6.543364304250580687
0.410000000000000198,6.630042436304473874
0.411000000000000199,6.713679417793230186
0.412000000000000199,6.794235608009406846
0.413000000000000200,6.871674862149044216
0.414000000000000201,6.945964513542827845
0.415000000000000202,7.017075350325605143
0.416000000000000203,7.084981586825807476
0.417000000000000204,7.149660829954797236
0.418000000000000205,7.211094040873122779
0.419000000000000206,7.269265492207845014
0.420000000000000207,7.324162721091266981
0.421000000000000207,7.375776478287076721
0.422000000000000208,7.424100673665483541
0.423000000000000209,7.469132318283736360
0.424000000000000210,7.510871463322983388
0.425000000000000211,7.549321136126804888
0.426000000000000212,7.584487273580651667
0.427000000000000213,7.616378653065224213
0.428000000000000214,7.645006821210269088
0.429000000000000214,7.670386020668788163
0.430000000000000215,7.692533115124689402
0.431000000000000216,7.711467512740101782
0.432000000000000217,7.727211088241586090
0.433000000000000218,7.739788103837315525
0.434000000000000219,7.749225129150270952
0.435000000000000220,7.755550960345384048
0.436000000000000221,7.758796538621304251
0.437000000000000222,7.758994868230500330
0.438000000000000222,7.756180934184252251
0.439000000000000223,7.750391619791967557
0.440000000000000224,7.741665624177622718
0.441000000000000225,7.730043379908755341
0.442000000000000226,7.715566970867088870
0.443000000000000227,7.698280050482930292
0.444000000000000228,7.678227760449003014
0.445000000000000229,7.655456650022887111
0.446000000000000230,7.630014596020838091
0.447000000000000230,7.601950723599858684
0.448000000000000231,7.571315327918425098
0.449000000000000232,7.538159796760657727
0.450000000000000233,7.502536534203045449
0.451000000000000234,7.464498885396838368
0.452000000000000235,7.424101062534364637
0.453000000000000236,7.381398072061736926
0.454000000000000237,7.336445643195638411
0.455000000000000238,7.289300157796832380
0.456000000000000238,7.240018581648207885
0.457000000000000239,7.188658397180719639
0.458000000000000240,7.135277537686008031
0.459000000000000241,7.079934323050212086
0.460000000000000242,7.022687397039531376
0.461000000000000243,6.963595666163939768
0.462000000000000244,6.902718240141855865
0.463000000000000245,6.840114373984822471
0.464000000000000246,6.775843411717850984
0.465000000000000246,6.709964731747804834
0.466000000000000247,6.642537693888939998
0.467000000000000248,6.573621588051821618
0.468000000000000249,6.503275584598990910
0.469000000000000250,6.431558686367887745
0.470000000000000251,6.358529682359214341
0.471000000000000252,6.284247103086291197
0.472000000000000253,6.208769177578721710
0.473000000000000254,6.132153792031611594
0.474000000000000254,6.054458450089433619
0.475000000000000255,5.975740234751760305
0.476000000000000256,5.896055771886326902
0.477000000000000257,5.815461195333244682
0.478000000000000258,5.734012113582423353
0.479000000000000259,5.651763578005208899
0.480000000000000260,5.568770052619445465
0.481000000000000261,5.485085385366277322
0.482000000000000262,5.400762780875683511
0.483000000000000262,5.315854774696823881
0.484000000000000263,5.230413208968139216
0.485000000000000264,5.144489209501531768
0.486000000000000265,5.058133164253906244
0.487000000000000266,4.971394703158869888
0.488000000000000267,4.884322679290687752
0.489000000000000268,4.796965151331965771
0.490000000000000269,4.709369367316223354
0.491000000000000270,4.621581749615973678
0.492000000000000270,4.533647881146640302
0.493000000000000271,4.445612492756344736
0.494000000000000272,4.357519451771498353
0.495000000000000273,4.269411751667592902
0.496000000000000274,4.181331502835091030
0.497000000000000275,4.093319924409622779
0.498000000000000276,4.005417337136035982
0.499000000000000277,3.917663157235934612
0.500000000000000222,3.830095891248009643
0.501000000000000334,3.742753131811121570
0.502000000000000224,3.655671554359843700
0.503000000000000336,3.568886914702387170
0.504000000000000226,3.482434047451461456
0.505000000000000338,3.396346865278088156
0.506000000000000227,3.310658358959707392
0.507000000000000339,3.225400598193020496
0.508000000000000229,3.140604733143626870
0.509000000000000341,3.056300996703520845
0.510000000000000231,2.972518707429284923
0.511000000000000343,2.889286273132785965
0.512000000000000233,2.806631195097993192
0.513000000000000345,2.724580072896601202
0.514000000000000234,2.643158609776919299
0.515000000000000346,2.562391618599607401
0.516000000000000236,2.482303028295636871
0.517000000000000348,2.402915890821044620
0.518000000000000238,2.324252388584741702
0.519000000000000350,2.246333842324964802
0.520000000000000240,2.169180719411632374
0.521000000000000352,2.092812642551229008
0.522000000000000242,2.017248398872437232
0.523000000000000353,1.942505949370149754
0.524000000000000243,1.868602438687200884
0.525000000000000355,1.795554205212463117
0.526000000000000245,1.723376791475613512
0.527000000000000357,1.652084954818330287
0.528000000000000247,1.581692678323241896
0.529000000000000359,1.512213181981464372
0.530000000000000249,1.443658934080981782
0.531000000000000361,1.376041662797875542
0.532000000000000250,1.309372367973619333
0.533000000000000362,1.243661333061379048
0.534000000000000252,1.178918137225771989
0.535000000000000364,1.115151667579771022
0.536000000000000254,1.052370131544364096
0.537000000000000366,0.990581069315662033
0.538000000000000256,0.929791366425855914
0.539000000000000368,0.870007266383902134
0.540000000000000258,0.811234383383161450
0.541000000000000369,0.753477715062765285
0.542000000000000259,0.696741655311009844
0.543000000000000371,0.641030007098379428
0.544000000000000261,0.586345995329255687
0.545000000000000373,0.532692279701083571
0.546000000000000263,0.480070967560718043
0.547000000000000375,0.428483626747525270
0.548000000000000265,0.377931298413994199
0.549000000000000377,0.328414509814101030
0.550000000000000266,0.279933287050981250
0.551000000000000378,0.232487167775046633
0.552000000000000268,0.186075213824730523
0.553000000000000380,0.140696023801861914
0.554000000000000270,0.096347745574535432
0.555000000000000382,0.053028088700190532
0.556000000000000272,0.010734336762469505
0.557000000000000384,-0.030536640384686169
0.558000000000000274,-0.070788374471583149
0.559000000000000385,-0.110024786771759711
0.560000000000000275,-0.148250176170675069
0.561000000000000387,-0.185469207349321541
0.562000000000000277,-0.221686899087354394
0.563000000000000389,-0.256908612690468607
0.564000000000000279,-0.291140040545956436
0.565000000000000391,-0.324387194810678792
0.566000000000000281,-0.356656396234847684
0.567000000000000393,-0.387954263125288024
0.568000000000000282,-0.418287700451136168
0.569000000000000394,-0.447663889095118506
0.570000000000000284,-0.476090275252863571
0.571000000000000396,-0.503574559983010595
0.572000000000000286,-0.530124688910081354
0.573000000000000398,-0.555748842082403494
0.574000000000000288,-0.580455423986736330
0.575000000000000400,-0.604253053721406030
0.576000000000000290,-0.627150555329240134
0.577000000000000401,-0.649156948291762181
0.578000000000000291,-0.670281438185536871
0.579000000000000403,-0.690533407501789709
0.580000000000000293,-0.709922406629882485
0.581000000000000405,-0.728458145005416169
0.582000000000000295,-0.746150482423252770
0.583000000000000407,-0.763009420515936787
0.584000000000000297,-0.779045094397493032
0.585000000000000409,-0.794267764472831095
0.586000000000000298,-0.808687808412506093
0.587000000000000410,-0.822315713292721462
0.588000000000000300,-0.835162067900167893
0.589000000000000412,-0.847237555201342141
0.590000000000000302,-0.858552944975686350
0.591000000000000414,-0.869119086611987668
0.592000000000000304,-0.878946902067250901
0.593000000000000416,-0.888047378987170455
0.594000000000000306,-0.896431563987316493
0.595000000000000417,-0.904110556094027240
0.596000000000000307,-0.911095500343849785
0.597000000000000419,-0.917397581540422946
0.598000000000000309,-0.923028018167544650
0.599000000000000421,-0.927998056457092657
0.600000000000000311,-0.932318964610468037
0.601000000000000423,-0.936002027172111672
0.602000000000000313,-0.939058539553572658
0.603000000000000425,-0.941499802706693978
0.604000000000000314,-0.943337117944194725
0.605000000000000426,-0.944581781906129514
0.606000000000000316,-0.945245081670487153
0.607000000000000428,-0.945338290006222381
0.608000000000000318,-0.944872660767020256
0.609000000000000430,-0.943859424423920901
0.610000000000000320,-0.942309783735078454
0.611000000000000432,-0.940234909550738074
0.612000000000000322,-0.937645936751642872
0.613000000000000433,-0.934553960318868837
0.614000000000000323,-0.930970031533318254
0.615000000000000435,-0.926905154302804180
0.616000000000000325,-0.922370281614858123
0.617000000000000437,-0.917376312113304282
0.618000000000000327,-0.911934086796577281
0.619000000000000439,-0.906054385835843745
0.620000000000000329,-0.899747925510943070
0.621000000000000441,-0.893025355262097142
0.622000000000000330,-0.885897254855472438
0.623000000000000442,-0.878374131660505597
0.624000000000000332,-0.870466418037058043
0.625000000000000444,-0.862184468830337947
0.626000000000000334,-0.853538558971655315
0.627000000000000446,-0.844538881182926970
0.628000000000000336,-0.835195543783022742
0.629000000000000448,-0.825518568593901159
0.630000000000000338,-0.815517888944594760
0.631000000000000449,-0.805203347771029976
0.632000000000000339,-0.794584695809791963
0.633000000000000451,-0.783671589883767172
0.634000000000000341,-0.772473591277854754
0.635000000000000453,-0.761000164202698448
0.636000000000000343,-0.749260674344623845
0.637000000000000455,-0.737264387499785623
0.638000000000000345,-0.725020468290727416
0.639000000000000457,-0.712537978963391549
0.640000000000000346,-0.699825878262829049
0.641000000000000458,-0.686893020385648478
0.642000000000000348,-0.673748154007523858
0.643000000000000460,-0.660399921383798327
0.644000000000000350,-0.646856857521586504
0.645000000000000462,-0.633127389421392905
0.646000000000000352,-0.619219835386742523
0.647000000000000464,-0.605142404399862888
0.648000000000000353,-0.590903195561933270
0.649000000000000465,-0.576510197595992202
0.650000000000000355,-0.561971288411089676
0.651000000000000467,-0.547294234725785311
0.652000000000000357,-0.532486691749626706
0.653000000000000469,-0.517556202920754549
0.654000000000000359,-0.502510199698314564
0.655000000000000471,-0.487356001407914075
0.656000000000000361,-0.472100815138735808
0.657000000000000473,-0.456751735690690608
0.658000000000000362,-0.441315745570238338
0.659000000000000474,-0.425799715033316595
0.660000000000000364,-0.410210402174014610
0.661000000000000476,-0.394554453057496368
0.662000000000000366,-0.378838401895894572
0.663000000000000478,-0.363068671265658893
0.664000000000000368,-0.347251572365178673
0.665000000000000480,-0.331393305311204589
0.666000000000000369,-0.315499959472882174
0.667000000000000481,-0.299577513842054943
0.668000000000000371,-0.283631837438625911
