# AlFCC111UCD_BGALNA-AC
# h[nm],U(h)[kJ/mol]
0.200000000000000011,109.378289964701977510
0.201000000000000012,106.199077444419231142
0.202000000000000013,102.828949161123631484
0.203000000000000014,99.502398226012317650
0.204000000000000015,96.322193374267342847
0.205000000000000016,93.314595417947771239
0.206000000000000016,90.465394676367594684
0.207000000000000017,87.742600263310080777
0.208000000000000018,85.110005308972532134
0.209000000000000019,82.534656652131445753
0.210000000000000020,79.990373716808278459
0.211000000000000021,77.458812743060562411
0.212000000000000022,74.929100732076904023
0.213000000000000023,72.396723702619652840
0.214000000000000024,69.862112145250918616
0.215000000000000024,67.329197146604968793
0.216000000000000025,64.804094110290975550
0.217000000000000026,62.293992742996955769
0.218000000000000027,59.806281123632842878
0.219000000000000028,57.347900164415307245
0.220000000000000029,54.924906672529722584
0.221000000000000030,52.542214204210665685
0.222000000000000031,50.203477850590346065
0.223000000000000032,47.911089786454695627
0.224000000000000032,45.666255294737332804
0.225000000000000033,43.469122985529331515
0.226000000000000034,41.318947348296433120
0.227000000000000035,39.214266154924935393
0.228000000000000036,37.153079294992664927
0.229000000000000037,35.133019224796434798
0.230000000000000038,33.151506284908414557
0.231000000000000039,31.205884680036820811
0.232000000000000040,29.293536947280745864
0.233000000000000040,27.411976312109931797
0.234000000000000041,25.558917503020119000
0.235000000000000042,23.732327426222397548
0.236000000000000043,21.930457649830735534
0.237000000000000044,20.151860967548032022
0.238000000000000045,18.395394453849764460
0.239000000000000046,16.660211428873289208
0.240000000000000047,14.945744657956442580
0.241000000000000048,13.251682948273284524
0.242000000000000048,11.577943097871479239
0.243000000000000049,9.924638920209737591
0.244000000000000050,8.292048825241380428
0.245000000000000051,6.680583197647773197
0.246000000000000052,5.090752582366176782
0.247000000000000053,3.523137472837937878
0.248000000000000054,1.978360302143519878
0.249000000000000055,0.457060063445089315
0.250000000000000056,-1.040130165279996577
0.251000000000000056,-2.512602646530850858
0.252000000000000057,-3.959791320938840897
0.253000000000000058,-5.381185107722030736
0.254000000000000059,-6.776338288207844229
0.255000000000000060,-8.144878146103929240
0.256000000000000061,-9.486510077103272209
0.257000000000000062,-10.801020406718068401
0.258000000000000063,-12.088277170795246107
0.259000000000000064,-13.348229119717364810
0.260000000000000064,-14.580903206446539144
0.261000000000000065,-15.786400811787089538
0.262000000000000066,-16.964892948841161058
0.263000000000000067,-18.116614673754561693
0.264000000000000068,-19.241858912506160095
0.265000000000000069,-20.340969894540592122
0.266000000000000070,-21.414336364197080087
0.267000000000000071,-22.462384720754975831
0.268000000000000071,-23.485572217977285447
0.269000000000000072,-24.484380334679791247
0.270000000000000073,-25.459308409381645077
0.271000000000000074,-26.410867614724974572
0.272000000000000075,-27.339575331245526968
0.273000000000000076,-28.245949965329636200
0.274000000000000077,-29.130506242862189481
0.275000000000000078,-29.993750998169179667
0.276000000000000079,-30.836179467369142060
0.277000000000000079,-31.658272086134530809
0.278000000000000080,-32.460491784059193776
0.279000000000000081,-33.243281761265997432
0.280000000000000082,-34.007063727478858084
0.281000000000000083,-34.752236579440264563
0.282000000000000084,-35.479175489180953207
0.283000000000000085,-36.188231373151516834
0.284000000000000086,-36.879730710512134806
0.285000000000000087,-37.553975677850701231
0.286000000000000087,-38.211244567180258969
0.287000000000000088,-38.851792454166073298
0.288000000000000089,-39.475852084073103754
0.289000000000000090,-40.083634943837694209
0.290000000000000091,-40.675332489879721720
0.291000000000000092,-41.251117502730977549
0.292000000000000093,-41.811145541199500997
0.293000000000000094,-42.355556470574626360
0.294000000000000095,-42.884476041257421741
0.295000000000000095,-43.398017496139871696
0.296000000000000096,-43.896283187017772320
0.297000000000000097,-44.379366182281700048
0.298000000000000098,-44.847351850060775291
0.299000000000000099,-45.300319402877065045
0.300000000000000100,-45.738343391685859274
0.301000000000000101,-46.161495138918304804
0.302000000000000102,-46.569844101793236746
0.303000000000000103,-46.963459158723253495
0.304000000000000103,-47.342409813092537263
0.305000000000000104,-47.706767310034791763
0.306000000000000105,-48.056605663083395541
0.307000000000000106,-48.392002588701203081
0.308000000000000107,-48.713040347729950952
0.309000000000000108,-49.019806493725909036
0.310000000000000109,-49.312394528976668084
0.311000000000000110,-49.590904469724002013
0.312000000000000111,-49.855443322756990199
0.313000000000000111,-50.106125476090490167
0.314000000000000112,-50.343073006912376854
0.315000000000000113,-50.566415910374892917
0.316000000000000114,-50.776292253124807985
0.317000000000000115,-50.972848255720293764
0.318000000000000116,-51.156238308274794235
0.319000000000000117,-51.326624923804160971
0.320000000000000118,-51.484178633839725592
0.321000000000000119,-51.629077830909942293
0.322000000000000119,-51.761508562492998919
0.323000000000000120,-51.881664281005569705
0.324000000000000121,-51.989745554325736521
0.325000000000000122,-52.085959741250484001
0.326000000000000123,-52.170520636169428030
0.327000000000000124,-52.243648087095422738
0.328000000000000125,-52.305567591036187025
0.329000000000000126,-52.356509870519815308
0.330000000000000127,-52.396710434905251930
0.331000000000000127,-52.426409129918241092
0.332000000000000128,-52.445849678657531001
0.333000000000000129,-52.455279217115048596
0.334000000000000130,-52.454947827051590536
0.335000000000000131,-52.445108068867547502
0.336000000000000132,-52.426014516905709684
0.337000000000000133,-52.397923299424611798
0.338000000000000134,-52.361091645285924301
0.339000000000000135,-52.315777439207558075
0.340000000000000135,-52.262238787250112182
0.341000000000000136,-52.200733594024391948
0.342000000000000137,-52.131519152935503314
0.343000000000000138,-52.054851750613821082
0.344000000000000139,-51.970986286526382969
0.345000000000000140,-51.880175908611285251
0.346000000000000141,-51.782671665636982539
0.347000000000000142,-51.678722176854634540
0.348000000000000143,-51.568573319386054266
0.349000000000000143,-51.452467933673162293
0.350000000000000144,-51.330645547205278945
0.351000000000000145,-51.203342116639660730
0.352000000000000146,-51.070789788337670245
0.353000000000000147,-50.933216677252659110
0.354000000000000148,-50.790846664027959889
0.355000000000000149,-50.643899210091881002
0.356000000000000150,-50.492589190472386917
0.357000000000000151,-50.337126743996364553
0.358000000000000151,-50.177717140487445135
0.359000000000000152,-50.014560664530030465
0.360000000000000153,-49.847852515328796130
0.361000000000000154,-49.677782722157367346
0.362000000000000155,-49.504536074861640316
0.363000000000000156,-49.328292068858139885
0.364000000000000157,-49.149224864048065342
0.365000000000000158,-48.967503257052321430
0.366000000000000159,-48.783290666159984994
0.367000000000000159,-48.596745128375033573
0.368000000000000160,-48.408019307941188458
0.369000000000000161,-48.217260515722351499
0.370000000000000162,-48.024610738817052891
0.371000000000000163,-47.830206679789213808
0.372000000000000164,-47.634179804902309741
0.373000000000000165,-47.436656400752738705
0.374000000000000166,-47.237757638707037700
0.375000000000000167,-47.037599646559399957
0.376000000000000167,-46.836293586838522174
0.377000000000000168,-46.633945741206744628
0.378000000000000169,-46.430657600409730890
0.379000000000000170,-46.226525959251304698
0.380000000000000171,-46.021643016084176736
0.381000000000000172,-45.816096476325995468
0.382000000000000173,-45.609969659527131114
0.383000000000000174,-45.403341609536120416
0.384000000000000175,-45.196287207326783175
0.385000000000000175,-44.988877286070483308
0.386000000000000176,-44.781178748056127858
0.387000000000000177,-44.573254683079063909
0.388000000000000178,-44.365164487940283777
0.389000000000000179,-44.156963986715105364
0.390000000000000180,-43.948705551469927855
0.391000000000000181,-43.740438223124201045
0.392000000000000182,-43.532207832172666429
0.393000000000000183,-43.324057119001004423
0.394000000000000183,-43.116025853545480118
0.395000000000000184,-42.908150954064311122
0.396000000000000185,-42.700466604804731219
0.397000000000000186,-42.493004372366740995
0.398000000000000187,-42.285793320578861199
0.399000000000000188,-42.078860123717845454
0.400000000000000189,-41.872229177917539289
0.401000000000000190,-41.665922710627043557
0.402000000000000191,-41.459960887991719858
0.403000000000000191,-41.254361920042939005
0.404000000000000192,-41.049142163595966792
0.405000000000000193,-40.844316222766124724
0.406000000000000194,-40.639897047025428378
0.407000000000000195,-40.435896026732606856
0.408000000000000196,-40.232323086079141206
0.409000000000000197,-40.029186773404447308
0.410000000000000198,-39.826494348841698923
0.411000000000000199,-39.624251869265137316
0.412000000000000199,-39.422464270517409091
0.413000000000000200,-39.221135446903375055
0.414000000000000201,-39.020268327944251041
0.415000000000000202,-38.819864952391803570
0.416000000000000203,-38.619926539510075258
0.417000000000000204,-38.420453557636200514
0.418000000000000205,-38.221445790039027202
0.419000000000000206,-38.022902398098082699
0.420000000000000207,-37.824821981830197615
0.421000000000000207,-37.627202637796301588
0.422000000000000208,-37.430042014423278829
0.423000000000000209,-37.233337364780794587
0.424000000000000210,-37.037085596855220615
0.425000000000000211,-36.841283321365935421
0.426000000000000212,-36.645926897172330428
0.427000000000000213,-36.451012474321274226
0.428000000000000214,-36.256536034787885114
0.429000000000000214,-36.062493430963037611
0.430000000000000215,-35.868880421943835302
0.431000000000000216,-35.675692707683580807
0.432000000000000217,-35.482925961059137876
0.433000000000000218,-35.290575857914916469
0.434000000000000219,-35.098638105142448751
0.435000000000000220,-34.907108466856243467
0.436000000000000221,-34.715982788725547437
0.437000000000000222,-34.525257020523163476
0.438000000000000222,-34.334927236951287455
0.439000000000000223,-34.144989656805229572
0.440000000000000224,-33.955440660534954134
0.441000000000000225,-33.766276806264059474
0.442000000000000226,-33.577494844326018608
0.443000000000000227,-33.389091730375696443
0.444000000000000228,-33.201064637134948043
0.445000000000000229,-33.013410964829077443
0.446000000000000230,-32.826128350370751718
0.447000000000000230,-32.639214675347126615
0.448000000000000231,-32.452668072864682358
0.449000000000000232,-32.266486933305166929
0.450000000000000233,-32.080669909045667509
0.451000000000000234,-31.895215918193578375
0.452000000000000235,-31.710124147387478644
0.453000000000000236,-31.525394053712215481
0.454000000000000237,-31.341025365776868483
0.455000000000000238,-31.157018084001503411
0.456000000000000238,-30.973372480158758435
0.457000000000000239,-30.790089096213858255
0.458000000000000240,-30.607168742506416947
0.459000000000000241,-30.424612495315045635
0.460000000000000242,-30.242421693845624731
0.461000000000000243,-30.060597936681773490
0.462000000000000244,-29.879143077735694334
0.463000000000000245,-29.698059221735150004
0.464000000000000246,-29.517348719282587410
0.465000000000000246,-29.337014161519583411
0.466000000000000247,-29.157058374429755787
0.467000000000000248,-28.977484412811101322
0.468000000000000249,-28.798295553948470626
0.469000000000000250,-28.619495291014708016
0.470000000000000251,-28.441087326228576160
0.471000000000000252,-28.263075563795712952
0.472000000000000253,-28.085464102658715291
0.473000000000000254,-27.908257229079957540
0.474000000000000254,-27.731459409081132605
0.475000000000000255,-27.555075280761077039
0.476000000000000256,-27.379109646513416720
0.477000000000000257,-27.203567465163992267
0.478000000000000258,-27.028453844047060528
0.479000000000000259,-26.853774031038604164
0.480000000000000260,-26.679533406563699316
0.481000000000000261,-26.505737475594219887
0.482000000000000262,-26.332391859652339861
0.483000000000000262,-26.159502288834186601
0.484000000000000263,-25.987074593867170336
0.485000000000000264,-25.815114698214017608
0.486000000000000265,-25.643628610235271736
0.487000000000000266,-25.472622415421604103
0.488000000000000267,-25.302102268706370580
0.489000000000000268,-25.132074386868261229
0.490000000000000269,-24.962545041032925042
0.491000000000000270,-24.793520549282312970
0.492000000000000270,-24.625007269379022290
0.493000000000000271,-24.457011591613277091
0.494000000000000272,-24.289539931778801218
0.495000000000000273,-24.122598724283530913
0.496000000000000274,-23.956194415400915432
0.497000000000000275,-23.790333456666310497
0.498000000000000276,-23.625022298423150602
0.499000000000000277,-23.460267383522793949
0.500000000000000222,-23.296075141181308510
0.501000000000000334,-23.132451980996442842
0.502000000000000224,-22.969404287127467512
0.503000000000000336,-22.806938412639613745
0.504000000000000226,-22.645060674015656588
0.505000000000000338,-22.483777345835385120
0.506000000000000227,-22.323094655624831972
0.507000000000000339,-22.163018778875212433
0.508000000000000229,-22.003555834233040400
0.509000000000000341,-21.844711878860543663
0.510000000000000231,-21.686492903967621970
0.511000000000000343,-21.528904830513457824
0.512000000000000233,-21.371953505078867153
0.513000000000000345,-21.215644695906956230
0.514000000000000234,-21.059984089112749217
0.515000000000000346,-20.904977285058773617
0.516000000000000236,-20.750629794897026414
0.517000000000000348,-20.596947037274034642
0.518000000000000238,-20.443934335198814978
0.519000000000000350,-20.291596913070417685
0.520000000000000240,-20.139939893864237774
0.521000000000000352,-19.988968296474020292
0.522000000000000242,-19.838687033207914823
0.523000000000000353,-19.689100907435673093
0.524000000000000243,-19.540214611384953969
0.525000000000000355,-19.392032724083684059
0.526000000000000245,-19.244559709446413365
0.527000000000000357,-19.097799914501102592
0.528000000000000247,-18.951757567754494715
0.529000000000000359,-18.806436777692304929
0.530000000000000249,-18.661841531412029838
0.531000000000000361,-18.517975693384833846
0.532000000000000250,-18.374843004344171504
0.533000000000000362,-18.232447080297315978
0.534000000000000252,-18.090791411657555443
0.535000000000000364,-17.949879362493287971
0.536000000000000254,-17.809714169891670110
0.537000000000000366,-17.670298943432683814
0.538000000000000256,-17.531636664771937717
0.539000000000000368,-17.393730187327513192
0.540000000000000258,-17.256582236069338165
0.541000000000000369,-17.120195407406548327
0.542000000000000259,-16.984572169171048728
0.543000000000000371,-16.849714860693204344
0.544000000000000261,-16.715625692967314819
0.545000000000000373,-16.582306748903441473
0.546000000000000263,-16.449759983663021501
0.547000000000000375,-16.317987225074507052
0.548000000000000265,-16.186990174127469544
0.549000000000000377,-16.056770405540593316
0.550000000000000266,-15.927329368402221021
0.551000000000000378,-15.798668386879565873
0.552000000000000268,-15.670788660994428909
0.553000000000000380,-15.543691267462273586
0.554000000000000270,-15.417377160592403484
0.555000000000000382,-15.291847173245923130
0.556000000000000272,-15.167102017849780182
0.557000000000000384,-15.043142287463249218
0.558000000000000274,-14.919968456895423614
0.559000000000000385,-14.797580883870207202
0.560000000000000275,-14.675979810237384626
0.561000000000000387,-14.555165363226453934
0.562000000000000277,-14.435137556741636899
0.563000000000000389,-14.315896292695303060
0.564000000000000279,-14.197441362377912100
0.565000000000000391,-14.079772447861966356
0.566000000000000281,-13.962889123438268157
0.567000000000000393,-13.846790857081865411
0.568000000000000282,-13.731477011946347844
0.569000000000000394,-13.616946847883653504
0.570000000000000284,-13.503199522988490244
0.571000000000000396,-13.390234095164407435
0.572000000000000286,-13.278049523710762969
0.573000000000000398,-13.166644670927814431
0.574000000000000288,-13.056018303739062247
0.575000000000000400,-12.946169095328539100
0.576000000000000290,-12.837095626791924730
0.577000000000000401,-12.728796388799361594
0.578000000000000291,-12.621269783269095655
0.579000000000000403,-12.514514125049775117
0.580000000000000293,-12.408527643610662849
0.581000000000000405,-12.303308484737620176
0.582000000000000295,-12.198854712234426856
0.583000000000000407,-12.095164309627126187
0.584000000000000297,-11.992235181871084393
0.585000000000000409,-11.890065157058824497
0.586000000000000298,-11.788651988128084014
0.587000000000000410,-11.687993354568325444
0.588000000000000300,-11.588086864125356712
0.589000000000000412,-11.488930054502219491
0.590000000000000302,-11.390520395056157099
0.591000000000000414,-11.292855288489992205
0.592000000000000304,-11.195932072537567947
0.593000000000000416,-11.099748021641865137
0.594000000000000306,-11.004300348625465134
0.595000000000000417,-10.909586206352024362
0.596000000000000307,-10.815602689378492229
0.597000000000000419,-10.722346835596869852
0.598000000000000309,-10.629815627865239591
0.599000000000000421,-10.538005995626992473
0.600000000000000311,-10.446914816518006575
0.601000000000000423,-10.356538917960728341
0.602000000000000313,-10.266875078745179906
0.603000000000000425,-10.177920030595515755
0.604000000000000314,-10.089670459722690055
0.605000000000000426,-10.002123008361525791
0.606000000000000316,-9.915274276292938893
0.607000000000000428,-9.829120822349803888
0.608000000000000318,-9.743659165907008202
0.609000000000000430,-9.658885788354435675
0.610000000000000320,-9.574797134553405087
0.611000000000000432,-9.491389614275330899
0.612000000000000322,-9.408659603623181766
0.613000000000000433,-9.326603446434699407
0.614000000000000323,-9.245217455667670947
0.615000000000000435,-9.164497914766661424
0.616000000000000325,-9.084441079011238429
0.617000000000000437,-9.005043176845234143
0.618000000000000327,-8.926300411187179762
0.619000000000000439,-8.848208960721407834
0.620000000000000329,-8.770764981170014352
0.621000000000000441,-8.693964606545282692
0.622000000000000330,-8.617803950382695533
0.623000000000000442,-8.542279106954175916
0.624000000000000332,-8.467386152461831017
0.625000000000000444,-8.393121146211784733
0.626000000000000334,-8.319480131768353104
0.627000000000000446,-8.246459138088287233
0.628000000000000336,-8.174054180635277334
0.629000000000000448,-8.102261262474550918
0.630000000000000338,-8.031076375347755203
0.631000000000000449,-7.960495500727857277
0.632000000000000339,-7.890514610854504340
0.633000000000000451,-7.821129669749439017
0.634000000000000341,-7.752336634212464439
0.635000000000000453,-7.684131454797612726
0.636000000000000343,-7.616510076769960946
0.637000000000000455,-7.549468441042868960
0.638000000000000345,-7.483002485096056589
0.639000000000000457,-7.417108143874173720
0.640000000000000346,-7.351781350666580117
0.641000000000000458,-7.287018037967788686
0.642000000000000348,-7.222814138319334276
0.643000000000000460,-7.159165585132585718
0.644000000000000350,-7.096068313493280932
0.645000000000000462,-7.033518260947277057
0.646000000000000352,-6.971511368268304309
0.647000000000000464,-6.910043580207232417
0.648000000000000353,-6.849110846223763538
0.649000000000000465,-6.788709121199824281
0.650000000000000355,-6.728834366135798106
0.651000000000000467,-6.669482548828868929
0.652000000000000357,-6.610649644534407621
0.653000000000000469,-6.552331636609986631
0.654000000000000359,-6.494524517142728826
0.655000000000000471,-6.437224287559691227
