# AlFCC111UCD_BSAI12
# h[nm],U(h)[kJ/mol]
0.149999999999999994,82.574123303310585698
0.150999999999999995,77.146093067884109473
0.151999999999999996,73.053783234544567904
0.152999999999999997,69.285808922245607278
0.153999999999999998,65.488951824346017361
0.154999999999999999,61.610372666832383004
0.156000000000000000,57.708239237706514757
0.157000000000000001,53.860060619391433079
0.158000000000000002,50.125127984327754405
0.159000000000000002,46.534901132436139903
0.160000000000000003,43.096206318998085294
0.161000000000000004,39.798933801622787598
0.162000000000000005,36.624028658947331394
0.163000000000000006,33.549945908042872134
0.164000000000000007,30.557043389369205499
0.165000000000000008,27.630037807431467201
0.166000000000000009,24.758922383052741623
0.167000000000000010,21.938809107765997908
0.168000000000000010,19.169118533658746628
0.169000000000000011,16.452456515181175689
0.170000000000000012,13.793424394350008555
0.171000000000000013,11.197524134264906337
0.172000000000000014,8.670250248933687232
0.173000000000000015,6.216407797320084860
0.174000000000000016,3.839659002218517969
0.175000000000000017,1.542277694373057395
0.176000000000000018,-0.674922134488946557
0.177000000000000018,-2.812522631442452514
0.178000000000000019,-4.872342168799674411
0.179000000000000020,-6.857214789447047210
0.180000000000000021,-8.770739373316333243
0.181000000000000022,-10.617022908357800048
0.182000000000000023,-12.400436242597274727
0.183000000000000024,-14.125395131400868109
0.184000000000000025,-15.796174544314117938
0.185000000000000026,-17.416760179147782850
0.186000000000000026,-18.990737965460560588
0.187000000000000027,-20.521219977066596840
0.188000000000000028,-22.010803526456857782
0.189000000000000029,-23.461559176654560588
0.190000000000000030,-24.875042866288914922
0.191000000000000031,-26.252327193681132655
0.192000000000000032,-27.594047047077651769
0.193000000000000033,-28.900455114916344002
0.194000000000000034,-30.171483289887369494
0.195000000000000034,-31.406806534854979418
0.196000000000000035,-32.605906361408017347
0.197000000000000036,-33.768131648246999532
0.198000000000000037,-34.892755071919928866
0.199000000000000038,-35.979023919922660468
0.200000000000000039,-37.026204495863439092
0.201000000000000040,-38.033619703491865494
0.202000000000000041,-39.000679710125055522
0.203000000000000042,-39.926905842512034894
0.204000000000000042,-40.811948063623454175
0.205000000000000043,-41.655596522690977679
0.206000000000000044,-42.457787769222491647
0.207000000000000045,-43.218606281119640755
0.208000000000000046,-43.938281983801317665
0.209000000000000047,-44.617184437464388225
0.210000000000000048,-45.255814348906390876
0.211000000000000049,-45.854793027750865519
0.212000000000000050,-46.414850358911103001
0.213000000000000050,-46.936811807529053908
0.214000000000000051,-47.421584912668905076
0.215000000000000052,-47.870145664384992301
0.216000000000000053,-48.283525097553074090
0.217000000000000054,-48.662796376715938607
0.218000000000000055,-49.009062590389639524
0.219000000000000056,-49.323445421687594603
0.220000000000000057,-49.607074815327294459
0.221000000000000058,-49.861079719402447097
0.222000000000000058,-50.086579943856570196
0.223000000000000059,-50.284679146322432075
0.224000000000000060,-50.456458929721932805
0.225000000000000061,-50.602974014480672338
0.226000000000000062,-50.725248431055675269
0.227000000000000063,-50.824272665324386367
0.228000000000000064,-50.901001679826578084
0.229000000000000065,-50.956353727474130721
0.230000000000000066,-50.991209870730529019
0.231000000000000066,-51.006414118015825920
0.232000000000000067,-51.002774089833721405
0.233000000000000068,-50.981062129489480128
0.234000000000000069,-50.942016776951184909
0.235000000000000070,-50.886344529102146339
0.236000000000000071,-50.814721815081277612
0.237000000000000072,-50.727797121378586098
0.238000000000000073,-50.626193207641897231
0.239000000000000073,-50.510509360588542904
0.240000000000000074,-50.381323639856951502
0.241000000000000075,-50.239195075957091774
0.242000000000000076,-50.084665786588807634
0.243000000000000077,-49.918262983418102863
0.244000000000000078,-49.740500846874191154
0.245000000000000079,-49.551882251612497043
0.246000000000000080,-49.352900329954699998
0.247000000000000081,-49.144039864849268895
0.248000000000000081,-48.925778507688740149
0.249000000000000082,-48.698587819678110122
0.250000000000000111,-48.462934138380788340
0.251000000000000112,-48.219279273588959711
0.252000000000000113,-47.968081038797727444
0.253000000000000114,-47.709793626324362492
0.254000000000000115,-47.444867835536669531
0.255000000000000115,-47.173751164759899268
0.256000000000000116,-46.896887778250778922
0.257000000000000117,-46.614718360186145674
0.258000000000000118,-46.327679867940027236
0.259000000000000119,-46.036205197044623105
0.260000000000000120,-45.740722770173242395
0.261000000000000121,-45.441656062268961591
0.262000000000000122,-45.139423073600255520
0.263000000000000123,-44.834435762069070108
0.264000000000000123,-44.527099445554362944
0.265000000000000124,-44.217812184457713442
0.266000000000000125,-43.906964153949267882
0.267000000000000126,-43.594937014702551892
0.268000000000000127,-43.282103290172230459
0.269000000000000128,-42.968825757720765068
0.270000000000000129,-42.655456860147857867
0.271000000000000130,-42.342338143430687580
0.272000000000000131,-42.029799725751537665
0.273000000000000131,-41.718159802176657536
0.274000000000000132,-41.407724188664936094
0.275000000000000133,-41.098785908429114500
0.276000000000000134,-40.791624823049872361
0.277000000000000135,-40.486507310158486916
0.278000000000000136,-40.183685988956050039
0.279000000000000137,-39.883399494329935919
0.280000000000000138,-39.585872299861705415
0.281000000000000139,-39.291314589593298479
0.282000000000000139,-38.999922178032456088
0.283000000000000140,-38.711876477531433238
0.284000000000000141,-38.427344511864404808
0.285000000000000142,-38.146478974558007735
0.286000000000000143,-37.869418330294379871
0.287000000000000144,-37.596286957503863846
0.288000000000000145,-37.327195330096898829
0.289000000000000146,-37.062240236144852190
0.290000000000000147,-36.801505031210517416
0.291000000000000147,-36.545059923944499758
0.292000000000000148,-36.292962291505709516
0.293000000000000149,-36.045257022327021446
0.294000000000000150,-35.801976883731377654
0.295000000000000151,-35.563142911906723498
0.296000000000000152,-35.328764821767279614
0.297000000000000153,-35.098841434263633232
0.298000000000000154,-34.873361118752050913
0.299000000000000155,-34.652302248092581749
0.300000000000000155,-34.435633664215984595
0.301000000000000156,-34.223315151977253379
0.302000000000000157,-34.015297919199561250
0.303000000000000158,-33.811525080904054619
0.304000000000000159,-33.611932145817803530
0.305000000000000160,-33.416447503351669468
0.306000000000000161,-33.224992909344109648
0.307000000000000162,-33.037483968970683179
0.308000000000000163,-32.853830615325350095
0.309000000000000163,-32.673937582285773829
0.310000000000000164,-32.497704870379990894
0.311000000000000165,-32.325028204476595306
0.312000000000000166,-32.155799482223571317
0.313000000000000167,-31.989907212261147862
0.314000000000000168,-31.827236941333048037
0.315000000000000169,-31.667671669515407018
0.316000000000000170,-31.511092252875293696
0.317000000000000171,-31.357377792959500340
0.318000000000000171,-31.206406012599661182
0.319000000000000172,-31.058053617601405705
0.320000000000000173,-30.912196643962857934
0.321000000000000174,-30.768710790341664563
0.322000000000000175,-30.627471735559264943
0.323000000000000176,-30.488355440997242596
0.324000000000000177,-30.351238437801793424
0.325000000000000178,-30.215998098870397115
0.326000000000000179,-30.082512895648299889
0.327000000000000179,-29.950662639812396293
0.328000000000000180,-29.820328709965792768
0.329000000000000181,-29.691394263509245377
0.330000000000000182,-29.563744433893436536
0.331000000000000183,-29.437266513492176045
0.332000000000000184,-29.311850122367594906
0.333000000000000185,-29.187387363227479398
0.334000000000000186,-29.063772962900095820
0.335000000000000187,-28.940904400674007491
0.336000000000000187,-28.818682023870856312
0.337000000000000188,-28.697009151034659880
0.338000000000000189,-28.575792163136906510
0.339000000000000190,-28.454940583207633864
0.340000000000000191,-28.334367144812556916
0.341000000000000192,-28.213987849804539110
0.342000000000000193,-28.093722015782013557
0.343000000000000194,-27.973492313691657785
0.344000000000000195,-27.853224796013968501
0.345000000000000195,-27.732848915971015202
0.346000000000000196,-27.612297538194280122
0.347000000000000197,-27.491506941288086807
0.348000000000000198,-27.370416812720446131
0.349000000000000199,-27.248970236467851436
0.350000000000000200,-27.127113673835300034
0.351000000000000201,-27.004796937865211959
0.352000000000000202,-26.881973161741722578
0.353000000000000203,-26.758598761588228143
0.354000000000000203,-26.634633394046964838
0.355000000000000204,-26.510039909019702975
0.356000000000000205,-26.384784297938495001
0.357000000000000206,-26.258835637925084683
0.358000000000000207,-26.132166032185875082
0.359000000000000208,-26.004750546979330750
0.360000000000000209,-25.876567145480002807
0.361000000000000210,-25.747596618852618633
0.362000000000000210,-25.617822514837360615
0.363000000000000211,-25.487231064135972503
0.364000000000000212,-25.355811104876423201
0.365000000000000213,-25.223554005421643609
0.366000000000000214,-25.090453585776646861
0.367000000000000215,-24.956506037836057033
0.368000000000000216,-24.821709844702901648
0.369000000000000217,-24.686065699297678577
0.370000000000000218,-24.549576422465715808
0.371000000000000218,-24.412246880779534308
0.372000000000000219,-24.274083904222017338
0.373000000000000220,-24.135096203925687774
0.374000000000000221,-23.995294290132783033
0.375000000000000222,-23.854690390530663535
0.376000000000000223,-23.713298369107118191
0.377000000000000224,-23.571133645660871991
0.378000000000000225,-23.428213116092592827
0.379000000000000226,-23.284555073593093510
0.380000000000000226,-23.140179130836845189
0.381000000000000227,-22.995106143279603117
0.382000000000000228,-22.849358133651879399
0.383000000000000229,-22.702958217731300294
0.384000000000000230,-22.555930531469634559
0.385000000000000231,-22.408300159543209418
0.386000000000000232,-22.260093065388058875
0.387000000000000233,-22.111336022774899845
0.388000000000000234,-21.962056548972338277
0.389000000000000234,-21.812282839541062174
0.390000000000000235,-21.662043704795394206
0.391000000000000236,-21.511368507963759100
0.392000000000000237,-21.360287105073830105
0.393000000000000238,-21.208829786583606847
0.394000000000000239,-21.057027220774632070
0.395000000000000240,-20.904910398919358983
0.396000000000000241,-20.752510582230584646
0.397000000000000242,-20.599859250596487925
0.398000000000000242,-20.446988053101812000
0.399000000000000243,-20.293928760331603200
0.400000000000000244,-20.140713218451022470
0.401000000000000245,-19.987373305051839623
0.402000000000000246,-19.833940886753115507
0.403000000000000247,-19.680447778540930415
0.404000000000000248,-19.526925704830127017
0.405000000000000249,-19.373406262228147767
0.406000000000000250,-19.219920883979387582
0.407000000000000250,-19.066500806066482454
0.408000000000000251,-18.913177034943199573
0.409000000000000252,-18.759980316872248096
0.410000000000000253,-18.606941108839457399
0.411000000000000254,-18.454089551015123050
0.412000000000000255,-18.301455440731650981
0.413000000000000256,-18.149068207945894926
0.414000000000000257,-17.996956892153669116
0.415000000000000258,-17.845150120723090481
0.416000000000000258,-17.693676088612967590
0.417000000000000259,-17.542562539441341585
0.418000000000000260,-17.391836747869877655
0.419000000000000261,-17.241525503268071873
0.420000000000000262,-17.091655094622357325
0.421000000000000263,-16.942251296654042392
0.422000000000000264,-16.793339357110276922
0.423000000000000265,-16.644943985192195868
0.424000000000000266,-16.497089341084539171
0.425000000000000266,-16.349799026550851266
0.426000000000000267,-16.203096076558757943
0.427000000000000268,-16.057002951899971066
0.428000000000000269,-15.911541532770035801
0.429000000000000270,-15.766733113272900724
0.430000000000000271,-15.622598396816030686
0.431000000000000272,-15.479157492362039861
0.432000000000000273,-15.336429911503216772
0.433000000000000274,-15.194434566325980995
0.434000000000000274,-15.053189768032524398
0.435000000000000275,-14.912713226287669599
0.436000000000000276,-14.773022049259534327
0.437000000000000277,-14.634132744322723596
0.438000000000000278,-14.496061219394130504
0.439000000000000279,-14.358822784871392741
0.440000000000000280,-14.222432156144856563
0.441000000000000281,-14.086903456654734867
0.442000000000000282,-13.952250221465609670
0.443000000000000282,-13.818485401331049189
0.444000000000000283,-13.685621367221909139
0.445000000000000284,-13.553669915292610781
0.446000000000000285,-13.422642272259972529
0.447000000000000286,-13.292549101170575199
0.448000000000000287,-13.163400507532378114
0.449000000000000288,-13.035206045787964158
0.450000000000000289,-12.907974726106653307
0.451000000000000290,-12.781715021473885940
0.452000000000000290,-12.656434875056820744
0.453000000000000291,-12.532141707825662280
0.454000000000000292,-12.408842426411066384
0.455000000000000293,-12.286543431178394314
0.456000000000000294,-12.165250624500597354
0.457000000000000295,-12.044969419211657424
0.458000000000000296,-11.925704747223681679
0.459000000000000297,-11.807461068290917794
0.460000000000000298,-11.690242378904834197
0.461000000000000298,-11.574052221304953036
0.462000000000000299,-11.458893692590683244
0.463000000000000300,-11.344769453919969493
0.464000000000000301,-11.231681739781217644
0.465000000000000302,-11.119632367325536393
0.466000000000000303,-11.008622745746713179
0.467000000000000304,-10.898653885696997889
0.468000000000000305,-10.789726408727439377
0.469000000000000306,-10.681840556741700965
0.470000000000000306,-10.574996201453114253
0.471000000000000307,-10.469192853834872636
0.472000000000000308,-10.364429673554253597
0.473000000000000309,-10.260705478381535016
0.474000000000000310,-10.158018753565395187
0.475000000000000311,-10.056367661166536465
0.476000000000000312,-9.955750049342137586
0.477000000000000313,-9.856163461573469675
0.478000000000000314,-9.757605145830371640
0.479000000000000314,-9.660072063665772646
0.480000000000000315,-9.563560899234396118
0.481000000000000316,-9.468068068229882783
0.482000000000000317,-9.373589726735042760
0.483000000000000318,-9.280121779980232688
0.484000000000000319,-9.187659891005178991
0.485000000000000320,-9.096199489220014200
0.486000000000000321,-9.005735778861383878
0.487000000000000322,-8.916263747339984391
0.488000000000000322,-8.827778173476026780
0.489000000000000323,-8.740273635619589143
0.490000000000000324,-8.653744519652867950
0.491000000000000325,-8.568185026871748988
0.492000000000000326,-8.483589181744257246
0.493000000000000327,-8.399950839543873116
0.494000000000000328,-8.317263693855666773
0.495000000000000329,-8.235521283953643135
0.496000000000000330,-8.154717002047785712
0.497000000000000330,-8.074844100399493740
0.498000000000000331,-7.995895698304407162
0.499000000000000332,-7.917864788941642473
0.500000000000000333,-7.840744246088722669
0.501000000000000334,-7.764526830701699467
0.502000000000000335,-7.689205197359962440
0.503000000000000336,-7.614771900575685315
0.504000000000000337,-7.541219400967568376
0.505000000000000338,-7.468540071299112348
0.506000000000000338,-7.396726202381531223
0.507000000000000339,-7.325770008841556269
0.508000000000000340,-7.255663634754644598
0.509000000000000341,-7.186399159144054138
0.510000000000000342,-7.117968601346442270
0.511000000000000343,-7.050363926244736845
0.512000000000000344,-6.983577049369084300
0.513000000000000345,-6.917599841866814536
0.514000000000000346,-6.852424135342440437
0.515000000000000346,-6.788041726568769363
0.516000000000000347,-6.724444382070212889
0.517000000000000348,-6.661623842579706078
0.518000000000000349,-6.599571827370235511
0.519000000000000350,-6.538280038462657373
0.520000000000000351,-6.477740164710946047
0.521000000000000352,-6.417943885766466572
0.522000000000000353,-6.358882875922755140
0.523000000000000353,-6.300548807842266008
0.524000000000000354,-6.242933356166867398
0.525000000000000355,-6.186028201013447969
0.526000000000000356,-6.129825031356536336
0.527000000000000357,-6.074315548299478174
0.528000000000000358,-6.019491468235876219
0.529000000000000359,-5.965344525903111261
0.530000000000000360,-5.911866477329655645
0.531000000000000361,-5.859049102677928111
0.532000000000000361,-5.806884208984520512
0.533000000000000362,-5.755363632799566531
0.534000000000000363,-5.704479242727128252
0.535000000000000364,-5.654222941868278340
0.536000000000000365,-5.604586670168894003
0.537000000000000366,-5.555562406673846709
0.538000000000000367,-5.507142171689450194
0.539000000000000368,-5.459318028856079863
0.540000000000000369,-5.412082087132664476
0.541000000000000369,-5.365426502694971234
0.542000000000000370,-5.319343480749499697
0.543000000000000371,-5.273825277264721834
0.544000000000000372,-5.228864200621595515
0.545000000000000373,-5.184452613185043468
0.546000000000000374,-5.140582932798233529
0.547000000000000375,-5.097247634201428568
0.548000000000000376,-5.054439250377202875
0.549000000000000377,-5.012150373823724969
0.550000000000000377,-4.970373657757821029
0.551000000000000378,-4.929101817249637030
0.552000000000000379,-4.888327630290522308
0.553000000000000380,-4.848043938795822960
0.554000000000000381,-4.808243649544285958
0.555000000000000382,-4.768919735055725084
0.556000000000000383,-4.730065234408505681
0.557000000000000384,-4.691673253998580151
0.558000000000000385,-4.653736968241530825
0.559000000000000385,-4.616249620219313066
0.560000000000000386,-4.579204522273121469
0.561000000000000387,-4.542595056544019627
0.562000000000000388,-4.506414675462780295
0.563000000000000389,-4.470656902190368598
0.564000000000000390,-4.435315331010643902
0.565000000000000391,-4.400383627676607290
0.566000000000000392,-4.365855529711673455
0.567000000000000393,-4.331724846667316164
0.568000000000000393,-4.297985460338466623
0.569000000000000394,-4.264631324938013890
0.570000000000000395,-4.231656467231731611
0.571000000000000396,-4.199054986634874531
0.572000000000000397,-4.166821055271801910
0.573000000000000398,-4.134948917999774487
0.574000000000000399,-4.103432892398251930
0.575000000000000400,-4.072267368724800107
0.576000000000000401,-4.041446809838833865
0.577000000000000401,-4.010965751094341059
0.578000000000000402,-3.980818800202712282
0.579000000000000403,-3.951000637066763854
0.580000000000000404,-3.921506013587078066
0.581000000000000405,-3.892329753441687412
0.582000000000000406,-3.863466751840130886
0.583000000000000407,-3.834911975252938365
0.584000000000000408,-3.806660461117494343
0.585000000000000409,-3.778707317521267761
0.586000000000000409,-3.751047722863340539
0.587000000000000410,-3.723676925495186030
0.588000000000000411,-3.696590243341584259
0.589000000000000412,-3.669783063502529252
0.590000000000000413,-3.643250841837036180
0.591000000000000414,-3.616989102529676536
0.592000000000000415,-3.590993437640614072
0.593000000000000416,-3.565259506639998133
0.594000000000000417,-3.539783035927464905
0.595000000000000417,-3.514559818337519737
0.596000000000000418,-3.489585712631475989
0.597000000000000419,-3.464856642976799073
0.598000000000000420,-3.440368598414394796
0.599000000000000421,-3.416117632314669805
0.600000000000000422,-3.392099861822905016
0.601000000000000423,-3.368311467294692996
0.602000000000000424,-3.344748691721966871
0.603000000000000425,-3.321407840150307322
0.604000000000000425,-3.298285279088066346
0.605000000000000426,-3.275377435907918855
0.606000000000000427,-3.252680798241384785
