# AlFCC111UCD_ARG-AC
# h[nm],U(h)[kJ/mol]
0.149999999999999994,110.070285922396166711
0.150999999999999995,99.395170612545030053
0.151999999999999996,95.942879383259153769
0.152999999999999997,94.081155912706947220
0.153999999999999998,91.741248419410183601
0.154999999999999999,88.527629786998758732
0.156000000000000000,84.699174997733422288
0.157000000000000001,80.662388631280805384
0.158000000000000002,76.752954044748094020
0.159000000000000002,73.169806123407880705
0.160000000000000003,69.982007073066142766
0.161000000000000004,67.163760374604109415
0.162000000000000005,64.634256906556743161
0.163000000000000006,62.291620919014007995
0.164000000000000007,60.037271725495429564
0.165000000000000008,57.790676711192212167
0.166000000000000009,55.496122728088792542
0.167000000000000010,53.123650993492503858
0.168000000000000010,50.666226486845658883
0.169000000000000011,48.134870691610423421
0.170000000000000012,45.553061631301794421
0.171000000000000013,42.951295939319905415
0.172000000000000014,40.362359925178068920
0.173000000000000015,37.817585358579563604
0.174000000000000016,35.344169405830527353
0.175000000000000017,32.963507148107773048
0.176000000000000018,30.690406722983311738
0.177000000000000018,28.533018558265116127
0.178000000000000019,26.493299929150680327
0.179000000000000020,24.567844610909165937
0.180000000000000021,22.748927208337097028
0.181000000000000022,21.025637206829728143
0.182000000000000023,19.385004926429864724
0.183000000000000024,17.813047715040479346
0.184000000000000025,16.295688266987731652
0.185000000000000026,14.819517043668316347
0.186000000000000026,13.372387097063789696
0.187000000000000027,11.943842217373489945
0.188000000000000028,10.525388538277230310
0.189000000000000029,9.110625962514195209
0.190000000000000030,7.695259497629334255
0.191000000000000031,6.277012303198739929
0.192000000000000032,4.855462405327783948
0.193000000000000033,3.431824043456445761
0.194000000000000034,2.008692833637479858
0.195000000000000034,0.589771657154506412
0.196000000000000035,-0.820408348401649334
0.197000000000000036,-2.216759921868025618
0.198000000000000037,-3.593895698604605116
0.199000000000000038,-4.946361255208610253
0.200000000000000039,-6.268840462278665981
0.201000000000000040,-7.556330310359072655
0.202000000000000041,-8.804283975651614469
0.203000000000000042,-10.008722213553983948
0.204000000000000042,-11.166314221452548594
0.205000000000000043,-12.274429917309031879
0.206000000000000044,-13.331166162291626875
0.207000000000000045,-14.335349841512723401
0.208000000000000046,-15.286520935210365479
0.209000000000000047,-16.184898791322531508
0.210000000000000048,-17.031334775788742775
0.211000000000000049,-17.827254353435414203
0.212000000000000050,-18.574591461871687414
0.213000000000000050,-19.275717802697492687
0.214000000000000051,-19.933369405093621651
0.215000000000000052,-20.550572530488352641
0.216000000000000053,-21.130570694982235835
0.217000000000000054,-21.676754297797096172
0.218000000000000055,-22.192594066390007868
0.219000000000000056,-22.681579267426094759
0.220000000000000057,-23.147161391367717442
0.221000000000000058,-23.592703799501009598
0.222000000000000058,-24.021437627184642594
0.223000000000000059,-24.436424066435954217
0.224000000000000060,-24.840523004432114362
0.225000000000000061,-25.236367871283285069
0.226000000000000062,-25.626346449299326480
0.227000000000000063,-26.012587315387900588
0.228000000000000064,-26.396951526455005421
0.229000000000000065,-26.781029112881345355
0.230000000000000066,-27.166139915422739648
0.231000000000000066,-27.553338284350228804
0.232000000000000067,-27.943421154470048151
0.233000000000000068,-28.336939014101965029
0.234000000000000069,-28.734209298510343444
0.235000000000000070,-29.135331757161004873
0.236000000000000071,-29.540205368142768094
0.237000000000000072,-29.948546400906320031
0.238000000000000073,-30.359907259031750471
0.239000000000000073,-30.773695767076283403
0.240000000000000074,-31.189194598842369999
0.241000000000000075,-31.605580577928986230
0.242000000000000076,-32.021943614589559957
0.243000000000000077,-32.437305075231236628
0.244000000000000078,-32.850635411950534603
0.245000000000000079,-33.260870909006044371
0.246000000000000080,-33.666929430844035664
0.247000000000000081,-34.067725082055765995
0.248000000000000081,-34.462181713344527623
0.249000000000000082,-34.849245229165276783
0.250000000000000111,-35.227894672152103794
0.251000000000000112,-35.597152076791779507
0.252000000000000113,-35.956091100088990231
0.253000000000000114,-36.303844450266929300
0.254000000000000115,-36.639610145959252918
0.255000000000000115,-36.962656647971684265
0.256000000000000116,-37.272326913645990487
0.257000000000000117,-37.568041430267179237
0.258000000000000118,-37.849300288937982373
0.259000000000000119,-38.115684364037136334
0.260000000000000120,-38.366855665898370376
0.261000000000000121,-38.602556935822214257
0.262000000000000122,-38.822610553081716489
0.263000000000000123,-39.026916823316788907
0.264000000000000123,-39.215451716742670385
0.265000000000000124,-39.388264123023198238
0.266000000000000125,-39.545472687576292969
0.267000000000000126,-39.687262291574427309
0.268000000000000127,-39.813880235057197865
0.269000000000000128,-39.925632179459213944
0.270000000000000129,-40.022877902542106199
0.271000000000000130,-40.106026915263115029
0.272000000000000131,-40.175533986568062517
0.273000000000000131,-40.231894618509912220
0.274000000000000132,-40.275640510507471959
0.275000000000000133,-40.307335048007743694
0.276000000000000134,-40.327568847329089863
0.277000000000000135,-40.336955385067803093
0.278000000000000136,-40.336126737170161505
0.279000000000000137,-40.325729449620105527
0.280000000000000138,-40.306420559686145566
0.281000000000000139,-40.278863783819431887
0.282000000000000139,-40.243725885605222459
0.283000000000000140,-40.201673234649014432
0.284000000000000141,-40.153368564927234274
0.285000000000000142,-40.099467938953644364
0.286000000000000143,-40.040617922103791670
0.287000000000000144,-39.977452969599688970
0.288000000000000145,-39.910593026981956655
0.289000000000000146,-39.840641343381157924
0.290000000000000147,-39.768182495539903698
0.291000000000000147,-39.693780619325444547
0.292000000000000148,-39.617977844402368248
0.293000000000000149,-39.541292926799656016
0.294000000000000150,-39.464220073298079683
0.295000000000000151,-39.387227950875484339
0.296000000000000152,-39.310758873870874197
0.297000000000000153,-39.235228161055779594
0.298000000000000154,-39.161023654425605400
0.299000000000000155,-39.088505391237120534
0.300000000000000155,-39.018005420612873024
0.301000000000000156,-38.949827755903598359
0.302000000000000157,-38.884248453936436363
0.303000000000000158,-38.821515812275649182
0.304000000000000159,-38.761850675675937339
0.305000000000000160,-38.705446843009994495
0.306000000000000161,-38.652471566098206779
0.307000000000000162,-38.603066132050386727
0.308000000000000163,-38.557346520945976920
0.309000000000000163,-38.515404130922604509
0.310000000000000164,-38.477306563010685636
0.311000000000000165,-38.443098458338567980
0.312000000000000166,-38.412802380636243527
0.313000000000000167,-38.386419737280711217
0.314000000000000168,-38.363931732451092671
0.315000000000000169,-38.345300346292653160
0.316000000000000170,-38.330469334324376973
0.317000000000000171,-38.319365241660847232
0.318000000000000171,-38.311898426955018238
0.319000000000000172,-38.307964091302807219
0.320000000000000173,-38.307443307678560984
0.321000000000000174,-38.310204046795092836
0.322000000000000175,-38.316102195598311653
0.323000000000000176,-38.324982564915686112
0.324000000000000177,-38.336679883077451336
0.325000000000000178,-38.351019772620119852
0.326000000000000179,-38.367819707461457313
0.327000000000000179,-38.386889948205620726
0.328000000000000180,-38.408034453494877880
0.329000000000000181,-38.431051765570721557
0.330000000000000182,-38.455735868441749403
0.331000000000000183,-38.481877017279060738
0.332000000000000184,-38.509262537869759058
0.333000000000000185,-38.537677595159571808
0.334000000000000186,-38.566905930101974320
0.335000000000000187,-38.596730564207064162
0.336000000000000187,-38.626934471348690181
0.337000000000000188,-38.657301216539906363
0.338000000000000189,-38.687615561530691366
0.339000000000000190,-38.717664037212792039
0.340000000000000191,-38.747235482937483653
0.341000000000000192,-38.776121552965250316
0.342000000000000193,-38.804117190366028467
0.343000000000000194,-38.831021068783719841
0.344000000000000195,-38.856636002560655641
0.345000000000000195,-38.880769325795242253
0.346000000000000196,-38.903233240971658802
0.347000000000000197,-38.923845137862237209
0.348000000000000198,-38.942427883454556081
0.349000000000000199,-38.958810083702218208
0.350000000000000200,-38.972826317936963392
0.351000000000000201,-38.984317346814307825
0.352000000000000202,-38.993130294691312088
0.353000000000000203,-38.999118807358925665
0.354000000000000203,-39.002143186068096270
0.355000000000000204,-39.002070498801522547
0.356000000000000205,-38.998774669752471311
0.357000000000000206,-38.992136547975931649
0.358000000000000207,-38.982043956178259236
0.359000000000000208,-38.968391720610107143
0.360000000000000209,-38.951081683020710500
0.361000000000000210,-38.930022695624408868
0.362000000000000210,-38.905130600018573261
0.363000000000000211,-38.876328190979940302
0.364000000000000212,-38.843545166050354567
0.365000000000000213,-38.806718061806535047
0.366000000000000214,-38.765790177689318341
0.367000000000000215,-38.720711488248198862
0.368000000000000216,-38.671438544635407197
0.369000000000000217,-38.617934366161293269
0.370000000000000218,-38.560168322699695409
0.371000000000000218,-38.498116008707533808
0.372000000000000219,-38.431759109598516488
0.373000000000000220,-38.361085261185337458
0.374000000000000221,-38.286087902879380351
0.375000000000000222,-38.206766125310792859
0.376000000000000223,-38.123124513006459324
0.377000000000000224,-38.035172982736540348
0.378000000000000225,-37.942926618114853454
0.379000000000000226,-37.846405501012284844
0.380000000000000226,-37.745634540316913785
0.381000000000000227,-37.640643298548567941
0.382000000000000228,-37.531465816811234504
0.383000000000000229,-37.418140438541414028
0.384000000000000230,-37.300709632486082512
0.385000000000000231,-37.179219815320976750
0.386000000000000232,-37.053721174295205287
0.387000000000000233,-36.924267490266821312
0.388000000000000234,-36.790915961470240347
0.389000000000000234,-36.653727028336248850
0.390000000000000235,-36.512764199662932185
0.391000000000000236,-36.368093880416303421
0.392000000000000237,-36.219785201419114173
0.393000000000000238,-36.067909851167613056
0.394000000000000239,-35.912541909996853917
0.395000000000000240,-35.753757686797932536
0.396000000000000241,-35.591635558473292633
0.397000000000000242,-35.426255812298904857
0.398000000000000242,-35.257700491347563343
0.399000000000000243,-35.086053243111152256
0.400000000000000244,-34.911399171445751222
0.401000000000000245,-34.733824691949500618
0.402000000000000246,-34.553417390869718417
0.403000000000000247,-34.370265887622885259
0.404000000000000248,-34.184459700999589415
0.405000000000000249,-33.996089119114678567
0.406000000000000250,-33.805245073151809265
0.407000000000000250,-33.612019014941857620
0.408000000000000251,-33.416502798404465580
0.409000000000000252,-33.218788564872745894
0.410000000000000253,-33.018968632312926559
0.411000000000000254,-32.817135388442224553
0.412000000000000255,-32.613381187740550615
0.413000000000000256,-32.407798252344846901
0.414000000000000257,-32.200478576807562092
0.415000000000000258,-31.991513836695236961
0.416000000000000258,-31.780995300996767838
0.417000000000000259,-31.569013748305742695
0.418000000000000260,-31.355659386736430605
0.419000000000000261,-31.141021777528049341
0.420000000000000262,-30.925189762287921269
0.421000000000000263,-30.708251393820471975
0.422000000000000264,-30.490293870484872940
0.423000000000000265,-30.271403474021575164
0.424000000000000266,-30.051665510784857815
0.425000000000000266,-29.831164256315723549
0.426000000000000267,-29.609982903187539449
0.427000000000000268,-29.388203512054342781
0.428000000000000269,-29.165906965830572517
0.429000000000000270,-28.943172926928816935
0.430000000000000271,-28.720079797481069761
0.431000000000000272,-28.496704682468351422
0.432000000000000273,-28.273123355681843094
0.433000000000000274,-28.049410228438784287
0.434000000000000274,-27.825638320975297546
0.435000000000000275,-27.601879236438485066
0.436000000000000276,-27.378203137399548694
0.437000000000000277,-27.154678724809805601
0.438000000000000278,-26.931373219321777412
0.439000000000000279,-26.708352344897729580
0.440000000000000280,-26.485680314628019971
0.441000000000000281,-26.263419818682809392
0.442000000000000282,-26.041632014320747146
0.443000000000000282,-25.820376517879225275
0.444000000000000283,-25.599711398671399110
0.445000000000000284,-25.379693174716372539
0.446000000000000285,-25.160376810229326594
0.447000000000000286,-24.941815714800334547
0.448000000000000287,-24.724061744190457546
0.449000000000000288,-24.507165202676176818
0.450000000000000289,-24.291174846873296644
0.451000000000000290,-24.076137890973392075
0.452000000000000290,-23.862100013327058434
0.453000000000000291,-23.649105364309114918
0.454000000000000292,-23.437196575403042687
0.455000000000000293,-23.226414769442339292
0.456000000000000294,-23.016799571948901360
0.457000000000000295,-22.808389123509190455
0.458000000000000296,-22.601220093130670818
0.459000000000000297,-22.395327692522673857
0.460000000000000298,-22.190745691246664961
0.461000000000000298,-21.987506432683282753
0.462000000000000299,-21.785640850764025345
0.463000000000000300,-21.585178487417540083
0.464000000000000301,-21.386147510681770001
0.465000000000000302,-21.188574733434730746
0.466000000000000303,-20.992485632697846398
0.467000000000000304,-20.797904369467552499
0.468000000000000305,-20.604853809032295686
0.469000000000000306,-20.413355541733114507
0.470000000000000306,-20.223429904127918633
0.471000000000000307,-20.035096000520354664
0.472000000000000308,-19.848371724816153971
0.473000000000000309,-19.663273782670650291
0.474000000000000310,-19.479817713892902731
0.475000000000000311,-19.298017915072712469
0.476000000000000312,-19.117887662398953097
0.477000000000000313,-18.939439134637492401
0.478000000000000314,-18.762683436239754542
0.479000000000000314,-18.587630620553284189
0.480000000000000315,-18.414289713106818169
0.481000000000000316,-18.242668734944174957
0.482000000000000317,-18.072774725981759047
0.483000000000000318,-17.904613768365940984
0.484000000000000319,-17.738191009807614762
0.485000000000000320,-17.573510686872214848
0.486000000000000321,-17.410576148204643943
0.487000000000000322,-17.249389877669354831
0.488000000000000322,-17.089953517387037607
0.489000000000000323,-16.932267890650358311
0.490000000000000324,-16.776333024701763463
0.491000000000000325,-16.622148173357768286
0.492000000000000326,-16.469711839464515890
0.493000000000000327,-16.319021797170798038
0.494000000000000328,-16.170075114005069139
0.495000000000000329,-16.022868172744079374
0.496000000000000330,-15.877396693061418986
0.497000000000000330,-15.733655752945082895
0.498000000000000331,-15.591639809873777622
0.499000000000000332,-15.451342721742685526
0.500000000000000333,-15.312757767529621589
0.501000000000000334,-15.175877667693592699
0.502000000000000335,-15.040694604298261439
0.503000000000000336,-14.907200240853393680
0.504000000000000337,-14.775385741867927081
0.505000000000000338,-14.645241792109032986
0.506000000000000338,-14.516758615561968782
0.507000000000000339,-14.389925994085947636
0.508000000000000340,-14.264733285762043025
0.509000000000000341,-14.141169442929433231
0.510000000000000342,-14.019223029906680011
0.511000000000000343,-13.898882240395419529
0.512000000000000344,-13.780134914564124315
0.513000000000000345,-13.662968555809944959
0.514000000000000346,-13.547370347197315255
0.515000000000000346,-13.433327167571988525
0.516000000000000347,-13.320825607349785713
0.517000000000000348,-13.209851983979806533
0.518000000000000349,-13.100392357081608097
0.519000000000000350,-12.992432543257024236
0.520000000000000351,-12.885958130576758762
0.521000000000000352,-12.780954492742747419
0.522000000000000353,-12.677406802927254859
0.523000000000000353,-12.575300047289955430
0.524000000000000354,-12.474619038174811436
0.525000000000000355,-12.375348426988065142
0.526000000000000356,-12.277472716759806559
0.527000000000000357,-12.180976274390998171
0.528000000000000358,-12.085843342588377780
0.529000000000000359,-11.992058051489937753
0.530000000000000360,-11.899604429983551057
0.531000000000000361,-11.808466416721682180
0.532000000000000361,-11.718627870835220506
0.533000000000000362,-11.630072582349569643
0.534000000000000363,-11.542784282306365995
0.535000000000000364,-11.456746652594057778
0.536000000000000365,-11.371943335491062399
0.537000000000000366,-11.288357942925037136
0.538000000000000367,-11.205974065451883348
0.539000000000000368,-11.124775280958482782
0.540000000000000369,-11.044745163092798634
0.541000000000000369,-10.965867289425501596
0.542000000000000370,-10.888125249346964907
0.543000000000000371,-10.811502651703744249
0.544000000000000372,-10.735983132178692045
0.545000000000000373,-10.661550360418768690
0.546000000000000374,-10.588188046914812190
0.547000000000000375,-10.515879949637405133
0.548000000000000376,-10.444609880433215920
0.549000000000000377,-10.374361711185951407
0.550000000000000377,-10.305119379746198405
0.551000000000000378,-10.236866895634580743
0.552000000000000379,-10.169588345522402761
0.553000000000000380,-10.103267898494106447
0.554000000000000381,-10.037889811095874748
0.555000000000000382,-9.973438432174686952
0.556000000000000383,-9.909898207512011226
0.557000000000000384,-9.847253684256525474
0.558000000000000385,-9.785489515160069374
0.559000000000000385,-9.724590462621055309
0.560000000000000386,-9.664541402539583714
0.561000000000000387,-9.605327327988394615
0.562000000000000388,-9.546933352703948827
0.563000000000000389,-9.489344714401562797
0.564000000000000390,-9.432546777918934922
0.565000000000000391,-9.376525038191944716
0.566000000000000392,-9.321265123066853064
0.567000000000000393,-9.266752795952893251
0.568000000000000393,-9.212973958319135903
0.569000000000000394,-9.159914652039613969
0.570000000000000395,-9.107561061590583762
0.571000000000000396,-9.055899516103652402
0.572000000000000397,-9.004916491278672552
0.573000000000000398,-8.954598611160017541
0.574000000000000399,-8.904932649780059606
0.575000000000000400,-8.855905532673329361
0.576000000000000401,-8.807504338265067290
0.577000000000000401,-8.759716299137650708
0.578000000000000402,-8.712528803178386738
0.579000000000000403,-8.665929394612069459
0.580000000000000404,-8.619905774921786445
0.581000000000000405,-8.574445803661149057
0.582000000000000406,-8.529537499161362391
0.583000000000000407,-8.485169039136266633
0.584000000000000408,-8.441328761188524155
0.585000000000000409,-8.398005163220130243
0.586000000000000409,-8.355186903750201566
0.587000000000000410,-8.312862802143147434
0.588000000000000411,-8.271021838750083788
0.589000000000000412,-8.229653154966475981
0.590000000000000413,-8.188746053208722842
0.591000000000000414,-8.148289996812636105
0.592000000000000415,-8.108274609856390924
0.593000000000000416,-8.068689676910702602
0.594000000000000417,-8.029525142718826558
0.595000000000000417,-7.990771111809053195
0.596000000000000418,-7.952417848041955395
0.597000000000000419,-7.914455774095209506
0.598000000000000420,-7.876875470888077935
0.599000000000000421,-7.839667676948126385
0.600000000000000422,-7.802823287722381096
0.601000000000000423,-7.766333354835216696
0.602000000000000424,-7.730189085295189777
0.603000000000000425,-7.694381840652906313
0.604000000000000425,-7.658903136112162890
0.605000000000000426,-7.623744639596253592
