# Au-001-PEG_LEUSCA-AC
# h[nm],U(h)[kJ/mol]
0.149999999999999994,108.686338596724993977
0.150999999999999995,106.715498766739941061
0.151999999999999996,104.667359501595939264
0.152999999999999997,102.598092469751307476
0.153999999999999998,100.529165859093268409
0.154999999999999999,98.468765666109263179
0.156000000000000000,96.421376528689023644
0.157000000000000001,94.391272618449050924
0.158000000000000002,92.383179579929560532
0.159000000000000002,90.401859365161470805
0.160000000000000003,88.451483220280891828
0.161000000000000004,86.535159175345583549
0.162000000000000005,84.654716979373461072
0.163000000000000006,82.810728413007069548
0.164000000000000007,81.002693544326078268
0.165000000000000008,79.229316689409515106
0.166000000000000009,77.488807714704563523
0.167000000000000010,75.779162560623333889
0.168000000000000010,74.098395046156980470
0.169000000000000011,72.444707204058673256
0.170000000000000012,70.816596653934283268
0.171000000000000013,69.212906953482175254
0.172000000000000014,67.632831066878523529
0.173000000000000015,66.075879803090344922
0.174000000000000016,64.541827038322338694
0.175000000000000017,63.030642378567449668
0.176000000000000018,61.542420143410552669
0.177000000000000018,60.077311534256111258
0.178000000000000019,58.635464847487227757
0.179000000000000020,57.216976769778078449
0.180000000000000021,55.821856239926866294
0.181000000000000022,54.450001116704676463
0.182000000000000023,53.101186955974831960
0.183000000000000024,51.775066549710061281
0.184000000000000025,50.471178478005022328
0.185000000000000026,49.188962730127762768
0.186000000000000026,47.927781418504999067
0.187000000000000027,46.686942699123292755
0.188000000000000028,45.465726186375192697
0.189000000000000029,44.263408378494091266
0.190000000000000030,43.079286865692296260
0.191000000000000031,41.912702356722377317
0.192000000000000032,40.763057815643165327
0.193000000000000033,39.629834238311289596
0.194000000000000034,38.512602810496467498
0.195000000000000034,37.411033372521323770
0.196000000000000035,36.324899267352279253
0.197000000000000036,35.254078770326188419
0.198000000000000037,34.198553390718402056
0.199000000000000038,33.158403400568886354
0.200000000000000039,32.133800987563411411
0.201000000000000040,31.125001449573268530
0.202000000000000041,30.132332852016627811
0.203000000000000042,29.156184558760060099
0.204000000000000042,28.196995025871569140
0.205000000000000043,27.255239217949167596
0.206000000000000044,26.331415971445146340
0.207000000000000045,25.426035590532443109
0.208000000000000046,24.539607920424231224
0.209000000000000047,23.672631102161041383
0.210000000000000048,22.825581172919918060
0.211000000000000049,21.998902637812097538
0.212000000000000050,21.193000103607328555
0.213000000000000050,20.408231032343316258
0.214000000000000051,19.644899643646301257
0.215000000000000052,18.903251968962550222
0.216000000000000053,18.183472038811942184
0.217000000000000054,17.485679165557481696
0.218000000000000055,16.809926268899673119
0.219000000000000056,16.156199179154086210
0.220000000000000057,15.524416844115716430
0.221000000000000058,14.914432358697913727
0.222000000000000058,14.326034732272376004
0.223000000000000059,13.758951306458849118
0.224000000000000060,13.212850735734946284
0.225000000000000061,12.687346444393863720
0.226000000000000062,12.182000475816453289
0.227000000000000063,11.696327653506902067
0.228000000000000064,11.229799977651312659
0.229000000000000065,10.781851185896764278
0.230000000000000066,10.351881412440636865
0.231000000000000066,9.939261885206994052
0.232000000000000067,9.543339606735553815
0.233000000000000068,9.163441970299372130
0.234000000000000069,8.798881268603684802
0.235000000000000070,8.448959058116104259
0.236000000000000071,8.112970347572593610
0.237000000000000072,7.790207584439523991
0.238000000000000073,7.479964418051530117
0.239000000000000073,7.181539222757064245
0.240000000000000074,6.894238368668536232
0.241000000000000075,6.617379231521967498
0.242000000000000076,6.350292936696799728
0.243000000000000077,6.092326835631848070
0.244000000000000078,5.842846715705752203
0.245000000000000079,5.601238747140246943
0.246000000000000080,5.366911172646504191
0.247000000000000081,5.139295747384410085
0.248000000000000081,4.917848938361953692
0.249000000000000082,4.702052893685179313
0.250000000000000111,4.491416193099103893
0.251000000000000112,4.285474392058405968
0.252000000000000113,4.083790372151987924
0.253000000000000114,3.885954511101901598
0.254000000000000115,3.691584685779782493
0.255000000000000115,3.500326121756678788
0.256000000000000116,3.311851102839840078
0.257000000000000117,3.125858553871907031
0.258000000000000118,2.942073509789971730
0.259000000000000119,2.760246483578701060
0.260000000000000120,2.580152745317708884
0.261000000000000121,2.401591524032061109
0.262000000000000122,2.224385143516634411
0.263000000000000123,2.048378102732312467
0.264000000000000123,1.873436110772978891
0.265000000000000124,1.699445085786724929
0.266000000000000125,1.526310126609248030
0.267000000000000126,1.353954465239898708
0.268000000000000127,1.182318407665747140
0.269000000000000128,1.011358269923271269
0.270000000000000129,0.841045315683189521
0.271000000000000130,0.671364701056693214
0.272000000000000131,0.502314431753268842
0.273000000000000131,0.333904337173897781
0.274000000000000132,0.166155065500999122
0.275000000000000133,-0.000902896651323282
0.276000000000000134,-0.167230176934078045
0.277000000000000135,-0.332779439658831167
0.278000000000000136,-0.497496275660579024
0.279000000000000137,-0.661320057786232818
0.280000000000000138,-0.824184760529130145
0.281000000000000139,-0.986019742665579790
0.282000000000000139,-1.146750492058374871
0.283000000000000140,-1.306299332075759656
0.284000000000000141,-1.464586089332792662
0.285000000000000142,-1.621528722696896851
0.286000000000000143,-1.777043913711065626
0.287000000000000144,-1.931047618777968378
0.288000000000000145,-2.083455583617729978
0.289000000000000146,-2.234183820661004294
0.290000000000000147,-2.383149050170598304
0.291000000000000147,-2.530269105997874135
0.292000000000000148,-2.675463306978086653
0.293000000000000149,-2.818652795050468285
0.294000000000000150,-2.959760841257534913
0.295000000000000151,-3.098713120833003209
0.296000000000000152,-3.235437958631216304
0.297000000000000153,-3.369866546183188483
0.298000000000000154,-3.501933131686898459
0.299000000000000155,-3.631575184252731070
0.300000000000000155,-3.758733533730151954
0.301000000000000156,-3.883352487439364786
0.302000000000000157,-4.005379925123123463
0.303000000000000158,-4.124767373418958272
0.304000000000000159,-4.241470061132451619
0.305000000000000160,-4.355446956567710970
0.306000000000000161,-4.466660788143048677
0.307000000000000162,-4.575078049488220167
0.308000000000000163,-4.680668990185070655
0.309000000000000163,-4.783407593276629122
0.310000000000000164,-4.883271540631012542
0.311000000000000165,-4.980242167206050397
0.312000000000000166,-5.074304405219263181
0.313000000000000167,-5.165446719185423419
0.314000000000000168,-5.253661032741160142
0.315000000000000169,-5.338942648132972479
0.316000000000000170,-5.421290159202039050
0.317000000000000171,-5.500705358656184707
0.318000000000000171,-5.577193140376925484
0.319000000000000172,-5.650761397467751301
0.320000000000000173,-5.721420916708362725
0.321000000000000174,-5.789185270039372888
0.322000000000000175,-5.854070703662581643
0.323000000000000176,-5.916096025303504646
0.324000000000000177,-5.975282490145739978
0.325000000000000178,-6.031653685910457696
0.326000000000000179,-6.085235417519941237
0.327000000000000179,-6.136055591750114502
0.328000000000000180,-6.184144102245108243
0.329000000000000181,-6.229532715236030249
0.330000000000000182,-6.272254956276308135
0.331000000000000183,-6.312345998278212633
0.332000000000000184,-6.349842551107931499
0.333000000000000185,-6.384782752971243980
0.334000000000000186,-6.417206063797664228
0.335000000000000187,-6.447153160807853389
0.336000000000000187,-6.474665836427739407
0.337000000000000188,-6.499786898691937154
0.338000000000000189,-6.522560074260432827
0.339000000000000190,-6.543029914154054438
0.340000000000000191,-6.561241702297455625
0.341000000000000192,-6.577241366942843115
0.342000000000000193,-6.591075395032612860
0.343000000000000194,-6.602790749545695448
0.344000000000000195,-6.612434789859433337
0.345000000000000195,-6.620055195147455329
0.346000000000000196,-6.625699890822789762
0.347000000000000197,-6.629416978025777674
0.348000000000000198,-6.631254666147088805
0.349000000000000199,-6.631261208367781990
0.350000000000000200,-6.629484840190862371
0.351000000000000201,-6.625973720931750854
0.352000000000000202,-6.620775878128918990
0.353000000000000203,-6.613939154830397626
0.354000000000000203,-6.605511159706848545
0.355000000000000204,-6.595539219937323949
0.356000000000000205,-6.584070336810197155
0.357000000000000206,-6.571151143978198661
0.358000000000000207,-6.556827868303417794
0.359000000000000208,-6.541146293225923891
0.360000000000000209,-6.524151724587372136
0.361000000000000210,-6.505888958839205927
0.362000000000000210,-6.486402253563845477
0.363000000000000211,-6.465735300236043592
0.364000000000000212,-6.443931199151050393
0.365000000000000213,-6.421032436445460512
0.366000000000000214,-6.397080863136731743
0.367000000000000215,-6.372117676107090567
0.368000000000000216,-6.346183400958049781
0.369000000000000217,-6.319317876661881606
0.370000000000000218,-6.291560241937328435
0.371000000000000218,-6.262948923277265934
0.372000000000000219,-6.233521624557197605
0.373000000000000220,-6.203315318154416502
0.374000000000000221,-6.172366237508724041
0.375000000000000222,-6.140709871056939662
0.376000000000000223,-6.108380957474868644
0.377000000000000224,-6.075413482161583723
0.378000000000000225,-6.041840674902567265
0.379000000000000226,-6.007695008649666768
0.380000000000000226,-5.973008199357600745
0.381000000000000227,-5.937811206818053300
0.382000000000000228,-5.902134236434449122
0.383000000000000229,-5.866006741881895081
0.384000000000000230,-5.829457428598526114
0.385000000000000231,-5.792514258056427501
0.386000000000000232,-5.755204452761642386
0.387000000000000233,-5.717554501934873024
0.388000000000000234,-5.679590167825853797
0.389000000000000234,-5.641336492616423115
0.390000000000000235,-5.602817805868650858
0.391000000000000236,-5.564057732476372919
0.392000000000000237,-5.525079201079845959
0.393000000000000238,-5.485904452905158379
0.394000000000000239,-5.446555050991308988
0.395000000000000240,-5.407051889769741493
0.396000000000000241,-5.367415204962485475
0.397000000000000242,-5.327664583766532402
0.398000000000000242,-5.287818975293798296
0.399000000000000243,-5.247896701237122485
0.400000000000000244,-5.207915466734399423
0.401000000000000245,-5.167892371404331442
0.402000000000000246,-5.127843920528389887
0.403000000000000247,-5.087786036355093522
0.404000000000000248,-5.047734069503897913
0.405000000000000249,-5.007702810447192121
0.406000000000000250,-4.967706501050043855
0.407000000000000250,-4.927758846148611482
0.408000000000000251,-4.887873025149052530
0.409000000000000252,-4.848061703630028418
0.410000000000000253,-4.808337044932746274
0.411000000000000254,-4.768710721723616430
0.412000000000000255,-4.729193927515457752
0.413000000000000256,-4.689797388134190115
0.414000000000000257,-4.650531373118696798
0.415000000000000258,-4.611405707042598223
0.416000000000000258,-4.572429780747247818
0.417000000000000259,-4.533612562476240448
0.418000000000000260,-4.494962608902353551
0.419000000000000261,-4.456488076038590762
0.420000000000000262,-4.418196730025665708
0.421000000000000263,-4.380095957788990191
0.422000000000000264,-4.342192777558667061
0.423000000000000265,-4.304493849246791903
0.424000000000000266,-4.267005484676858806
0.425000000000000266,-4.229733657660453616
0.426000000000000267,-4.192684013917201469
0.427000000000000268,-4.155861880834171629
0.428000000000000269,-4.119272277061527987
0.429000000000000270,-4.082919921941671859
0.430000000000000271,-4.046809244769366209
0.431000000000000272,-4.010944393880976122
0.432000000000000273,-3.975329245571067815
0.433000000000000274,-3.939967412835156946
0.434000000000000274,-3.904862253937582572
0.435000000000000275,-3.870016880803874848
0.436000000000000276,-3.835434167237264269
0.437000000000000277,-3.801116756959155740
0.438000000000000278,-3.767067071473787276
0.439000000000000279,-3.733287317757466806
0.440000000000000280,-3.699779495772907101
0.441000000000000281,-3.666545405809553237
0.442000000000000282,-3.633586655650900443
0.443000000000000282,-3.600904667569919670
0.444000000000000283,-3.568500685154011087
0.445000000000000284,-3.536375779960943877
0.446000000000000285,-3.504530858007363747
0.447000000000000286,-3.472966666091807042
0.448000000000000287,-3.441683797953849044
0.449000000000000288,-3.410682700271620238
0.450000000000000289,-3.379963678499589896
0.451000000000000290,-3.349526902548897844
0.452000000000000290,-3.319372412312457499
0.453000000000000291,-3.289500123037110590
0.454000000000000292,-3.259909830545302700
0.455000000000000293,-3.230601216308617296
0.456000000000000294,-3.201573852375747542
0.457000000000000295,-3.172827206157378122
0.458000000000000296,-3.144360645070549687
0.459000000000000297,-3.116173441045119397
0.460000000000000298,-3.088264774894903475
0.461000000000000298,-3.060633740556158777
0.462000000000000299,-3.033279349196045693
0.463000000000000300,-3.006200533193692515
0.464000000000000301,-2.979396149996583976
0.465000000000000302,-2.952864985854885216
0.466000000000000303,-2.926605759436353704
0.467000000000000304,-2.900617125324519208
0.468000000000000305,-2.874897677402739937
0.469000000000000306,-2.849445952126762105
0.470000000000000306,-2.824260431688426998
0.471000000000000307,-2.799339547073022239
0.472000000000000308,-2.774681681012959977
0.473000000000000309,-2.750285170840233828
0.474000000000000310,-2.726148311240197408
0.475000000000000311,-2.702269356909157150
0.476000000000000312,-2.678646525118272503
0.477000000000000313,-2.655277998186101662
0.478000000000000314,-2.632161925862264162
0.479000000000000314,-2.609296427624584247
0.480000000000000315,-2.586679594891963418
0.481000000000000316,-2.564309493155386033
0.482000000000000317,-2.542184164029205107
0.483000000000000318,-2.520301627225004726
0.484000000000000319,-2.498659882450158687
0.485000000000000320,-2.477256911233286729
0.486000000000000321,-2.456090678678656491
0.487000000000000322,-2.435159135151623744
0.488000000000000322,-2.414460217897095529
0.489000000000000323,-2.393991852593076786
0.490000000000000324,-2.373751954841148315
0.491000000000000325,-2.353738431595857605
0.492000000000000326,-2.333949182534807321
0.493000000000000327,-2.314382101371354139
0.494000000000000328,-2.295035077111616140
0.495000000000000329,-2.275905995257589964
0.496000000000000330,-2.256992738958033762
0.497000000000000330,-2.238293190108842090
0.498000000000000331,-2.219805230404436891
0.499000000000000332,-2.201526742341887832
0.500000000000000333,-2.183455610179204420
0.501000000000000334,-2.165589720849341759
0.502000000000000335,-2.147926964831417873
0.503000000000000336,-2.130465236980547239
0.504000000000000337,-2.113202437317688531
0.505000000000000338,-2.096136471780885469
0.506000000000000338,-2.079265252939216602
0.507000000000000339,-2.062586700670740569
0.508000000000000340,-2.046098742805688264
0.509000000000000341,-2.029799315736160459
0.510000000000000342,-2.013686364993461986
0.511000000000000343,-1.997757845794276621
0.512000000000000344,-1.982011723556778238
0.513000000000000345,-1.966445974387766693
0.514000000000000346,-1.951058585541940449
0.515000000000000346,-1.935847555854245172
0.516000000000000347,-1.920810896146369684
0.517000000000000348,-1.905946629608364473
0.518000000000000349,-1.891252792156240092
0.519000000000000350,-1.876727432766574610
0.520000000000000351,-1.862368613788912608
0.521000000000000352,-1.848174411236901848
0.522000000000000353,-1.834142915058923240
0.523000000000000353,-1.820272229389066521
0.524000000000000354,-1.806560472779246140
0.525000000000000355,-1.793005778413158113
0.526000000000000356,-1.779606294302855884
0.527000000000000357,-1.766360183468670852
0.528000000000000358,-1.753265624103089282
0.529000000000000359,-1.740320809719342776
0.530000000000000360,-1.727523949285282301
0.531000000000000361,-1.714873267343207885
0.532000000000000361,-1.702367004116212446
0.533000000000000362,-1.690003415601665893
0.534000000000000363,-1.677780773652363333
0.535000000000000364,-1.665697366045898686
0.536000000000000365,-1.653751496542783528
0.537000000000000366,-1.641941484933829631
0.538000000000000367,-1.630265667077239300
0.539000000000000368,-1.618722394925966146
0.540000000000000369,-1.607310036545672727
0.541000000000000369,-1.596026976123863683
0.542000000000000370,-1.584871613970498361
0.543000000000000371,-1.573842366510565860
0.544000000000000372,-1.562937666268994885
0.545000000000000373,-1.552155961848265431
0.546000000000000374,-1.541495717899104445
0.547000000000000375,-1.530955415084596538
0.548000000000000376,-1.520533550038092985
0.549000000000000377,-1.510228635315189916
0.550000000000000377,-1.500039199340119200
0.551000000000000378,-1.489963786346857999
0.552000000000000379,-1.480000956315238536
0.553000000000000380,-1.470149284902333875
0.554000000000000381,-1.460407363369388589
0.555000000000000382,-1.450773798504590095
0.556000000000000383,-1.441247212541834966
0.557000000000000384,-1.431826243075866589
0.558000000000000385,-1.422509542973859897
0.559000000000000385,-1.413295780283809311
0.560000000000000386,-1.404183638139835155
0.561000000000000387,-1.395171814664660337
0.562000000000000388,-1.386259022869432478
0.563000000000000389,-1.377443990551082909
0.564000000000000390,-1.368725460187401044
0.565000000000000391,-1.360102188829987124
0.566000000000000392,-1.351572947995256291
0.567000000000000393,-1.343136523553658535
0.568000000000000393,-1.334791715617225982
0.569000000000000394,-1.326537338425640478
0.570000000000000395,-1.318372220230932257
0.571000000000000396,-1.310295203180920076
0.572000000000000397,-1.302305143201586413
0.573000000000000398,-1.294400909878405503
0.574000000000000399,-1.286581386336849375
0.575000000000000400,-1.278845469122086076
0.576000000000000401,-1.271192068078020432
0.577000000000000401,-1.263620106225795015
0.578000000000000402,-1.256128519641792396
0.579000000000000403,-1.248716257335244162
0.580000000000000404,-1.241382281125594567
0.581000000000000405,-1.234125565519592183
0.582000000000000406,-1.226945097588274747
0.583000000000000407,-1.219839876843881843
0.584000000000000408,-1.212808915116769137
0.585000000000000409,-1.205851236432392781
0.586000000000000409,-1.198965876888425708
0.587000000000000410,-1.192151884532076878
0.588000000000000411,-1.185408319237633457
0.589000000000000412,-1.178734252584339171
0.590000000000000413,-1.172128767734584853
0.591000000000000414,-1.165590959312527097
0.592000000000000415,-1.159119933283137227
0.593000000000000416,-1.152714806831732108
0.594000000000000417,-1.146374708244027207
0.595000000000000417,-1.140098776786779622
0.596000000000000418,-1.133886162588972457
0.597000000000000419,-1.127736026523686652
0.598000000000000420,-1.121647540090584982
0.599000000000000421,-1.115619885299118375
0.600000000000000422,-1.109652254552423667
0.601000000000000423,-1.103743850531970327
0.602000000000000424,-1.097893886082965897
0.603000000000000425,-1.092101584100559464
0.604000000000000425,-1.086366177416818513
0.605000000000000426,-1.080686908688553105
0.606000000000000427,-1.075063030285988042
0.607000000000000428,-1.069493804182230390
0.608000000000000429,-1.063978501843700020
0.609000000000000430,-1.058516404121334187
0.610000000000000431,-1.053106801142776883
0.611000000000000432,-1.047748992205414398
0.612000000000000433,-1.042442285670333257
0.613000000000000433,-1.037185998857220293
0.614000000000000434,-1.031979457940169542
