# Au-001-PEG_SERSCA-AC
# h[nm],U(h)[kJ/mol]
0.149999999999999994,57.187697128395107882
0.150999999999999995,55.598925053595976919
0.151999999999999996,54.430047231382523876
0.152999999999999997,53.331874008827313105
0.153999999999999998,52.195716933344542099
0.154999999999999999,51.016028415431634357
0.156000000000000000,49.820588151761029394
0.157000000000000001,48.638764787134341816
0.158000000000000002,47.490067908050747292
0.159000000000000002,46.382598168693860430
0.160000000000000003,45.315586889310473850
0.161000000000000004,44.282986328815070465
0.162000000000000005,43.276689462373120421
0.163000000000000006,42.288858300302592852
0.164000000000000007,41.313304745291162590
0.165000000000000008,40.346077969800226981
0.166000000000000009,39.385480222087359437
0.167000000000000010,38.431727785189686131
0.168000000000000010,37.486436188824768578
0.169000000000000011,36.552061533701319718
0.170000000000000012,35.631384763685147732
0.171000000000000013,34.727088195476106591
0.172000000000000014,33.841445146326286419
0.173000000000000015,32.976123682254439018
0.174000000000000016,32.132093034636724838
0.175000000000000017,31.309614506443484316
0.176000000000000018,30.508296159098694744
0.177000000000000018,29.727190888365431221
0.178000000000000019,28.964919574614633291
0.179000000000000020,28.219804002275090227
0.180000000000000021,27.489997591558314127
0.181000000000000022,26.773605273069119193
0.182000000000000023,26.068786815689598768
0.183000000000000024,25.373840457657166780
0.184000000000000025,24.687265739300315204
0.185000000000000026,24.007805997881590088
0.186000000000000026,23.334472099404688805
0.187000000000000027,22.666549707181264495
0.188000000000000028,22.003592788645175204
0.189000000000000029,21.345406207169212109
0.190000000000000030,20.692020197107421353
0.191000000000000031,20.043659333618030871
0.192000000000000032,19.400708331409653340
0.193000000000000033,18.763676677212437482
0.194000000000000034,18.133163750108241885
0.195000000000000034,17.509825734990783985
0.196000000000000035,16.894345303995301322
0.197000000000000036,16.287404739885769089
0.198000000000000037,15.689662910804457852
0.199000000000000038,15.101736280646125721
0.200000000000000039,14.524183954119246565
0.201000000000000040,13.957496608852284936
0.202000000000000041,13.402089055911403648
0.203000000000000042,12.858296091190737798
0.204000000000000042,12.326371249235771543
0.205000000000000043,11.806488043934802334
0.206000000000000044,11.298743272995441345
0.207000000000000045,10.803161971276471931
0.208000000000000046,10.319703618256832911
0.209000000000000047,9.848269233971135961
0.210000000000000048,9.388709032818979949
0.211000000000000049,8.940830343378966205
0.212000000000000050,8.504405542746745539
0.213000000000000050,8.079179794374674373
0.214000000000000051,7.664878417662182031
0.215000000000000052,7.261213754689665123
0.216000000000000053,6.867891433827293390
0.217000000000000054,6.484615961036004350
0.218000000000000055,6.111095597256566592
0.219000000000000056,5.747046504253569665
0.220000000000000057,5.392196161668563192
0.221000000000000058,5.046286074964502433
0.222000000000000058,4.709073807600232087
0.223000000000000059,4.380334381407338107
0.224000000000000060,4.059861097024340282
0.225000000000000061,3.747465831671148440
0.226000000000000062,3.442978874819402790
0.227000000000000063,3.146248363728933128
0.228000000000000064,2.857139380664134531
0.229000000000000065,2.575532772146408966
0.230000000000000066,2.301323748093395682
0.231000000000000066,2.034420315369928289
0.232000000000000067,1.774741596338366367
0.233000000000000068,1.522216078628277014
0.234000000000000069,1.276779837708797771
0.235000000000000070,1.038374769077486715
0.236000000000000071,0.806946862094231165
0.237000000000000072,0.582444542782670216
0.238000000000000073,0.364817108373923726
0.239000000000000073,0.154013272039113136
0.240000000000000074,-0.050020167805976713
0.241000000000000075,-0.247339523003218098
0.242000000000000076,-0.438005268781526624
0.243000000000000077,-0.622082950439880600
0.244000000000000078,-0.799643942277688757
0.245000000000000079,-0.970766059897281375
0.246000000000000080,-1.135534029105620180
0.247000000000000081,-1.294039816429561229
0.248000000000000081,-1.446382827745871680
0.249000000000000082,-1.592669982733421197
0.250000000000000111,-1.733015673800637257
0.251000000000000112,-1.867541618847469165
0.252000000000000113,-1.996376617711221213
0.253000000000000114,-2.119656222439695092
0.254000000000000115,-2.237522331657871177
0.255000000000000115,-2.350122719264397197
0.256000000000000116,-2.457610507534018218
0.257000000000000117,-2.560143594429936442
0.258000000000000118,-2.657884044564480241
0.259000000000000119,-2.750997452804490262
0.260000000000000120,-2.839652289015097697
0.261000000000000121,-2.924019231885616410
0.262000000000000122,-3.004270499198103295
0.263000000000000123,-3.080579181293054081
0.264000000000000123,-3.153118583868997682
0.265000000000000124,-3.222061585631349256
0.266000000000000125,-3.287580015689611113
0.267000000000000126,-3.349844054996432341
0.268000000000000127,-3.409021665533872092
0.269000000000000128,-3.465278050385111275
0.270000000000000129,-3.518775147288272453
0.271000000000000130,-3.569671157755798241
0.272000000000000131,-3.618120113359894141
0.273000000000000131,-3.664271480333905373
0.274000000000000132,-3.708269803222014271
0.275000000000000133,-3.750254387925816779
0.276000000000000134,-3.790359024146304989
0.277000000000000135,-3.828711746903155522
0.278000000000000136,-3.865434636529627710
0.279000000000000137,-3.900643656289624062
0.280000000000000138,-3.934448526542544844
0.281000000000000139,-3.966952634190415328
0.282000000000000139,-3.998252975978493051
0.283000000000000140,-4.028440134084121382
0.284000000000000141,-4.057598282316936533
0.285000000000000142,-4.085805221165364820
0.286000000000000143,-4.113132439857701605
0.287000000000000144,-4.139645203559225273
0.288000000000000145,-4.165402663798687399
0.289000000000000146,-4.190457990205242567
0.290000000000000147,-4.214858521640424627
0.291000000000000147,-4.238645934826064554
0.292000000000000148,-4.261856428597819324
0.293000000000000149,-4.284520921952847061
0.294000000000000150,-4.306665264108391789
0.295000000000000151,-4.328310454844308097
0.296000000000000152,-4.349472873465014544
0.297000000000000153,-4.370164514784989684
0.298000000000000154,-4.390393230614557218
0.299000000000000155,-4.410162975299179777
0.300000000000000155,-4.429474053944558065
0.301000000000000156,-4.448323372040665191
0.302000000000000157,-4.466704685279990983
0.303000000000000158,-4.484608848447665608
0.304000000000000159,-4.502024062343603639
0.305000000000000160,-4.518936117778347139
0.306000000000000161,-4.535328635765006666
0.307000000000000162,-4.551183303108595091
0.308000000000000163,-4.566480102671132357
0.309000000000000163,-4.581197537665868680
0.310000000000000164,-4.595312849406277600
0.311000000000000165,-4.608802228005239421
0.312000000000000166,-4.621641015586698487
0.313000000000000167,-4.633803901635903166
0.314000000000000168,-4.645265110175070156
0.315000000000000169,-4.655998578508942387
0.316000000000000170,-4.665978127339029058
0.317000000000000171,-4.675177622096422070
0.318000000000000171,-4.683571125390928458
0.319000000000000172,-4.691133040519007480
0.320000000000000173,-4.697838246014385710
0.321000000000000174,-4.703662221263604337
0.322000000000000175,-4.708581163244099699
0.323000000000000176,-4.712572094474750450
0.324000000000000177,-4.715612962298238564
0.325000000000000178,-4.717682729641247796
0.326000000000000179,-4.718761457422656846
0.327000000000000179,-4.718830378801091463
0.328000000000000180,-4.717871965472285822
0.329000000000000181,-4.715869986243481193
0.330000000000000182,-4.712809558126108911
0.331000000000000183,-4.708677190200826423
0.332000000000000184,-4.703460820518800212
0.333000000000000185,-4.697149846311969412
0.334000000000000186,-4.689735147791536107
0.335000000000000187,-4.681209105819022831
0.336000000000000187,-4.671565613737920231
0.337000000000000188,-4.660800083655880499
0.338000000000000189,-4.648909447468477119
0.339000000000000190,-4.635892152915077169
0.340000000000000191,-4.621748154955846566
0.341000000000000192,-4.606478902756711236
0.342000000000000193,-4.590087322565358896
0.343000000000000194,-4.572577796757551383
0.344000000000000195,-4.553956139327738128
0.345000000000000195,-4.534229568092703389
0.346000000000000196,-4.513406673870544061
0.347000000000000197,-4.491497386890701549
0.348000000000000198,-4.468512940683735835
0.349000000000000199,-4.444465833691835677
0.350000000000000200,-4.419369788833437340
0.351000000000000201,-4.393239711247101553
0.352000000000000202,-4.366091644431564944
0.353000000000000203,-4.337942724990480059
0.354000000000000203,-4.308811136181666335
0.355000000000000204,-4.278716060462146586
0.356000000000000205,-4.247677631211556282
0.357000000000000206,-4.215716883807810511
0.358000000000000207,-4.182855706220198755
0.359000000000000208,-4.149116789276632744
0.360000000000000209,-4.114523576753148504
0.361000000000000210,-4.079100215425392584
0.362000000000000210,-4.042871505213570416
0.363000000000000211,-4.005862849544237214
0.364000000000000212,-3.968100206044347544
0.365000000000000213,-3.929610037675198786
0.366000000000000214,-3.890419264406363542
0.367000000000000215,-3.850555215522340369
0.368000000000000216,-3.810045582647495710
0.369000000000000217,-3.768918373567938573
0.370000000000000218,-3.727201866922331241
0.371000000000000218,-3.684924567827059239
0.372000000000000219,-3.642115164495113078
0.373000000000000220,-3.598802485901948955
0.374000000000000221,-3.555015460545892125
0.375000000000000222,-3.510783076345133313
0.376000000000000223,-3.466134341708148270
0.377000000000000224,-3.421098247809337689
0.378000000000000225,-3.375703732096880572
0.379000000000000226,-3.329979643055287930
0.380000000000000226,-3.283954706240893362
0.381000000000000227,-3.237657491604250204
0.382000000000000228,-3.191116382109813632
0.383000000000000229,-3.144359543659448253
0.384000000000000230,-3.097414896322914224
0.385000000000000231,-3.050310086875442028
0.386000000000000232,-3.003072462639229112
0.387000000000000233,-2.955729046623148282
0.388000000000000234,-2.908306513952117367
0.389000000000000234,-2.860831169575377864
0.390000000000000235,-2.813328927240438926
0.391000000000000236,-2.765825289717594337
0.392000000000000237,-2.718345330257825321
0.393000000000000238,-2.670913675265298881
0.394000000000000239,-2.623554488163959419
0.395000000000000240,-2.576291454436355544
0.396000000000000241,-2.529147767811499303
0.397000000000000242,-2.482146117577335609
0.398000000000000242,-2.435308676992504306
0.399000000000000243,-2.388657092770993806
0.400000000000000244,-2.342212475612523992
0.401000000000000245,-2.295995391750964121
0.402000000000000246,-2.250025855492249427
0.403000000000000247,-2.204323322712938182
0.404000000000000248,-2.158906685290165939
0.405000000000000249,-2.113794266433356661
0.406000000000000250,-2.069003816887895475
0.407000000000000250,-2.024552511980823422
0.408000000000000251,-1.980456949478495376
0.409000000000000252,-1.936733148226237988
0.410000000000000253,-1.893396547539988761
0.411000000000000254,-1.850462007320130553
0.412000000000000255,-1.807943808857837897
0.413000000000000256,-1.765855656304549770
0.414000000000000257,-1.724210678775360162
0.415000000000000258,-1.683021433057586336
0.416000000000000258,-1.642299906895986483
0.417000000000000259,-1.602057522826612512
0.418000000000000260,-1.562305142531646096
0.419000000000000261,-1.523053071688050153
0.420000000000000262,-1.484311065283384190
0.421000000000000263,-1.446088333372601564
0.422000000000000264,-1.408393547250213818
0.423000000000000265,-1.371234846012713282
0.424000000000000266,-1.334619843486853030
0.425000000000000266,-1.298555635499742733
0.426000000000000267,-1.263048807467551216
0.427000000000000268,-1.228105442280048365
0.428000000000000269,-1.193731128458915158
0.429000000000000270,-1.159930968568382514
0.430000000000000271,-1.126709587857298134
0.431000000000000272,-1.094071143112474775
0.432000000000000273,-1.062019331703706548
0.433000000000000274,-1.030557400801533685
0.434000000000000274,-0.999688156749414913
0.435000000000000275,-0.969413974572653769
0.436000000000000276,-0.939736807607020497
0.437000000000000277,-0.910658197230594046
0.438000000000000278,-0.882179282683058785
0.439000000000000279,-0.854300810957220214
0.440000000000000280,-0.827023146748121496
0.441000000000000281,-0.800346282445754675
0.442000000000000282,-0.774269848157972285
0.443000000000000282,-0.748793121750680135
0.444000000000000283,-0.723915038893104490
0.445000000000000284,-0.699634203096368812
0.446000000000000285,-0.675948895734163724
0.447000000000000286,-0.652857086034982936
0.448000000000000287,-0.630356441035660131
0.449000000000000288,-0.608444335486729715
0.450000000000000289,-0.587117861700418908
0.451000000000000290,-0.566373839332700024
0.452000000000000290,-0.546208825091258676
0.453000000000000291,-0.526619122361679404
0.454000000000000292,-0.507600790744672237
0.455000000000000293,-0.489149655497503222
0.456000000000000294,-0.471261316873323288
0.457000000000000295,-0.453931159352418234
0.458000000000000296,-0.437154360759867633
0.459000000000000297,-0.420925901264442737
0.460000000000000298,-0.405240572253988240
0.461000000000000298,-0.390092985082865940
0.462000000000000299,-0.375477579687427399
0.463000000000000300,-0.361388633065768183
0.464000000000000301,-0.347820267618412504
0.465000000000000302,-0.334766459346848344
0.466000000000000303,-0.322221045907134129
0.467000000000000304,-0.310177734516116688
0.468000000000000305,-0.298630109708093783
0.469000000000000306,-0.287571640939958018
0.470000000000000306,-0.276995690043214615
0.471000000000000307,-0.266895518521420239
0.472000000000000308,-0.257264294691912698
0.473000000000000309,-0.248095100670857965
0.474000000000000310,-0.239380939200913190
0.475000000000000311,-0.231114740320977313
0.476000000000000312,-0.223289367877743172
0.477000000000000313,-0.215897625878869681
0.478000000000000314,-0.208932264687883895
0.479000000000000314,-0.202385987061018874
0.480000000000000315,-0.196251454026354355
0.481000000000000316,-0.190521290605846244
0.482000000000000317,-0.185188091380888237
0.483000000000000318,-0.180244425902267857
0.484000000000000319,-0.175682843945442480
0.485000000000000320,-0.171495880612250851
0.486000000000000321,-0.167676061280220001
0.487000000000000322,-0.164215906400791978
0.488000000000000322,-0.161107936147861702
0.489000000000000323,-0.158344674918145689
0.490000000000000324,-0.155918655684943730
0.491000000000000325,-0.153822424206990660
0.492000000000000326,-0.152048543094119110
0.493000000000000327,-0.150589595731571435
0.494000000000000328,-0.149438190064842408
0.495000000000000329,-0.148586962246977233
0.496000000000000330,-0.148028580150351197
0.497000000000000330,-0.147755746744952010
0.498000000000000331,-0.147761203345276482
0.499000000000000332,-0.148037732727963972
0.500000000000000333,-0.148578162122346785
0.501000000000000334,-0.149375366076106741
0.502000000000000335,-0.150422269198282665
0.503000000000000336,-0.151711848781871078
0.504000000000000337,-0.153237137308300964
0.505000000000000338,-0.154991224836076802
0.506000000000000338,-0.156967261275892028
0.507000000000000339,-0.159158458554533699
0.508000000000000340,-0.161558092669898734
0.509000000000000341,-0.164159505639456693
0.510000000000000342,-0.166956107344485905
0.511000000000000343,-0.169941377272419147
0.512000000000000344,-0.173108866159620511
0.513000000000000345,-0.176452197536919458
0.514000000000000346,-0.179965069180226561
0.515000000000000346,-0.183641254468519366
0.516000000000000347,-0.187474603651497151
0.517000000000000348,-0.191459045029211905
0.518000000000000349,-0.195588586045894769
0.519000000000000350,-0.199857314300261407
0.520000000000000351,-0.204259398474526094
0.521000000000000352,-0.208789089184313464
0.522000000000000353,-0.213440719751679497
0.523000000000000353,-0.218208706903399496
0.524000000000000354,-0.223087551396667777
0.525000000000000355,-0.228071838574340463
0.526000000000000356,-0.233156238851786268
0.527000000000000357,-0.238335508137454466
0.528000000000000358,-0.243604488189167856
0.529000000000000359,-0.248958106908164417
0.530000000000000360,-0.254391378572873916
0.531000000000000361,-0.259899404014385271
0.532000000000000361,-0.265477370735516971
0.533000000000000362,-0.271120552975406937
0.534000000000000363,-0.276824311721461158
0.535000000000000364,-0.282584094670511043
0.536000000000000365,-0.288395436140970907
0.537000000000000366,-0.294253956937768346
0.538000000000000367,-0.300155364171783012
0.539000000000000368,-0.306095451035498789
0.540000000000000369,-0.312070096536541108
0.541000000000000369,-0.318075265190736811
0.542000000000000370,-0.324107006676310982
0.543000000000000371,-0.330161455450779351
0.544000000000000372,-0.336234830332101886
0.545000000000000373,-0.342323434045579078
0.546000000000000374,-0.348423652737991252
0.547000000000000375,-0.354531955460406611
0.548000000000000376,-0.360644893621088314
0.549000000000000377,-0.366759100409860372
0.550000000000000377,-0.372871290195293137
0.551000000000000378,-0.378978257896026904
0.552000000000000379,-0.385076878327499650
0.553000000000000380,-0.391164105525360406
0.554000000000000381,-0.397236972046760228
0.555000000000000382,-0.403292588250738437
0.556000000000000383,-0.409328141558846670
0.557000000000000384,-0.415340895697153101
0.558000000000000385,-0.421328189920718077
0.559000000000000385,-0.427287438221630567
0.560000000000000386,-0.433216128521620170
0.561000000000000387,-0.439111821850287853
0.562000000000000388,-0.444972151509921421
0.563000000000000389,-0.450794822227866099
0.564000000000000390,-0.456577609297367348
0.565000000000000391,-0.462318357707802718
0.566000000000000392,-0.468014981265169439
0.567000000000000393,-0.473665461703684787
0.568000000000000393,-0.479267847789312307
0.569000000000000394,-0.484820254416033769
0.570000000000000395,-0.490320861695611954
0.571000000000000396,-0.495767914041615909
0.572000000000000397,-0.501159719248433166
0.573000000000000398,-0.506494647565948197
0.574000000000000399,-0.511771130770593330
0.575000000000000400,-0.516987661233408446
0.576000000000000401,-0.522142790985744454
0.577000000000000401,-0.527235130783232475
0.578000000000000402,-0.532263349168597966
0.579000000000000403,-0.537226171533881414
0.580000000000000404,-0.542122379182633063
0.581000000000000405,-0.546950808392592136
0.582000000000000406,-0.551710349479360262
0.583000000000000407,-0.556399945861568157
0.584000000000000408,-0.561018593127989185
0.585000000000000409,-0.565565338107056559
0.586000000000000409,-0.570039277939227484
0.587000000000000410,-0.574439559152590373
0.588000000000000411,-0.578765376742124027
0.589000000000000412,-0.583015973252991704
0.590000000000000413,-0.587190637868222565
0.591000000000000414,-0.591288705501142986
0.592000000000000415,-0.595309555892878040
0.593000000000000416,-0.599252612715248434
0.594000000000000417,-0.603117342679364565
0.595000000000000417,-0.606903254650199453
0.596000000000000418,-0.610609898767424553
0.597000000000000419,-0.614236865572756807
0.598000000000000420,-0.617783785144076392
0.599000000000000421,-0.621250326236534756
0.600000000000000422,-0.624636195430893326
0.601000000000000423,-0.627941136289275392
0.602000000000000424,-0.631164928518552770
0.603000000000000425,-0.634307387141546886
0.604000000000000425,-0.637368361676200479
0.605000000000000426,-0.640347735322903455
0.606000000000000427,-0.643245424160128643
0.607000000000000428,-0.646061376348482153
0.608000000000000429,-0.648795571343366739
0.609000000000000430,-0.651448019116297572
0.610000000000000431,-0.654018759385065707
0.611000000000000432,-0.656507860852793113
0.612000000000000433,-0.658915420455994716
0.613000000000000433,-0.661241562621754708
