# Au-001-PEG_HIDSCA-JS
# h[nm],U(h)[kJ/mol]
0.149999999999999994,80.465692352961681877
0.150999999999999995,78.534197923396931174
0.151999999999999996,76.588010269382010620
0.152999999999999997,74.680301172071466453
0.153999999999999998,72.829525195884031064
0.154999999999999999,71.036005980275632510
0.156000000000000000,69.292138727724108094
0.157000000000000001,67.588266153860175223
0.158000000000000002,65.915725353765537875
0.159000000000000002,64.268127424358141297
0.160000000000000003,62.641601560479543309
0.161000000000000004,61.034491299211325099
0.162000000000000005,59.446814608862226237
0.163000000000000006,57.879675944882059468
0.164000000000000007,56.334734198953675843
0.165000000000000008,54.813775171506243566
0.166000000000000009,53.318402600320212059
0.167000000000000010,51.849841611711056544
0.168000000000000010,50.408838044091091035
0.169000000000000011,48.995633006815857868
0.170000000000000012,47.609991841364596610
0.171000000000000013,46.251268654098943500
0.172000000000000014,44.918490652274023489
0.173000000000000015,43.610449904259589005
0.174000000000000016,42.325793415582964485
0.175000000000000017,41.063105318482136852
0.176000000000000018,39.820977402089859254
0.177000000000000018,38.598066137172828860
0.178000000000000019,37.393135799600401015
0.179000000000000020,36.205088324907322317
0.180000000000000021,35.032981199530560446
0.181000000000000022,33.876035081941608951
0.182000000000000023,32.733633014519860183
0.183000000000000024,31.605313092898597915
0.184000000000000025,30.490756353175505922
0.185000000000000026,29.389771459268956733
0.186000000000000026,28.302277554687815808
0.187000000000000027,27.228286409239451871
0.188000000000000028,26.167884759278017270
0.189000000000000029,25.121217522057197158
0.190000000000000030,24.088472368239727928
0.191000000000000031,23.069865965835433030
0.192000000000000032,22.065632065404400919
0.193000000000000033,21.076011480009995580
0.194000000000000034,20.101243922595898539
0.195000000000000034,19.141561595822366826
0.196000000000000035,18.197184382112521206
0.197000000000000036,17.268316451723542571
0.198000000000000037,16.355144091079473867
0.199000000000000038,15.457834549542246450
0.200000000000000039,14.576535707654276308
0.201000000000000040,13.711376381345729669
0.202000000000000041,12.862467092661253432
0.203000000000000042,12.029901156537306406
0.204000000000000042,11.213755953661806331
0.205000000000000043,10.414094280366603229
0.206000000000000044,9.630965686976765028
0.207000000000000045,8.864407735434856050
0.208000000000000046,8.114447124879607287
0.209000000000000047,7.381100649897750721
0.210000000000000048,6.664375970223106904
0.211000000000000049,5.964272182673775013
0.212000000000000050,5.280780196117595082
0.213000000000000050,4.613882918329162308
0.214000000000000051,3.963555269872291120
0.215000000000000052,3.329764044773929843
0.216000000000000053,2.712467640922572087
0.217000000000000054,2.111615685011941412
0.218000000000000055,1.527148577643262284
0.219000000000000056,0.958996984077474246
0.220000000000000057,0.407081295258331977
0.221000000000000058,-0.128688917727195845
0.222000000000000058,-0.648415434490382858
0.223000000000000059,-1.152211882442159441
0.224000000000000060,-1.640204183541052130
0.225000000000000061,-2.112530936611737076
0.226000000000000062,-2.569343723724899942
0.227000000000000063,-3.010807331657726404
0.228000000000000064,-3.437099881889760233
0.229000000000000065,-3.848412864890796037
0.230000000000000066,-4.244951076590607997
0.231000000000000066,-4.626932456866073018
0.232000000000000067,-4.994587831621620566
0.233000000000000068,-5.348160561568759519
0.234000000000000069,-5.687906102126644825
0.235000000000000070,-6.014091479971676257
0.236000000000000071,-6.326994692666133346
0.237000000000000072,-6.626904038505462502
0.238000000000000073,-6.914117384250570986
0.239000000000000073,-7.188941378770580926
0.240000000000000074,-7.451690620828775202
0.241000000000000075,-7.702686789312418902
0.242000000000000076,-7.942257744153738308
0.243000000000000077,-8.170736606029750604
0.244000000000000078,-8.388460822676476525
0.245000000000000079,-8.595771229324519425
0.246000000000000080,-8.793011110370079209
0.247000000000000081,-8.980525268953082119
0.248000000000000081,-9.158659110631287348
0.249000000000000082,-9.327757746829322016
0.250000000000000111,-9.488165123212962015
0.251000000000000112,-9.640223177600450555
0.252000000000000113,-9.784271031483124048
0.253000000000000114,-9.920644218691247573
0.254000000000000115,-10.049673954217224647
0.255000000000000115,-10.171686445698384205
0.256000000000000116,-10.287002249572370971
0.257000000000000117,-10.395935673451669246
0.258000000000000118,-10.498794225822216220
0.259000000000000119,-10.595878113758107730
0.260000000000000120,-10.687479788959784344
0.261000000000000121,-10.773883542068293906
0.262000000000000122,-10.855365144884194351
0.263000000000000123,-10.932191539825467430
0.264000000000000123,-11.004620575695302165
0.265000000000000124,-11.072900788595847033
0.266000000000000125,-11.137271226618832287
0.267000000000000126,-11.197961316765463025
0.268000000000000127,-11.255190772396741039
0.269000000000000128,-11.309169539388699732
0.270000000000000129,-11.360097779064266987
0.271000000000000130,-11.408165885892989522
0.272000000000000131,-11.453554537889978349
0.273000000000000131,-11.496434777604585875
0.274000000000000132,-11.536968121566218315
0.275000000000000133,-11.575306696047706012
0.276000000000000134,-11.611593397013960427
0.277000000000000135,-11.645962072144142141
0.278000000000000136,-11.678537722847867286
0.279000000000000137,-11.709436724238418748
0.280000000000000138,-11.738767061077233222
0.281000000000000139,-11.766628577763496466
0.282000000000000139,-11.793113240508173334
0.283000000000000140,-11.818305409903492986
0.284000000000000141,-11.842282122174564662
0.285000000000000142,-11.865113377479431733
0.286000000000000143,-11.886862433706005149
0.287000000000000144,-11.907586104298221841
0.288000000000000145,-11.927335058729516604
0.289000000000000146,-11.946154124326991308
0.290000000000000147,-11.964082588235827487
0.291000000000000147,-11.981154498398456809
0.292000000000000148,-11.997398962507386244
0.293000000000000149,-12.012840443973008320
0.294000000000000150,-12.027499054028773173
0.295000000000000151,-12.041390839174876959
0.296000000000000152,-12.054528063237819779
0.297000000000000153,-12.066919483397125390
0.298000000000000154,-12.078570619601372016
0.299000000000000155,-12.089484016863760729
0.300000000000000155,-12.099659499992432288
0.301000000000000156,-12.109094420372574774
0.302000000000000157,-12.117783894476144013
0.303000000000000158,-12.125721033830393125
0.304000000000000159,-12.132897166228834962
0.305000000000000160,-12.139302048017139413
0.306000000000000161,-12.144924067332601325
0.307000000000000162,-12.149750438218536175
0.308000000000000163,-12.153767385574637316
0.309000000000000163,-12.156960320941255560
0.310000000000000164,-12.159314009149301938
0.311000000000000165,-12.160812725898608733
0.312000000000000166,-12.161440406355929156
0.313000000000000167,-12.161180784889527473
0.314000000000000168,-12.160017526080377337
0.315000000000000169,-12.157934347171146072
0.316000000000000170,-12.154915132132398270
0.317000000000000171,-12.150944037542092957
0.318000000000000171,-12.146005590488542225
0.319000000000000172,-12.140084778719746339
0.320000000000000173,-12.133167133272195315
0.321000000000000174,-12.125238803821414280
0.322000000000000175,-12.116286627003621135
0.323000000000000176,-12.106298187963615121
0.324000000000000177,-12.095261875388418460
0.325000000000000178,-12.083166930289149121
0.326000000000000179,-12.070003488795691737
0.327000000000000179,-12.055762619229067667
0.328000000000000180,-12.040436353716515328
0.329000000000000181,-12.024017714613018271
0.330000000000000182,-12.006500735990702111
0.331000000000000183,-11.987880480455116228
0.332000000000000184,-11.968153051543630738
0.333000000000000185,-11.947315601957146924
0.334000000000000186,-11.925366337871700750
0.335000000000000187,-11.902304519571268671
0.336000000000000187,-11.878130458637681244
0.337000000000000188,-11.852845511927345257
0.338000000000000189,-11.826452072558446105
0.339000000000000190,-11.798953558125703012
0.340000000000000191,-11.770354396352759707
0.341000000000000192,-11.740660008385816582
0.342000000000000193,-11.709876789924550167
0.343000000000000194,-11.678012090379606747
0.344000000000000195,-11.645074190238270617
0.345000000000000195,-11.611072276813180437
0.346000000000000196,-11.576016418541144049
0.347000000000000197,-11.539917537992160135
0.348000000000000198,-11.502787383741502225
0.349000000000000199,-11.464638501250339786
0.350000000000000200,-11.425484202893674279
0.351000000000000201,-11.385338537266973091
0.352000000000000202,-11.344216257896352573
0.353000000000000203,-11.302132791470253181
0.354000000000000203,-11.259104205704067780
0.355000000000000204,-11.215147176942590335
0.356000000000000205,-11.170278957599082403
0.357000000000000206,-11.124517343523590895
0.358000000000000207,-11.077880641386947502
0.359000000000000208,-11.030387636161664844
0.360000000000000209,-10.982057558774858563
0.361000000000000210,-10.932910054003261990
0.362000000000000210,-10.882965148675063816
0.363000000000000211,-10.832243220238362724
0.364000000000000212,-10.780764965751252760
0.365000000000000213,-10.728551371343815646
0.366000000000000214,-10.675623682198025932
0.367000000000000215,-10.622003373087194333
0.368000000000000216,-10.567712119512693292
0.369000000000000217,-10.512771769471603633
0.370000000000000218,-10.457204315885544332
0.371000000000000218,-10.401031869717137113
0.372000000000000219,-10.344276633797445442
0.373000000000000220,-10.286960877384494495
0.374000000000000221,-10.229106911469974861
0.375000000000000222,-10.170737064848415443
0.376000000000000223,-10.111873660960466026
0.377000000000000224,-10.052538995519430642
0.378000000000000225,-9.992755314927730836
0.379000000000000226,-9.932544795487910250
0.380000000000000226,-9.871929523410628349
0.381000000000000227,-9.810931475620050080
0.382000000000000228,-9.749572501355538989
0.383000000000000229,-9.687874304566525652
0.384000000000000230,-9.625858427095987935
0.385000000000000231,-9.563546232646727319
0.386000000000000232,-9.500958891522937932
0.387000000000000233,-9.438117366138628839
0.388000000000000234,-9.375042397283133155
0.389000000000000234,-9.311754491133138245
0.390000000000000235,-9.248273906999411764
0.391000000000000236,-9.184620645795908089
0.392000000000000237,-9.120814439217886260
0.393000000000000238,-9.056874739615183856
0.394000000000000239,-8.992820710546059360
0.395000000000000240,-8.928671217996559051
0.396000000000000241,-8.864444822249899048
0.397000000000000242,-8.800159770389827329
0.398000000000000242,-8.735833989421847079
0.399000000000000243,-8.671485079995623124
0.400000000000000244,-8.607130310711777810
0.401000000000000245,-8.542786612996247086
0.402000000000000246,-8.478470576524980373
0.403000000000000247,-8.414198445181810371
0.404000000000000248,-8.349986113532370524
0.405000000000000249,-8.285849123796733551
0.406000000000000250,-8.221802663303648728
0.407000000000000250,-8.157861562409189915
0.408000000000000251,-8.094040292862811015
0.409000000000000252,-8.030352966603937048
0.410000000000000253,-7.966813334972232319
0.411000000000000254,-7.903434788315088610
0.412000000000000255,-7.840230355975821297
0.413000000000000256,-7.777212706646531970
0.414000000000000257,-7.714394149069558004
0.415000000000000258,-7.651786633071997024
0.416000000000000258,-7.589401750917725842
0.417000000000000259,-7.527250738961901000
0.418000000000000260,-7.465344479593047033
0.419000000000000261,-7.403693503448184110
0.420000000000000262,-7.342307991886798391
0.421000000000000263,-7.281197779709745355
0.422000000000000264,-7.220372358109481858
0.423000000000000265,-7.159840877838329121
0.424000000000000266,-7.099612152582023050
0.425000000000000266,-7.039694662525756819
0.426000000000000267,-6.980096558100631121
0.427000000000000268,-6.920825663898571456
0.428000000000000269,-6.861889482744148339
0.429000000000000270,-6.803295199912165359
0.430000000000000271,-6.745049687480049627
0.431000000000000272,-6.687159508804649377
0.432000000000000273,-6.629630923113159824
0.433000000000000274,-6.572469890198433973
0.434000000000000274,-6.515682075209076274
0.435000000000000275,-6.459272853525247271
0.436000000000000276,-6.403247315711317000
0.437000000000000277,-6.347610272536760689
0.438000000000000278,-6.292366260057240090
0.439000000000000279,-6.237519544747938127
0.440000000000000280,-6.183074128681502302
0.441000000000000281,-6.129033754743440809
0.442000000000000282,-6.075401911877988503
0.443000000000000282,-6.022181840357674787
0.444000000000000283,-5.969376537070354871
0.445000000000000284,-5.916988760817501358
0.446000000000000285,-5.865021037617919042
0.447000000000000286,-5.813475666011465925
0.448000000000000287,-5.762354722357261316
0.449000000000000288,-5.711660066121594603
0.450000000000000289,-5.661393345150527168
0.451000000000000290,-5.611556000922776732
0.452000000000000290,-5.562149273778560499
0.453000000000000291,-5.513174208120250164
0.454000000000000292,-5.464631657581095148
0.455000000000000293,-5.416522290158255259
0.456000000000000294,-5.368846593306839665
0.457000000000000295,-5.321604878991656129
0.458000000000000296,-5.274797288693646280
0.459000000000000297,-5.228423798368249109
0.460000000000000298,-5.182484223352954444
0.461000000000000298,-5.136978223221650097
0.462000000000000299,-5.091905306583456969
0.463000000000000300,-5.047264835823891183
0.464000000000000301,-5.003056031786437430
0.465000000000000302,-4.959277978392718111
0.466000000000000303,-4.915929627199577823
0.467000000000000304,-4.873009801891565296
0.468000000000000305,-4.830517202707500068
0.469000000000000306,-4.788450410799780066
0.470000000000000306,-4.746807892525448658
0.471000000000000307,-4.705588003667872776
0.472000000000000308,-4.664788993588322441
0.473000000000000309,-4.624409009306558183
0.474000000000000310,-4.584446099509856154
0.475000000000000311,-4.544898218489859865
0.476000000000000312,-4.505763230006929021
0.477000000000000313,-4.467038911081433916
0.478000000000000314,-4.428722955711904774
0.479000000000000314,-4.390812978519806897
0.480000000000000315,-4.353306518320759544
0.481000000000000316,-4.316201041622317547
0.482000000000000317,-4.279493946048246400
0.483000000000000318,-4.243182563689488873
0.484000000000000319,-4.207264164381956384
0.485000000000000320,-4.171735958911471975
0.486000000000000321,-4.136595102146080727
0.487000000000000322,-4.101838696096178793
0.488000000000000322,-4.067463792902801245
0.489000000000000323,-4.033467397754636252
0.490000000000000324,-3.999846471734177733
0.491000000000000325,-3.966597934593656394
0.492000000000000326,-3.933718667461286067
0.493000000000000327,-3.901205515478527452
0.494000000000000328,-3.869055290368982103
0.495000000000000329,-3.837264772939684487
0.496000000000000330,-3.805830715515469365
0.497000000000000330,-3.774749844307241808
0.498000000000000331,-3.744018861714876412
0.499000000000000332,-3.713634448565651613
0.500000000000000333,-3.683593266288970547
0.501000000000000334,-3.653891959028276126
0.502000000000000335,-3.624527155691025460
0.503000000000000336,-3.595495471937637522
0.504000000000000337,-3.566793512110293385
0.505000000000000338,-3.538417871102526924
0.506000000000000338,-3.510365136170547906
0.507000000000000339,-3.482631888687223842
0.508000000000000340,-3.455214705839676270
0.509000000000000341,-3.428110162271489791
0.510000000000000342,-3.401314831670421590
0.511000000000000343,-3.374825288302669257
0.512000000000000344,-3.348638108494596199
0.513000000000000345,-3.322749872062931153
0.514000000000000346,-3.297157163694439674
0.515000000000000346,-3.271856574275974872
0.516000000000000347,-3.246844702175937236
0.517000000000000348,-3.222118154478150753
0.518000000000000349,-3.197673548169003066
0.519000000000000350,-3.173507511278969240
0.520000000000000351,-3.149616683979390874
0.521000000000000352,-3.125997719635487559
0.522000000000000353,-3.102647285816580780
0.523000000000000353,-3.079562065264428217
0.524000000000000354,-3.056738756820694292
0.525000000000000355,-3.034174076314389623
0.526000000000000356,-3.011864757410274152
0.527000000000000357,-2.989807552419152081
0.528000000000000358,-2.967999233070879761
0.529000000000000359,-2.946436591251110571
0.530000000000000360,-2.925116439702561077
0.531000000000000361,-2.904035612691739043
0.532000000000000361,-2.883190966641979713
0.533000000000000362,-2.862579380733666135
0.534000000000000363,-2.842197757472463948
0.535000000000000364,-2.822043023226411762
0.536000000000000365,-2.802112128732713980
0.537000000000000366,-2.782402049575028347
0.538000000000000367,-2.762909786632038678
0.539000000000000368,-2.743632366498164110
0.540000000000000369,-2.724566841877091861
0.541000000000000369,-2.705710291948997703
0.542000000000000370,-2.687059822712126955
0.543000000000000371,-2.668612567299524230
0.544000000000000372,-2.650365686271630050
0.545000000000000373,-2.632316367885468633
0.546000000000000374,-2.614461828341100524
0.547000000000000375,-2.596799312006058624
0.548000000000000376,-2.579326091618471040
0.549000000000000377,-2.562039468469481385
0.550000000000000377,-2.544936772565639327
0.551000000000000378,-2.528015362771938168
0.552000000000000379,-2.511272626936080776
0.553000000000000380,-2.494705981994626676
0.554000000000000381,-2.478312874061579407
0.555000000000000382,-2.462090778500082511
0.556000000000000383,-2.446037199977696197
0.557000000000000384,-2.430149672505936387
0.558000000000000385,-2.414425759464534416
0.559000000000000385,-2.398863053611033358
0.560000000000000386,-2.383459177076189484
0.561000000000000387,-2.368211781345759714
0.562000000000000388,-2.353118547229130275
0.563000000000000389,-2.338177184815315890
0.564000000000000390,-2.323385433416794044
0.565000000000000391,-2.308741061501666358
0.566000000000000392,-2.294241866614583181
0.567000000000000393,-2.279885675286924318
0.568000000000000393,-2.265670342936613402
0.569000000000000394,-2.251593753758059258
0.570000000000000395,-2.237653820602611532
0.571000000000000396,-2.223848484849918705
0.572000000000000397,-2.210175716270649460
0.573000000000000398,-2.196633512880878047
0.574000000000000399,-2.183219900788604839
0.575000000000000400,-2.169932934032694938
0.576000000000000401,-2.156770694414644751
0.577000000000000401,-2.143731291323525578
0.578000000000000402,-2.130812861554403526
0.579000000000000403,-2.118013569120599016
0.580000000000000404,-2.105331605060109190
0.581000000000000405,-2.092765187236479640
0.582000000000000406,-2.080312560134443434
0.583000000000000407,-2.067971994650624978
0.584000000000000408,-2.055741787879591165
0.585000000000000409,-2.043620262895516237
0.586000000000000409,-2.031605768529743727
0.587000000000000410,-2.019696679144511897
0.588000000000000411,-2.007891394403067409
0.589000000000000412,-1.996188339036448767
0.590000000000000413,-1.984585962607150478
0.591000000000000414,-1.973082739269910846
0.592000000000000415,-1.961677167529855437
0.593000000000000416,-1.950367769998183620
0.594000000000000417,-1.939153093145636664
0.595000000000000417,-1.928031707053959654
0.596000000000000418,-1.917002205165484252
0.597000000000000419,-1.906063204031136493
0.598000000000000420,-1.895213343056927346
0.599000000000000421,-1.884451284249207159
0.600000000000000422,-1.873775711958792112
0.601000000000000423,-1.863185332624153201
0.602000000000000424,-1.852678874513817631
0.603000000000000425,-1.842255087468150920
0.604000000000000425,-1.831912742640644964
0.605000000000000426,-1.821650632238870360
0.606000000000000427,-1.811467569265253319
0.607000000000000428,-1.801362387257720687
0.608000000000000429,-1.791333940030491956
0.609000000000000430,-1.781381101414964530
0.610000000000000431,-1.771502765000969815
