# Au-001-PEG_MAS-JS
# h[nm],U(h)[kJ/mol]
0.149999999999999994,71.631802305866557390
0.150999999999999995,69.887586548299637457
0.151999999999999996,68.324115168379307761
0.152999999999999997,66.848347356342998182
0.153999999999999998,65.410313635153016776
0.154999999999999999,63.987106109574838797
0.156000000000000000,62.571598643440758281
0.157000000000000001,61.164871562889473466
0.158000000000000002,59.771406811414486526
0.159000000000000002,58.396266587988804986
0.160000000000000003,57.043628153923307877
0.161000000000000004,55.716196856713324337
0.162000000000000005,54.415148044584569220
0.163000000000000006,53.140353221765828096
0.164000000000000007,51.890727271731385883
0.165000000000000008,50.664594544260360465
0.166000000000000009,49.460015486721516709
0.167000000000000010,48.275045775651918234
0.168000000000000010,47.107919741953026005
0.169000000000000011,45.957161992512865822
0.170000000000000012,44.821637725211743941
0.171000000000000013,43.700555052831973057
0.172000000000000014,42.593433017915565131
0.173000000000000015,41.500047870097603209
0.174000000000000016,40.420368283925618869
0.175000000000000017,39.354487993373695076
0.176000000000000018,38.302562117600892577
0.177000000000000018,37.264751437011796042
0.178000000000000019,36.241177148058667967
0.179000000000000020,35.231887218165176989
0.180000000000000021,34.236834378033520920
0.181000000000000022,33.255865002743689729
0.182000000000000023,32.288717607713678603
0.183000000000000024,31.335029377503918369
0.184000000000000025,30.394349010916251075
0.185000000000000026,29.466154163853513381
0.186000000000000026,28.549871865456736941
0.187000000000000027,27.644900441929053159
0.188000000000000028,26.750631680493249576
0.189000000000000029,25.866472182689570047
0.190000000000000030,24.991863076067396321
0.191000000000000031,24.126297464811020888
0.192000000000000032,23.269335195061238153
0.193000000000000033,22.420614684645180148
0.194000000000000034,21.579861716920088810
0.195000000000000034,20.746895223561192978
0.196000000000000035,19.921630181800367154
0.197000000000000036,19.104077829207898986
0.198000000000000037,18.294343455585863722
0.199000000000000038,17.492622069262068862
0.200000000000000039,16.699192256565943637
0.201000000000000040,15.914408561083064342
0.202000000000000041,15.138692705894721158
0.203000000000000042,14.372523969724920079
0.204000000000000042,13.616429008844793458
0.205000000000000043,12.870971392599974692
0.206000000000000044,12.136741093157283444
0.207000000000000045,11.414344140904400859
0.208000000000000046,10.704392627033701757
0.209000000000000047,10.007495205139433025
0.210000000000000048,9.324248214896744713
0.211000000000000049,8.655227523639235088
0.212000000000000050,8.000981156317338971
0.213000000000000050,7.362022761186516107
0.214000000000000051,6.738825937805072996
0.215000000000000052,6.131819435594771051
0.216000000000000053,5.541383215332129630
0.217000000000000054,4.967845352435324102
0.218000000000000055,4.411479749687257979
0.219000000000000056,3.872504617952251316
0.220000000000000057,3.351081676338786508
0.221000000000000058,2.847316017963876345
0.222000000000000058,2.361256583795618980
0.223000000000000059,1.892897184812947886
0.224000000000000060,1.442178011737817345
0.225000000000000061,1.008987571693162888
0.226000000000000062,0.593164992152866000
0.227000000000000063,0.194502634321895684
0.228000000000000064,-0.187251039526114743
0.229000000000000065,-0.552388397353608784
0.230000000000000066,-0.901239416662627080
0.231000000000000066,-1.234168357648768533
0.232000000000000067,-1.551570372379485363
0.233000000000000068,-1.853868088402040870
0.234000000000000069,-2.141508201394303423
0.235000000000000070,-2.414958107714542557
0.236000000000000071,-2.674702604031570452
0.237000000000000072,-2.921240677665008612
0.238000000000000073,-3.155082407866118821
0.239000000000000073,-3.376745995047750082
0.240000000000000074,-3.586754931945875136
0.241000000000000075,-3.785635327875149780
0.242000000000000076,-3.973913394635523844
0.243000000000000077,-4.152113100239679611
0.244000000000000078,-4.320753994460328151
0.245000000000000079,-4.480349208240232528
0.246000000000000080,-4.631403627259800260
0.247000000000000081,-4.774412238410826959
0.248000000000000081,-4.909858646569974283
0.249000000000000082,-5.038213757893197808
0.250000000000000111,-5.159934624851169715
0.251000000000000112,-5.275463447383774707
0.252000000000000113,-5.385226723859174669
0.253000000000000114,-5.489634544964849816
0.254000000000000115,-5.589080023226695282
0.255000000000000115,-5.683938850532364917
0.256000000000000116,-5.774568975818509031
0.257000000000000117,-5.861310394955860481
0.258000000000000118,-5.944485044821385067
0.259000000000000119,-6.024396793574066322
0.260000000000000120,-6.101331519240273948
0.261000000000000121,-6.175557268857721382
0.262000000000000122,-6.247324490616552595
0.263000000000000123,-6.316866331663661072
0.264000000000000123,-6.384398994496439883
0.265000000000000124,-6.450122145157470399
0.266000000000000125,-6.514219366747800777
0.267000000000000126,-6.576858652097167024
0.268000000000000127,-6.638192929761713046
0.269000000000000128,-6.698360617857967547
0.270000000000000129,-6.757486200583549873
0.271000000000000130,-6.815680822617037116
0.272000000000000131,-6.873042896928265755
0.273000000000000131,-6.929658721864647930
0.274000000000000132,-6.985603103705988026
0.275000000000000133,-7.040939981199090703
0.276000000000000134,-7.095723048891612095
0.277000000000000135,-7.149996376381868579
0.278000000000000136,-7.203795020886744283
0.279000000000000137,-7.257145630801976388
0.280000000000000138,-7.310067038188433841
0.281000000000000139,-7.362570838363557080
0.282000000000000139,-7.414661955008931216
0.283000000000000140,-7.466339189423051081
0.284000000000000141,-7.517595752752503024
0.285000000000000142,-7.568419780225565496
0.286000000000000143,-7.618794826589542879
0.287000000000000144,-7.668700342117256596
0.288000000000000145,-7.718112128700150620
0.289000000000000146,-7.767002775684257010
0.290000000000000147,-7.815342075233419727
0.291000000000000147,-7.863097417119893073
0.292000000000000148,-7.910234162948372116
0.293000000000000149,-7.956715999914196757
0.294000000000000150,-8.002505274282228243
0.295000000000000151,-8.047563304848868171
0.296000000000000152,-8.091850676717189828
0.297000000000000153,-8.135327515774537943
0.298000000000000154,-8.177953744313553486
0.299000000000000155,-8.219689318282117796
0.300000000000000155,-8.260494446685644476
0.301000000000000156,-8.300329793696857195
0.302000000000000157,-8.339156664054266699
0.303000000000000158,-8.376937172351338390
0.304000000000000159,-8.413634396834449802
0.305000000000000160,-8.449212518339169975
0.306000000000000161,-8.483636945002093199
0.307000000000000162,-8.516874423389495519
0.308000000000000163,-8.548893136684482030
0.309000000000000163,-8.579662790572262665
0.310000000000000164,-8.609154687458115518
0.311000000000000165,-8.637341789645271106
0.312000000000000166,-8.664198772090690781
0.313000000000000167,-8.689702065345402460
0.314000000000000168,-8.713829889273215556
0.315000000000000169,-8.736562278127601999
0.316000000000000170,-8.757881097551136307
0.317000000000000171,-8.777770054045495485
0.318000000000000171,-8.796214697442959363
0.319000000000000172,-8.813202416892686131
0.320000000000000173,-8.828722430856572601
0.321000000000000174,-8.842765771590983093
0.322000000000000175,-8.855325264571792587
0.323000000000000176,-8.866395503301058412
0.324000000000000177,-8.875972819914631273
0.325000000000000178,-8.884055251990940150
0.326000000000000179,-8.890642505942432550
0.327000000000000179,-8.895735917352201483
0.328000000000000180,-8.899338408600131700
0.329000000000000181,-8.901454444104647479
0.330000000000000182,-8.902089983488252756
0.331000000000000183,-8.901252432958004945
0.332000000000000184,-8.898950595174653699
0.333000000000000185,-8.895194617868110498
0.334000000000000186,-8.889995941440611560
0.335000000000000187,-8.883367245783588828
0.336000000000000187,-8.875322396519262469
0.337000000000000188,-8.865876390863352441
0.338000000000000189,-8.855045303291680270
0.339000000000000190,-8.842846231179823491
0.340000000000000191,-8.829297240572104855
0.341000000000000192,-8.814417312224298584
0.342000000000000193,-8.798226288052086730
0.343000000000000194,-8.780744818106715144
0.344000000000000195,-8.761994308188050695
0.345000000000000195,-8.741996868195549553
0.346000000000000196,-8.720775261307617043
0.347000000000000197,-8.698352854070961371
0.348000000000000198,-8.674753567472691884
0.349000000000000199,-8.650001829059799974
0.350000000000000200,-8.624122526162977920
0.351000000000000201,-8.597140960274359145
0.352000000000000202,-8.569082802621933226
0.353000000000000203,-8.539974050977033215
0.354000000000000203,-8.509840987725262096
0.355000000000000204,-8.478710139225430709
0.356000000000000205,-8.446608236476075504
0.357000000000000206,-8.413562177104132900
0.358000000000000207,-8.379598988685581062
0.359000000000000208,-8.344745793404062084
0.360000000000000209,-8.309029774049246697
0.361000000000000210,-8.272478141353170500
0.362000000000000210,-8.235118102659630068
0.363000000000000211,-8.196976831918421524
0.364000000000000212,-8.158081440993662170
0.365000000000000213,-8.118458952272687768
0.366000000000000214,-8.078136272559920172
0.367000000000000215,-8.037140168237787208
0.368000000000000216,-7.995497241675138866
0.369000000000000217,-7.953233908861752965
0.370000000000000218,-7.910376378246101403
0.371000000000000218,-7.866950630752205242
0.372000000000000219,-7.822982400950271753
0.373000000000000220,-7.778497159354827772
0.374000000000000221,-7.733520095823164908
0.375000000000000222,-7.688076104026120738
0.376000000000000223,-7.642189766962879105
0.377000000000000224,-7.595885343490671460
0.378000000000000225,-7.549186755840112895
0.379000000000000226,-7.502117578086512140
0.380000000000000226,-7.454701025547516124
0.381000000000000227,-7.406959945076982521
0.382000000000000228,-7.358916806225444418
0.383000000000000229,-7.310593693237211532
0.384000000000000230,-7.262012297854427700
0.385000000000000231,-7.213193912898711702
0.386000000000000232,-7.164159426600996028
0.387000000000000233,-7.114929317650748430
0.388000000000000234,-7.065523650935894295
0.389000000000000234,-7.015962073945355648
0.390000000000000235,-6.966263813806290450
0.391000000000000236,-6.916447674928879685
0.392000000000000237,-6.866532037231687369
0.393000000000000238,-6.816534854921438402
0.394000000000000239,-6.766473655801300779
0.395000000000000240,-6.716365541082588209
0.396000000000000241,-6.666227185675190015
0.397000000000000242,-6.616074838932645363
0.398000000000000242,-6.565924325828542685
0.399000000000000243,-6.515791048541265340
0.400000000000000244,-6.465689988424929702
0.401000000000000245,-6.415635708344977317
0.402000000000000246,-6.365642355357328697
0.403000000000000247,-6.315723663710818059
0.404000000000000248,-6.265892958153202130
0.405000000000000249,-6.216163157521603644
0.406000000000000250,-6.166546778598926082
0.407000000000000250,-6.117055940218387278
0.408000000000000251,-6.067702367598895918
0.409000000000000252,-6.018497396894671780
0.410000000000000253,-5.969451979942983932
0.411000000000000254,-5.920576689194645859
0.412000000000000255,-5.871881722812281268
0.413000000000000256,-5.823376909922177269
0.414000000000000257,-5.775071716005826694
0.415000000000000258,-5.726975248418123776
0.416000000000000258,-5.679096262019434960
0.417000000000000259,-5.631443164909472721
0.418000000000000260,-5.584024024251379892
0.419000000000000261,-5.536846572174857428
0.420000000000000262,-5.489918211747776056
0.421000000000000263,-5.443246023006151901
0.422000000000000264,-5.396836769032766767
0.423000000000000265,-5.350696902075235073
0.424000000000000266,-5.304832569694862165
0.425000000000000266,-5.259249620937787029
0.426000000000000267,-5.213953612520642267
0.427000000000000268,-5.168949815023144545
0.428000000000000269,-5.124243219080522493
0.429000000000000270,-5.079838541569075439
0.430000000000000271,-5.035740231778440545
0.431000000000000272,-4.991952477564629120
0.432000000000000273,-4.948479211478091777
0.433000000000000274,-4.905324116861580208
0.434000000000000274,-4.862490633912690541
0.435000000000000275,-4.819981965706478633
0.436000000000000276,-4.777801084173708190
0.437000000000000277,-4.735950736030595465
0.438000000000000278,-4.694433448656273988
0.439000000000000279,-4.653251535914376014
0.440000000000000280,-4.612407103915408868
0.441000000000000281,-4.571902056716870000
0.442000000000000282,-4.531738101958304732
0.443000000000000282,-4.491916756428620872
0.444000000000000283,-4.452439351563353576
0.445000000000000284,-4.413307038869666243
0.446000000000000285,-4.374520795277052621
0.447000000000000286,-4.336081428412086325
0.448000000000000287,-4.297989581795430780
0.449000000000000288,-4.260245739959822586
0.450000000000000289,-4.222850233487656979
0.451000000000000290,-4.185803243967112230
0.452000000000000290,-4.149104808865824445
0.453000000000000291,-4.112754826321300961
0.454000000000000292,-4.076753059847381344
0.455000000000000293,-4.041099142956179335
0.456000000000000294,-4.005792583695091835
0.457000000000000295,-3.970832769098534332
0.458000000000000296,-3.936218969554195812
0.459000000000000297,-3.901950343083727013
0.460000000000000298,-3.868025939537817148
0.461000000000000298,-3.834444704705787021
0.462000000000000299,-3.801205484339837959
0.463000000000000300,-3.768307028094214584
0.464000000000000301,-3.735747993379631815
0.465000000000000302,-3.703526949133364887
0.466000000000000303,-3.671642379505453135
0.467000000000000304,-3.640092687461572662
0.468000000000000305,-3.608876198303182292
0.469000000000000306,-3.577991163105558314
0.470000000000000306,-3.547435762074487631
0.471000000000000307,-3.517208107822259677
0.472000000000000308,-3.487306248563893263
0.473000000000000309,-3.457728171234303538
0.474000000000000310,-3.428471804527372768
0.475000000000000311,-3.399535021857765571
0.476000000000000312,-3.370915644246525122
0.477000000000000313,-3.342611443131287441
0.478000000000000314,-3.314620143102222194
0.479000000000000314,-3.286939424564676138
0.480000000000000315,-3.259566926329532599
0.481000000000000316,-3.232500248132415432
0.482000000000000317,-3.205736953082728657
0.483000000000000318,-3.179274570043700177
0.484000000000000319,-3.153110595944462524
0.485000000000000320,-3.127242498025357698
0.486000000000000321,-3.101667716017520782
0.487000000000000322,-3.076383664257917427
0.488000000000000322,-3.051387733740923647
0.489000000000000323,-3.026677294107660732
0.490000000000000324,-3.002249695574144006
0.491000000000000325,-2.978102270799462215
0.492000000000000326,-2.954232336695040484
0.493000000000000327,-2.930637196176242742
0.494000000000000328,-2.907314139857344770
0.495000000000000329,-2.884260447691088469
0.496000000000000330,-2.861473390553892049
0.497000000000000330,-2.838950231777900957
0.498000000000000331,-2.816688228630918722
0.499000000000000332,-2.794684633745423419
0.500000000000000333,-2.772936696497700915
0.501000000000000334,-2.751441664338206472
0.502000000000000335,-2.730196784074252037
0.503000000000000336,-2.709199303106113010
0.504000000000000337,-2.688446470617559925
0.505000000000000338,-2.667935538721925237
0.506000000000000338,-2.647663763564733319
0.507000000000000339,-2.627628406383899495
0.508000000000000340,-2.607826734528538637
0.509000000000000341,-2.588256022437405157
0.510000000000000342,-2.568913552577910320
0.511000000000000343,-2.549796616346738709
0.512000000000000344,-2.530902514932990677
0.513000000000000345,-2.512228560144845524
0.514000000000000346,-2.493772075200656690
0.515000000000000346,-2.475530395485386670
0.516000000000000347,-2.457500869273316901
0.517000000000000348,-2.439680858417948350
0.518000000000000349,-2.422067739009886367
0.519000000000000350,-2.404658902003672605
0.520000000000000351,-2.387451753814359368
0.521000000000000352,-2.370443716884672369
0.522000000000000353,-2.353632230223585253
0.523000000000000353,-2.337014749917093237
0.524000000000000354,-2.320588749612028323
0.525000000000000355,-2.304351720973619955
0.526000000000000356,-2.288301174117603143
0.527000000000000357,-2.272434638017645003
0.528000000000000358,-2.256749660888744291
0.529000000000000359,-2.241243810547400628
0.530000000000000360,-2.225914674749211564
0.531000000000000361,-2.210759861504590695
0.532000000000000361,-2.195776999373289851
0.533000000000000362,-2.180963737738380370
0.534000000000000363,-2.166317747060339638
0.535000000000000364,-2.151836719111862806
0.536000000000000365,-2.137518367194040980
0.537000000000000366,-2.123360426334490292
0.538000000000000367,-2.109360653468008717
0.539000000000000368,-2.095516827600402809
0.540000000000000369,-2.081826749955939082
0.541000000000000369,-2.068288244109091512
0.542000000000000370,-2.054899156101027469
0.543000000000000371,-2.041657354541399183
0.544000000000000372,-2.028560730695966541
0.545000000000000373,-2.015607198560513957
0.546000000000000374,-2.002794694921575136
0.547000000000000375,-1.990121179404424678
0.548000000000000376,-1.977584634508839700
0.549000000000000377,-1.965183065633026471
0.550000000000000377,-1.952914501086189247
0.551000000000000378,-1.940776992090172515
0.552000000000000379,-1.928768612770580093
0.553000000000000380,-1.916887460137793209
0.554000000000000381,-1.905131654058263679
0.555000000000000382,-1.893499337216509648
0.556000000000000383,-1.881988675068130501
0.557000000000000384,-1.870597855784279062
0.558000000000000385,-1.859325090187872620
0.559000000000000385,-1.848168611681963114
0.560000000000000386,-1.837126676170539152
0.561000000000000387,-1.826197561972133343
0.562000000000000388,-1.815379569726536912
0.563000000000000389,-1.804671022294921601
0.564000000000000390,-1.794070264653691682
0.565000000000000391,-1.783575663782343002
0.566000000000000392,-1.773185608545613245
0.567000000000000393,-1.762898509570215655
0.568000000000000393,-1.752712799116395770
0.569000000000000394,-1.742626930944597863
0.570000000000000395,-1.732639380177483535
0.571000000000000396,-1.722748643157532955
0.572000000000000397,-1.712953237300497422
0.573000000000000398,-1.703251700944894198
0.574000000000000399,-1.693642593197808299
0.575000000000000400,-1.684124493777173992
0.576000000000000401,-1.674696002850774024
0.577000000000000401,-1.665355740872165979
0.578000000000000402,-1.656102348413699188
0.579000000000000403,-1.646934485996826680
0.580000000000000404,-1.637850833919922922
0.581000000000000405,-1.628850092083743872
0.582000000000000406,-1.619930979814716565
0.583000000000000407,-1.611092235686239604
0.584000000000000408,-1.602332617338134924
0.585000000000000409,-1.593650901294408451
0.586000000000000409,-1.585045882779480220
0.587000000000000410,-1.576516375533028036
0.588000000000000411,-1.568061211623563489
0.589000000000000412,-1.559679241260909954
0.590000000000000413,-1.551369332607670515
0.591000000000000414,-1.543130371589855665
0.592000000000000415,-1.534961261706758062
0.593000000000000416,-1.526860923840201112
0.594000000000000417,-1.518828296063275296
0.595000000000000417,-1.510862333448686368
0.596000000000000418,-1.502962007876766481
0.597000000000000419,-1.495126307843331004
0.598000000000000420,-1.487354238267381001
0.599000000000000421,-1.479644820298837038
0.600000000000000422,-1.471997091126314716
0.601000000000000423,-1.464410103785086736
0.602000000000000424,-1.456882926965268110
0.603000000000000425,-1.449414644820337106
0.604000000000000425,-1.442004356776043217
0.605000000000000426,-1.434651177339782091
0.606000000000000427,-1.427354235910532898
0.607000000000000428,-1.420112676589339706
0.608000000000000429,-1.412925657990540484
0.609000000000000430,-1.405792353053639143
0.610000000000000431,-1.398711948856030896
0.611000000000000432,-1.391683646426520315
0.612000000000000433,-1.384706660559745117
0.613000000000000433,-1.377780219631549397
