# Au-001-PEG_PROPANE-AC
# h[nm],U(h)[kJ/mol]
0.149999999999999994,86.699138979399080540
0.150999999999999995,83.481179676258605582
0.151999999999999996,81.665441907362534835
0.152999999999999997,80.153082661394321917
0.153999999999999998,78.551475299425320031
0.154999999999999999,76.793910462280763340
0.156000000000000000,74.937052579984040790
0.157000000000000001,73.061934773388770736
0.158000000000000002,71.232600024824961338
0.159000000000000002,69.484755854754737925
0.160000000000000003,67.828383751814328662
0.161000000000000004,66.255427945225875419
0.162000000000000005,64.748026470639644003
0.163000000000000006,63.285272648282308694
0.164000000000000007,61.847888451538224786
0.165000000000000008,60.420896997239040616
0.166000000000000009,58.994684554280205191
0.167000000000000010,57.564922302595746828
0.168000000000000010,56.131784421923462958
0.169000000000000011,54.698816905095853258
0.170000000000000012,53.271717244947140557
0.171000000000000013,51.857197666910863632
0.172000000000000014,50.462032129513779921
0.173000000000000015,49.092332111320587273
0.174000000000000016,47.753057265668715559
0.175000000000000017,46.447741903424649479
0.176000000000000018,45.178404046100069991
0.177000000000000018,43.945597652262037514
0.178000000000000019,42.748568090655716389
0.179000000000000020,41.585474000724673260
0.180000000000000021,40.453643791921450656
0.181000000000000022,39.349841048973260627
0.182000000000000023,38.270519242058860243
0.183000000000000024,37.212051878745256772
0.184000000000000025,36.170929281920983556
0.185000000000000026,35.143917394305063340
0.186000000000000026,34.128177363707116854
0.187000000000000027,33.121347193833479139
0.188000000000000028,32.121588535838952794
0.189000000000000029,31.127602850856352035
0.190000000000000030,30.138621805585408708
0.191000000000000031,29.154376981353390619
0.192000000000000032,28.175053882861089249
0.193000000000000033,27.201234914996103242
0.194000000000000034,26.233835529995182867
0.195000000000000034,25.274037194567050335
0.196000000000000035,24.323220236151009033
0.197000000000000036,23.382899036437603257
0.198000000000000037,22.454661475639724699
0.199000000000000038,21.540114011266801697
0.200000000000000039,20.640833311824628993
0.201000000000000040,19.758324964895408016
0.202000000000000041,18.893989442137975487
0.203000000000000042,18.049095229420412778
0.204000000000000042,17.224758814856695466
0.205000000000000043,16.421931065811012473
0.206000000000000044,15.641389411938174447
0.207000000000000045,14.883735178657364173
0.208000000000000046,14.149395377688666287
0.209000000000000047,13.438628252240494731
0.210000000000000048,12.751531888352745980
0.211000000000000049,12.088055235539965082
0.212000000000000050,11.448010924586771608
0.213000000000000050,10.831089324092207704
0.214000000000000051,10.236873336700631043
0.215000000000000052,9.664853498043260771
0.216000000000000053,9.114443003924968423
0.217000000000000054,8.584992352392394110
0.218000000000000055,8.075803345612673212
0.219000000000000056,7.586142250953673560
0.220000000000000057,7.115251970583956975
0.221000000000000058,6.662363113879924192
0.222000000000000058,6.226703906725601811
0.223000000000000059,5.807508906398872739
0.224000000000000060,5.404026520267190214
0.225000000000000061,5.015525351191092440
0.226000000000000062,4.641299412656806567
0.227000000000000063,4.280672272583897708
0.228000000000000064,3.933000196869620879
0.229000000000000065,3.597674372440535340
0.230000000000000066,3.274122295293685259
0.231000000000000066,2.961808412119169454
0.232000000000000067,2.660234104988977499
0.233000000000000068,2.368937107631778005
0.234000000000000069,2.087490439324958924
0.235000000000000070,1.815500938729485814
0.236000000000000071,1.552607475345797905
0.237000000000000072,1.298478910924246943
0.238000000000000073,1.052811877339444591
0.239000000000000073,0.815328431319642610
0.240000000000000074,0.585773640169750420
0.241000000000000075,0.363913146375709595
0.242000000000000076,0.149530752838499120
0.243000000000000077,-0.057573935451914693
0.244000000000000078,-0.257587783157323891
0.245000000000000079,-0.450686284940389814
0.246000000000000080,-0.637035594589118737
0.247000000000000081,-0.816794407666626698
0.248000000000000081,-0.990115686612255130
0.249000000000000082,-1.157148220985127818
0.250000000000000111,-1.318038018897475849
0.251000000000000112,-1.472929528640233077
0.252000000000000113,-1.621966692073627314
0.253000000000000114,-1.765293833555314107
0.254000000000000115,-1.903056390033125655
0.255000000000000115,-2.035401489457831836
0.256000000000000116,-2.162478385900867828
0.257000000000000117,-2.284438760716378081
0.258000000000000118,-2.401436899791902224
0.259000000000000119,-2.513629757413345711
0.260000000000000120,-2.621176917551880869
0.261000000000000121,-2.724240463486246711
0.262000000000000122,-2.822984766627758990
0.263000000000000123,-2.917576205237029541
0.264000000000000123,-3.008182823432319797
0.265000000000000124,-3.094973940507377286
0.266000000000000125,-3.178119720119413572
0.267000000000000126,-3.257790708390395196
0.268000000000000127,-3.334157349402476989
0.269000000000000128,-3.407389485972439847
0.270000000000000129,-3.477655852973106754
0.271000000000000130,-3.545123569841290845
0.272000000000000131,-3.609957638280563597
0.273000000000000131,-3.672320450540928594
0.274000000000000132,-3.732371313042564420
0.275000000000000133,-3.790265989512869194
0.276000000000000134,-3.846156267229257075
0.277000000000000135,-3.900189549408380252
0.278000000000000136,-3.952508476258716819
0.279000000000000137,-4.003250576719561415
0.280000000000000138,-4.052547952447251411
0.281000000000000139,-4.100526995179786027
0.282000000000000139,-4.147308138214569340
0.283000000000000140,-4.193005642370612129
0.284000000000000141,-4.237727416476182896
0.285000000000000142,-4.281574872124972231
0.286000000000000143,-4.324642812177333262
0.287000000000000144,-4.367019352247142550
0.288000000000000145,-4.408785874208349220
0.289000000000000146,-4.450017010576184262
0.290000000000000147,-4.490780658466019482
0.291000000000000147,-4.531138021705080732
0.292000000000000148,-4.571143679568510088
0.293000000000000149,-4.610845680528571577
0.294000000000000150,-4.650285659343637690
0.295000000000000151,-4.689498975769913258
0.296000000000000152,-4.728514873151676845
0.297000000000000153,-4.767356655134626031
0.298000000000000154,-4.806041878748948726
0.299000000000000155,-4.844582562123688874
0.300000000000000155,-4.882985405119638855
0.301000000000000156,-4.921252021203455840
0.302000000000000157,-4.959379178929827603
0.303000000000000158,-4.997359051449448586
0.304000000000000159,-5.035179472518350074
0.305000000000000160,-5.072824197546431435
0.306000000000000161,-5.110273168289964474
0.307000000000000162,-5.147502779862992206
0.308000000000000163,-5.184486148815091511
0.309000000000000163,-5.221193381097435804
0.310000000000000164,-5.257591838814636098
0.311000000000000165,-5.293646404735724786
0.312000000000000166,-5.329319743613778471
0.313000000000000167,-5.364572559438951949
0.314000000000000168,-5.399363847824146134
0.315000000000000169,-5.433651142795692834
0.316000000000000170,-5.467390757332763584
0.317000000000000171,-5.500538017068704377
0.318000000000000171,-5.533047486634569800
0.319000000000000172,-5.564873188190238906
0.320000000000000173,-5.595968811750317684
0.321000000000000174,-5.626287916971897118
0.322000000000000175,-5.655784126127763045
0.323000000000000176,-5.684411308042497168
0.324000000000000177,-5.712123752819866951
0.325000000000000178,-5.738876337237708292
0.326000000000000179,-5.764624680731687434
0.327000000000000179,-5.789325291931085360
0.328000000000000180,-5.812935705749079141
0.329000000000000181,-5.835414611066246593
0.330000000000000182,-5.856721969079177192
0.331000000000000183,-5.876819122417188623
0.332000000000000184,-5.895668895157782252
0.333000000000000185,-5.913235683897122286
0.334000000000000186,-5.929485540054746373
0.335000000000000187,-5.944386243612181708
0.336000000000000187,-5.957907368503541967
0.337000000000000188,-5.970020339892044170
0.338000000000000189,-5.980698483580583869
0.339000000000000190,-5.989917067816401541
0.340000000000000191,-5.997653337759845549
0.341000000000000192,-6.003886542895997991
0.342000000000000193,-6.008597957674103540
0.343000000000000194,-6.011770895665408787
0.344000000000000195,-6.013390717533155794
0.345000000000000195,-6.013444833111370791
0.346000000000000196,-6.011922697889685807
0.347000000000000197,-6.008815804201585564
0.348000000000000198,-6.004117667412317338
0.349000000000000199,-5.997823807400406437
0.350000000000000200,-5.989931725623908854
0.351000000000000201,-5.980440878058497667
0.352000000000000202,-5.969352644289977583
0.353000000000000203,-5.956670293038641262
0.354000000000000203,-5.942398944386996895
0.355000000000000204,-5.926545528975992738
0.356000000000000205,-5.909118744428243808
0.357000000000000206,-5.890129009249497116
0.358000000000000207,-5.869588414451850866
0.359000000000000208,-5.847510673134843628
0.360000000000000209,-5.823911068252132672
0.361000000000000210,-5.798806398783371563
0.362000000000000210,-5.772214924522595325
0.363000000000000211,-5.744156309685822137
0.364000000000000212,-5.714651565532206767
0.365000000000000213,-5.683722992184309319
0.366000000000000214,-5.651394119824678874
0.367000000000000215,-5.617689649437268784
0.368000000000000216,-5.582635393253879030
0.369000000000000217,-5.546258215057223495
0.370000000000000218,-5.508585970484191741
0.371000000000000218,-5.469647447464460299
0.372000000000000219,-5.429472306921759639
0.373000000000000220,-5.388091023857198181
0.374000000000000221,-5.345534828926339799
0.375000000000000222,-5.301835650614159512
0.376000000000000223,-5.257026058104859345
0.377000000000000224,-5.211139204936275249
0.378000000000000225,-5.164208773521709261
0.379000000000000226,-5.116268920615381077
0.380000000000000226,-5.067354223791348922
0.381000000000000227,-5.017499628999135375
0.382000000000000228,-4.966740399253818161
0.383000000000000229,-4.915112064512103807
0.384000000000000230,-4.862650372780544572
0.385000000000000231,-4.809391242496865893
0.386000000000000232,-4.755370716219966098
0.387000000000000233,-4.700624915659641800
0.388000000000000234,-4.645189998072093651
0.389000000000000234,-4.589102114043273062
0.390000000000000235,-4.532397366677495931
0.391000000000000236,-4.475111772205145222
0.392000000000000237,-4.417281222019249221
0.393000000000000238,-4.358941446147408527
0.394000000000000239,-4.300127978161901510
0.395000000000000240,-4.240876121527962894
0.396000000000000241,-4.181220917387044267
0.397000000000000242,-4.121197113769114573
0.398000000000000242,-4.060839136225638413
0.399000000000000243,-4.000181059872238265
0.400000000000000244,-3.939256582827867614
0.401000000000000245,-3.878099001035429261
0.402000000000000246,-3.816741184446547752
0.403000000000000247,-3.755215554551616375
0.404000000000000248,-3.693554063234688378
0.405000000000000249,-3.631788172931114556
0.406000000000000250,-3.569948838064624486
0.407000000000000250,-3.508066487739324835
0.408000000000000251,-3.446171009660919715
0.409000000000000252,-3.384291735260632983
0.410000000000000253,-3.322457425994280733
0.411000000000000254,-3.260696260788384482
0.412000000000000255,-3.199035824604402833
0.413000000000000256,-3.137503098091757980
0.414000000000000257,-3.076124448299706327
0.415000000000000258,-3.014925620417981289
0.416000000000000258,-2.953931730515568344
0.417000000000000259,-2.893167259246995027
0.418000000000000260,-2.832656046495274804
0.419000000000000261,-2.772421286920550454
0.420000000000000262,-2.712485526383608292
0.421000000000000263,-2.652870659213352855
0.422000000000000264,-2.593597926287539490
0.423000000000000265,-2.534687913896137790
0.424000000000000266,-2.476160553357110494
0.425000000000000266,-2.418035121354349393
0.426000000000000267,-2.360330240968115056
0.427000000000000268,-2.303063883368460019
0.428000000000000269,-2.246253370142586192
0.429000000000000270,-2.189915376227528299
0.430000000000000271,-2.134065933419836636
0.431000000000000272,-2.078720434434604414
0.432000000000000273,-2.023893637486509967
0.433000000000000274,-1.969599671366167870
0.434000000000000274,-1.915852040985485560
0.435000000000000275,-1.862663633366420157
0.436000000000000276,-1.810046724048004263
0.437000000000000277,-1.758012983887019320
0.438000000000000278,-1.706573486228445402
0.439000000000000279,-1.655738714422299251
0.440000000000000280,-1.605518569664033945
0.441000000000000281,-1.555922379136398748
0.442000000000000282,-1.506958904431215052
0.443000000000000282,-1.458636350230058554
0.444000000000000283,-1.410962373223612731
0.445000000000000284,-1.363944091249944535
0.446000000000000285,-1.317588092632548280
0.447000000000000286,-1.271900445699843063
0.448000000000000287,-1.226886708468029941
0.449000000000000288,-1.182551938470249198
0.450000000000000289,-1.138900702715212931
0.451000000000000290,-1.095937087759329076
0.452000000000000290,-1.053664709876792838
0.453000000000000291,-1.012086725312747904
0.454000000000000292,-0.971205840605210424
0.455000000000000293,-0.931024322961918949
0.456000000000000294,-0.891544010678995358
0.457000000000000295,-0.852766323588670994
0.458000000000000296,-0.814692273524003197
0.459000000000000297,-0.777322474788957662
0.460000000000000298,-0.740657154622780367
0.461000000000000298,-0.704696163648097729
0.462000000000000299,-0.669438986292656302
0.463000000000000300,-0.634884751175093576
0.464000000000000301,-0.601032241445646043
0.465000000000000302,-0.567879905073151336
0.466000000000000303,-0.535425865070075835
0.467000000000000304,-0.503667929647854118
0.468000000000000305,-0.472603602295213032
0.469000000000000306,-0.442230091772496614
0.470000000000000306,-0.412544322015565956
0.471000000000000307,-0.383542941943038840
0.472000000000000308,-0.355222335161255676
0.473000000000000309,-0.327578629561479706
0.474000000000000310,-0.300607706804424446
0.475000000000000311,-0.274305211687341621
0.476000000000000312,-0.248666561389484814
0.477000000000000313,-0.223686954591771403
0.478000000000000314,-0.199361380467094784
0.479000000000000314,-0.175684627537863680
0.480000000000000315,-0.152651292397639471
0.481000000000000316,-0.130255788294120795
0.482000000000000317,-0.108492353570903394
0.483000000000000318,-0.087355059965761206
0.484000000000000319,-0.066837820763395478
0.485000000000000320,-0.046934398800935681
0.486000000000000321,-0.027638414324569684
0.487000000000000322,-0.008943352696035989
0.488000000000000322,0.009157428052181848
0.489000000000000323,0.026670689813798210
0.490000000000000324,0.043603307158588803
0.491000000000000325,0.059962260235634467
0.492000000000000326,0.075754627830353402
0.493000000000000327,0.090987580575427551
0.494000000000000328,0.105668374315682240
0.495000000000000329,0.119804343626760873
0.496000000000000330,0.133402895487295503
0.497000000000000330,0.146471503104163153
0.498000000000000331,0.159017699890243641
0.499000000000000332,0.171049073593997986
0.500000000000000333,0.182573260580066316
0.501000000000000334,0.193597940259965406
0.502000000000000335,0.204130829671847203
0.503000000000000336,0.214179678208200996
0.504000000000000337,0.223752262490300613
0.505000000000000338,0.232856381388047318
0.506000000000000338,0.241499851183855668
0.507000000000000339,0.249690500879109933
0.508000000000000340,0.257436167641638458
0.509000000000000341,0.264744692392615277
0.510000000000000342,0.271623915531217119
0.511000000000000343,0.278081672795321588
0.512000000000000344,0.284125791256453375
0.513000000000000345,0.289764085447180464
0.514000000000000346,0.295004353619057247
0.515000000000000346,0.299854374129238432
0.516000000000000347,0.304321901953818197
0.517000000000000348,0.308414665325866588
0.518000000000000349,0.312140362496244606
0.519000000000000350,0.315506658615090696
0.520000000000000351,0.318521182731950236
0.521000000000000352,0.321191524912492699
0.522000000000000353,0.323525233469699469
0.523000000000000353,0.325529812307437272
0.524000000000000354,0.327212718374294331
0.525000000000000355,0.328581359225563197
0.526000000000000356,0.329643090691245977
0.527000000000000357,0.330405214647930101
0.528000000000000358,0.330874976892443828
0.529000000000000359,0.331059565115119803
0.530000000000000360,0.330966106970564777
0.531000000000000361,0.330601668243801494
0.532000000000000361,0.329973251109685284
0.533000000000000362,0.329087792483450436
0.534000000000000363,0.327952162460342367
0.535000000000000364,0.326573162842207609
0.536000000000000365,0.324957525748993503
0.537000000000000366,0.323111912313089333
0.538000000000000367,0.321042911454481383
0.539000000000000368,0.318757038734673759
0.540000000000000369,0.316260735287403449
0.541000000000000369,0.313560366824130188
0.542000000000000370,0.310662222712348557
0.543000000000000371,0.307572515124793000
0.544000000000000372,0.304297378257570528
0.545000000000000373,0.300842867615366716
0.546000000000000374,0.297214959361815134
0.547000000000000375,0.293419549733196727
0.548000000000000376,0.289462454513614742
0.549000000000000377,0.285349408569873009
0.550000000000000377,0.281086065444265398
0.551000000000000378,0.276677997003500376
0.552000000000000379,0.272130693142091318
0.553000000000000380,0.267449561538448566
0.554000000000000381,0.262639927462052003
0.555000000000000382,0.257707033630033222
0.556000000000000383,0.252656040111560731
0.557000000000000384,0.247492024278432865
0.558000000000000385,0.242219980800325363
0.559000000000000385,0.236844821683147744
0.560000000000000386,0.231371376349025631
0.561000000000000387,0.225804391756407707
0.562000000000000388,0.220148532558860049
0.563000000000000389,0.214408381301133572
0.564000000000000390,0.208588438651102187
0.565000000000000391,0.202693123666209785
0.566000000000000392,0.196726774093098078
0.567000000000000393,0.190693646699091252
0.568000000000000393,0.184597917634282127
0.569000000000000394,0.178443682822927163
0.570000000000000395,0.172234958382981335
0.571000000000000396,0.165975681072520198
0.572000000000000397,0.159669708761900508
0.573000000000000398,0.153320820930541307
0.574000000000000399,0.146932719187149952
0.575000000000000400,0.140509027812359910
0.576000000000000401,0.134053294322685812
0.577000000000000401,0.127568990054758247
0.578000000000000402,0.121059510768821224
0.579000000000000403,0.114528177270541320
0.580000000000000404,0.107978236050101997
0.581000000000000405,0.101412859937699412
0.582000000000000406,0.094835148774510269
0.583000000000000407,0.088248130098210170
0.584000000000000408,0.081654759842242491
0.585000000000000409,0.075057923047929229
0.586000000000000409,0.068460434588639318
0.587000000000000410,0.061865039905214692
0.588000000000000411,0.055274415751870157
0.589000000000000412,0.048691170951822058
0.590000000000000413,0.042117847161915564
0.591000000000000414,0.035556919645532002
0.592000000000000415,0.029010798053106090
0.593000000000000416,0.022481827209563866
0.594000000000000417,0.015972287908046744
0.595000000000000417,0.009484397709298939
0.596000000000000418,0.003020311746090851
0.597000000000000419,-0.003417876467885420
0.598000000000000420,-0.009828134225238341
0.599000000000000421,-0.016208488808759917
0.600000000000000422,-0.022557026672505514
0.601000000000000423,-0.028871892620573845
0.602000000000000424,-0.035151288984108700
0.603000000000000425,-0.041393474796990529
0.604000000000000425,-0.047596764970671043
0.605000000000000426,-0.053759529468615466
0.606000000000000427,-0.059880192480794361
0.607000000000000428,-0.065957231598591945
0.608000000000000429,-0.071989176990617201
0.609000000000000430,-0.077974610579696568
0.610000000000000431,-0.083912165221523685
0.611000000000000432,-0.089800523885255876
0.612000000000000433,-0.095638418836413303
0.613000000000000433,-0.101424630822446932
0.614000000000000434,-0.107157988261233086
0.615000000000000435,-0.112837366432843297
0.616000000000000436,-0.118461686674866742
