# Au-001-PEG_PHESCA-AC
# h[nm],U(h)[kJ/mol]
0.149999999999999994,71.804267655360405342
0.150999999999999995,70.339045166739907700
0.151999999999999996,68.477155837596569654
0.152999999999999997,66.563476553544035141
0.153999999999999998,64.713296044843289678
0.154999999999999999,62.941350243368766826
0.156000000000000000,61.227906445538600622
0.157000000000000001,59.549246812328398448
0.158000000000000002,57.889082001609686756
0.159000000000000002,56.240575514779244770
0.160000000000000003,54.604407559738589839
0.161000000000000004,52.985734164951260539
0.162000000000000005,51.391391523688184861
0.163000000000000006,49.827854976146468857
0.164000000000000007,48.300025525974000118
0.165000000000000008,46.810717403712970963
0.166000000000000009,45.360653281884204091
0.167000000000000010,43.948775346671737907
0.168000000000000010,42.572712750804974746
0.169000000000000011,41.229287756828007616
0.170000000000000012,39.914983067840367426
0.171000000000000013,38.626326454076618688
0.172000000000000014,37.360174301396533281
0.173000000000000015,36.113893446851754732
0.174000000000000016,34.885451788402612294
0.175000000000000017,33.673434098008939941
0.176000000000000018,32.477001634104304628
0.177000000000000018,31.295813763462131618
0.178000000000000019,30.129927850164101244
0.179000000000000020,28.979690899530318404
0.180000000000000021,27.845633393476202144
0.181000000000000022,26.728372779926218072
0.182000000000000023,25.628531402692924956
0.183000000000000024,24.546671395571525665
0.184000000000000025,23.483247257142842557
0.185000000000000026,22.438575462974633012
0.186000000000000026,21.412819520711963150
0.187000000000000027,20.405988275280272148
0.188000000000000028,19.417944963628265498
0.189000000000000029,18.448424438675026238
0.190000000000000030,17.497056072300509300
0.191000000000000031,16.563390056030698361
0.192000000000000032,15.646925102135828212
0.193000000000000033,14.747135871919237360
0.194000000000000034,13.863498794495171751
0.195000000000000034,12.995515267778667834
0.196000000000000035,12.142731539240754657
0.197000000000000036,11.304754837776581411
0.198000000000000037,10.481265564451540229
0.199000000000000038,9.672025546793689088
0.200000000000000039,8.876882518963158830
0.201000000000000040,8.095771110553247496
0.202000000000000041,7.328710713130315746
0.203000000000000042,6.575800649771428752
0.204000000000000042,5.837213103022104832
0.205000000000000043,5.113184265157390662
0.206000000000000044,4.404004165535901905
0.207000000000000045,3.710005607072957901
0.208000000000000046,3.031552610943727633
0.209000000000000047,2.369028728671744854
0.210000000000000048,1.722825536442127214
0.211000000000000049,1.093331580055669994
0.212000000000000050,0.480921992251781560
0.213000000000000050,-0.114051041356512256
0.214000000000000051,-0.691266834654555296
0.215000000000000052,-1.250443678640793532
0.216000000000000053,-1.791345187533685435
0.217000000000000054,-2.313785488893717712
0.218000000000000055,-2.817633261362958219
0.219000000000000056,-3.302814647503755197
0.220000000000000057,-3.769315089012092557
0.221000000000000058,-4.217180147483447605
0.222000000000000058,-4.646515386193008190
0.223000000000000059,-5.057485397317107001
0.224000000000000060,-5.450312065009745410
0.225000000000000061,-5.825272158100100128
0.226000000000000062,-6.182694347241222133
0.227000000000000063,-6.522955740455712359
0.228000000000000064,-6.846478028512423819
0.229000000000000065,-7.153723327734081927
0.230000000000000066,-7.445189802954845781
0.231000000000000066,-7.721407147676140781
0.232000000000000067,-7.982931992232126461
0.233000000000000068,-8.230343304174995822
0.234000000000000069,-8.464237838297467675
0.235000000000000070,-8.685225686874357365
0.236000000000000071,-8.893925973951457564
0.237000000000000072,-9.090962730942381498
0.238000000000000073,-9.276960984493214823
0.239000000000000073,-9.452543081606890496
0.240000000000000074,-9.618325271432809132
0.241000000000000075,-9.774914557954698324
0.242000000000000076,-9.922905833074047166
0.243000000000000077,-10.062879295298438720
0.244000000000000078,-10.195398155404664209
0.245000000000000079,-10.321006627050596904
0.246000000000000080,-10.440228197345106764
0.247000000000000081,-10.553564169835544462
0.248000000000000081,-10.661492470215607753
0.249000000000000082,-10.764466703270505477
0.250000000000000111,-10.862915448134916829
0.251000000000000112,-10.957241777815516670
0.252000000000000113,-11.047822988097534491
0.253000000000000114,-11.135010520383762156
0.254000000000000115,-11.219130062681546889
0.255000000000000115,-11.300481812827648298
0.256000000000000116,-11.379340888100788476
0.257000000000000117,-11.455957865590510991
0.258000000000000118,-11.530559438046729781
0.259000000000000119,-11.603349170405513391
0.260000000000000120,-11.674508342753751933
0.261000000000000121,-11.744196866138732815
0.262000000000000122,-11.812554258333808122
0.263000000000000123,-11.879700667420674876
0.264000000000000123,-11.945737931831178713
0.265000000000000124,-12.010750666292590694
0.266000000000000125,-12.074807363931412851
0.267000000000000126,-12.137961505600641132
0.268000000000000127,-12.200252668297849823
0.269000000000000128,-12.261707625327847637
0.270000000000000129,-12.322341431629356023
0.271000000000000130,-12.382158488424916953
0.272000000000000131,-12.441153582062941751
0.273000000000000131,-12.499312892597812308
0.274000000000000132,-12.556614968295260581
0.275000000000000133,-12.613031662855277659
0.276000000000000134,-12.668529032710939219
0.277000000000000135,-12.723068192289497702
0.278000000000000136,-12.776606125611271736
0.279000000000000137,-12.829096453052281745
0.280000000000000138,-12.880490152509125323
0.281000000000000139,-12.930736234580370692
0.282000000000000139,-12.979782371718016520
0.283000000000000140,-13.027575481607836849
0.284000000000000141,-13.074062265308958430
0.285000000000000142,-13.119189700923296726
0.286000000000000143,-13.162905493775628685
0.287000000000000144,-13.205158484266828367
0.288000000000000145,-13.245899014718640174
0.289000000000000146,-13.285079256658349323
0.290000000000000147,-13.322653500100111401
0.291000000000000147,-13.358578406465465349
0.292000000000000148,-13.392813226852936737
0.293000000000000149,-13.425319987415122114
0.294000000000000150,-13.456063643634646354
0.295000000000000151,-13.485012205307992161
0.296000000000000152,-13.512136834050988199
0.297000000000000153,-13.537411915132329554
0.298000000000000154,-13.560815105423657201
0.299000000000000155,-13.582327359227644337
0.300000000000000155,-13.601932933710259022
0.301000000000000156,-13.619619375620910517
0.302000000000000157,-13.635377490936255285
0.303000000000000158,-13.649201299009712685
0.304000000000000159,-13.661087972751641217
0.305000000000000160,-13.671037766303944849
0.306000000000000161,-13.679053931609695738
0.307000000000000162,-13.685142625212870726
0.308000000000000163,-13.689312806556529267
0.309000000000000163,-13.691576128980287308
0.310000000000000164,-13.691946824550331741
0.311000000000000165,-13.690441583787251290
0.312000000000000166,-13.687079431290262832
0.313000000000000167,-13.681881598189971072
0.314000000000000168,-13.674871392296950035
0.315000000000000169,-13.666074066749768434
0.316000000000000170,-13.655516687904462714
0.317000000000000171,-13.643228003147196858
0.318000000000000171,-13.629238309253945971
0.319000000000000172,-13.613579321865421079
0.320000000000000173,-13.596284046591431860
0.321000000000000174,-13.577386652208025097
0.322000000000000175,-13.556922346361442777
0.323000000000000176,-13.534927254146751352
0.324000000000000177,-13.511438299884655834
0.325000000000000178,-13.486493092378264436
0.326000000000000179,-13.460129813892669048
0.327000000000000179,-13.432387113062649320
0.328000000000000180,-13.403304001899778441
0.329000000000000181,-13.372919757037626809
0.330000000000000182,-13.341273825323540336
0.331000000000000183,-13.308405733837957996
0.332000000000000184,-13.274355004395967939
0.333000000000000185,-13.239161072562307453
0.334000000000000186,-13.202863211189079351
0.335000000000000187,-13.165500458465393407
0.336000000000000187,-13.127111550450289101
0.337000000000000188,-13.087734858043281960
0.338000000000000189,-13.047408328332725347
0.339000000000000190,-13.006169430248382568
0.340000000000000191,-12.964055104432901544
0.341000000000000192,-12.921101717236762596
0.342000000000000193,-12.877345018731611859
0.343000000000000194,-12.832820104629572455
0.344000000000000195,-12.787561381988812315
0.345000000000000195,-12.741602538580499626
0.346000000000000196,-12.694976515787152138
0.347000000000000197,-12.647715484898929716
0.348000000000000198,-12.599850826671453063
0.349000000000000199,-12.551413114006525262
0.350000000000000200,-12.502432097616031470
0.351000000000000201,-12.452936694528323969
0.352000000000000202,-12.402954979296520577
0.353000000000000203,-12.352514177768600945
0.354000000000000203,-12.301640663280199561
0.355000000000000204,-12.250359955132250178
0.356000000000000205,-12.198696719217950957
0.357000000000000206,-12.146674770665319087
0.358000000000000207,-12.094317078364330342
0.359000000000000208,-12.041645771250628627
0.360000000000000209,-11.988682146220719815
0.361000000000000210,-11.935446677556866391
0.362000000000000210,-11.881959027743636881
0.363000000000000211,-11.828238059561375195
0.364000000000000212,-11.774301849346048954
0.365000000000000213,-11.720167701308406905
0.366000000000000214,-11.665852162809622783
0.367000000000000215,-11.611371040494578466
0.368000000000000216,-11.556739417187891661
0.369000000000000217,-11.501971669461932279
0.370000000000000218,-11.447081485790173261
0.371000000000000218,-11.392081885203236169
0.372000000000000219,-11.336985236368967378
0.373000000000000220,-11.281803277022024901
0.374000000000000221,-11.226547133672280410
0.375000000000000222,-11.171227341525096222
0.376000000000000223,-11.115853864550711450
0.377000000000000224,-11.060436115643234700
0.378000000000000225,-11.004982976813739270
0.379000000000000226,-10.949502819365282136
0.380000000000000226,-10.894003524001323768
0.381000000000000227,-10.838492500822066944
0.382000000000000228,-10.782976709166899099
0.383000000000000229,-10.727462677263847723
0.384000000000000230,-10.671956521650269423
0.385000000000000231,-10.616463966331837199
0.386000000000000232,-10.560990361649661651
0.387000000000000233,-10.505540702828087163
0.388000000000000234,-10.450119648178386456
0.389000000000000234,-10.394731536935989169
0.390000000000000235,-10.339380406711125460
0.391000000000000236,-10.284070010535350193
0.392000000000000237,-10.228803833488163022
0.393000000000000238,-10.173585108890346618
0.394000000000000239,-10.118416834052291975
0.395000000000000240,-10.063301785567643876
0.396000000000000241,-10.008242534144200064
0.397000000000000242,-9.953241458965646160
0.398000000000000242,-9.898300761579392315
0.399000000000000243,-9.843422479306990880
0.400000000000000244,-9.788608498175184636
0.401000000000000245,-9.733860565366819984
0.402000000000000246,-9.679180301192072733
0.403000000000000247,-9.624569210581464418
0.404000000000000248,-9.570028694103301703
0.405000000000000249,-9.515560058509086261
0.406000000000000250,-9.461164526811202791
0.407000000000000250,-9.406843247898191152
0.408000000000000251,-9.352597305693510776
0.409000000000000252,-9.298427727864453374
0.410000000000000253,-9.244335494088431915
0.411000000000000254,-9.190321543884497402
0.412000000000000255,-9.136386784018336371
0.413000000000000256,-9.082532095489581181
0.414000000000000257,-9.028758340110519143
0.415000000000000258,-8.975066366685750197
0.416000000000000258,-8.921457016802621709
0.417000000000000259,-8.867931130242451943
0.418000000000000260,-8.814489550022930331
0.419000000000000261,-8.761133127082066707
0.420000000000000262,-8.707862724614383154
0.421000000000000263,-8.654679222070114974
0.422000000000000264,-8.601583518828112673
0.423000000000000265,-8.548576537553419286
0.424000000000000266,-8.495659227250417445
0.425000000000000266,-8.442832566022346441
0.426000000000000267,-8.390097563548120974
0.427000000000000268,-8.337455263287244733
0.428000000000000269,-8.284906744423528480
0.429000000000000270,-8.232453123558311603
0.430000000000000271,-8.180095556163669457
0.431000000000000272,-8.127835237806099400
0.432000000000000273,-8.075673405150849860
0.433000000000000274,-8.023611336757173973
0.434000000000000274,-7.971650353674334610
0.435000000000000275,-7.919791819848198244
0.436000000000000276,-7.868037142348107693
0.437000000000000277,-7.816387771423245923
0.438000000000000278,-7.764845200397918923
0.439000000000000279,-7.713410965414641218
0.440000000000000280,-7.662086645033805432
0.441000000000000281,-7.610873859698566335
0.442000000000000282,-7.559774271073267826
0.443000000000000282,-7.508789581263497936
0.444000000000000283,-7.457921531925729042
0.445000000000000284,-7.407171903274149649
0.446000000000000285,-7.356542512992137794
0.447000000000000286,-7.306035215055635135
0.448000000000000287,-7.255651898475262485
0.449000000000000288,-7.205394485964037976
0.450000000000000289,-7.155264932537130917
0.451000000000000290,-7.105265224049906791
0.452000000000000290,-7.055397375680416694
0.453000000000000291,-7.005663430361970256
0.454000000000000292,-6.956065457171581201
0.455000000000000293,-6.906605549679468936
0.456000000000000294,-6.857285824264934604
0.457000000000000295,-6.808108418403411299
0.458000000000000296,-6.759075488929488174
0.459000000000000297,-6.710189210280423922
0.460000000000000298,-6.661451772724397813
0.461000000000000298,-6.612865380577673591
0.462000000000000299,-6.564432250414569125
0.463000000000000300,-6.516154609273908882
0.464000000000000301,-6.468034692865548330
0.465000000000000302,-6.420074743780304516
0.466000000000000303,-6.372277009706413864
0.467000000000000304,-6.324643741655569862
0.468000000000000305,-6.277177192201341072
0.469000000000000306,-6.229879613732590471
0.470000000000000306,-6.182753256724502933
0.471000000000000307,-6.135800368029386220
0.472000000000000308,-6.089023189189628482
0.473000000000000309,-6.042423954774705841
0.474000000000000310,-5.996004890744227822
0.475000000000000311,-5.949768212838716153
0.476000000000000312,-5.903716124999873749
0.477000000000000313,-5.857850817821661060
0.478000000000000314,-5.812174467033718983
0.479000000000000314,-5.766689232018352484
0.480000000000000315,-5.721397254362156737
0.481000000000000316,-5.676300656443446613
0.482000000000000317,-5.631401540056295119
0.483000000000000318,-5.586701985072093812
0.484000000000000319,-5.542204048139316441
0.485000000000000320,-5.497909761422183905
0.486000000000000321,-5.453821131378703946
0.487000000000000322,-5.409940137578606034
0.488000000000000322,-5.366268731561508964
0.489000000000000323,-5.322808835735683530
0.490000000000000324,-5.279562342317572821
0.491000000000000325,-5.236531112312297509
0.492000000000000326,-5.193716974535136366
0.493000000000000327,-5.151121724674135649
0.494000000000000328,-5.108747124393716810
0.495000000000000329,-5.066594900479238106
0.496000000000000330,-5.024666744022342257
0.497000000000000330,-4.982964309646922274
0.498000000000000331,-4.941489214775399930
0.499000000000000332,-4.900243038935131246
0.500000000000000333,-4.859227323104502894
0.501000000000000334,-4.818443569098387336
0.502000000000000335,-4.777893238992557912
0.503000000000000336,-4.737577754586615342
0.504000000000000337,-4.697498496904919385
0.505000000000000338,-4.657656805735054917
0.506000000000000338,-4.618053979203272874
0.507000000000000339,-4.578691273386338523
0.508000000000000340,-4.539569901959225717
0.509000000000000341,-4.500691035878038981
0.510000000000000342,-4.462055803097523032
0.511000000000000343,-4.423665288322529143
0.512000000000000344,-4.385520532792756221
0.513000000000000345,-4.347622534100125335
0.514000000000000346,-4.309972246038070942
0.515000000000000346,-4.272570578482048020
0.516000000000000347,-4.235418397300533044
0.517000000000000348,-4.198516524295881069
0.518000000000000349,-4.161865737174154312
0.519000000000000350,-4.125466769543360890
0.520000000000000351,-4.089320310939246639
0.521000000000000352,-4.053427006877961425
0.522000000000000353,-4.017787458934833467
0.523000000000000353,-3.982402224848482497
0.524000000000000354,-3.947271818649616737
0.525000000000000355,-3.912396710813654810
0.526000000000000356,-3.877777328436491366
0.527000000000000357,-3.843414055432710974
0.528000000000000358,-3.809307232755375416
0.529000000000000359,-3.775457158636834176
0.530000000000000360,-3.741864088849653491
0.531000000000000361,-3.708528236987082671
0.532000000000000361,-3.675449774762244992
0.533000000000000362,-3.642628832325395027
0.534000000000000363,-3.610065498598534539
0.535000000000000364,-3.577759821626648851
0.536000000000000365,-3.545711808944942867
0.537000000000000366,-3.513921427961360422
0.538000000000000367,-3.482388606353682636
0.539000000000000368,-3.451113232480652382
0.540000000000000369,-3.420095155806332166
0.541000000000000369,-3.389334187337188720
0.542000000000000370,-3.358830100071176439
0.543000000000000371,-3.328582629458245457
0.544000000000000372,-3.298591473871666402
0.545000000000000373,-3.268856295089556774
0.546000000000000374,-3.239376718786018294
0.547000000000000375,-3.210152335031327908
0.548000000000000376,-3.181182698800623321
0.549000000000000377,-3.152467330490506647
0.550000000000000377,-3.124005716443007952
0.551000000000000378,-3.095797309476453485
0.552000000000000379,-3.067841529422644431
0.553000000000000380,-3.040137763669879867
0.554000000000000381,-3.012685367711298134
0.555000000000000382,-2.985483665698128952
0.556000000000000383,-2.958531950997254079
0.557000000000000384,-2.931829486752778102
0.558000000000000385,-2.905375506451021383
0.559000000000000385,-2.879169214488592310
0.560000000000000386,-2.853209786743073462
0.561000000000000387,-2.827496371145919341
0.562000000000000388,-2.802028088257179750
0.563000000000000389,-2.776804031841626053
0.564000000000000390,-2.751823269445949016
0.565000000000000391,-2.727084842976623236
0.566000000000000392,-2.702587769278098406
0.567000000000000393,-2.678331040711003475
0.568000000000000393,-2.654313625729959991
0.569000000000000394,-2.630534469460751978
0.570000000000000395,-2.606992494276529460
0.571000000000000396,-2.583686600372693487
0.572000000000000397,-2.560615666340254837
0.573000000000000398,-2.537778549737305323
0.574000000000000399,-2.515174087658410329
0.575000000000000400,-2.492801097301588609
0.576000000000000401,-2.470658376532679945
0.577000000000000401,-2.448744704446862208
0.578000000000000402,-2.427058841927046906
0.579000000000000403,-2.405599532198960500
0.580000000000000404,-2.384365501382719632
0.581000000000000405,-2.363355459040651585
0.582000000000000406,-2.342568098721194314
0.583000000000000407,-2.322002098498685996
0.584000000000000408,-2.301656121508872666
0.585000000000000409,-2.281528816479951871
0.586000000000000409,-2.261618818258997354
0.587000000000000410,-2.241924748333627537
0.588000000000000411,-2.222445215348743286
0.589000000000000412,-2.203178815618234587
0.590000000000000413,-2.184124133631481168
0.591000000000000414,-2.165279742554573783
0.592000000000000415,-2.146644204726111838
0.593000000000000416,-2.128216072147463223
0.594000000000000417,-2.109993886967397536
0.595000000000000417,-2.091976181961032744
0.596000000000000418,-2.074161481002900764
0.597000000000000419,-2.056548299534197710
0.598000000000000420,-2.039135145023995843
0.599000000000000421,-2.021920517424465213
0.600000000000000422,-2.004902909619957541
0.601000000000000423,-1.988080807869948119
0.602000000000000424,-1.971452692245744487
0.603000000000000425,-1.955017037060939655
0.604000000000000425,-1.938772311295550610
0.605000000000000426,-1.922716979013803895
0.606000000000000427,-1.906849499775575385
0.607000000000000428,-1.891168329041347906
0.608000000000000429,-1.875671918570829932
0.609000000000000430,-1.860358716815027069
