# Au-001-PEG_CS-210-AC
# h[nm],U(h)[kJ/mol]
0.200000000000000011,55.649371325952550649
0.201000000000000012,55.399006145829012837
0.202000000000000013,54.534885238400683249
0.203000000000000014,53.403155049335893523
0.204000000000000015,52.195592154782801231
0.205000000000000016,51.007482616729113545
0.206000000000000016,49.876568444688487602
0.207000000000000017,48.808624783246088441
0.208000000000000018,47.793728274454508664
0.209000000000000019,46.816154203512631682
0.210000000000000020,45.860006076814329390
0.211000000000000021,44.912065896307495905
0.212000000000000022,43.962902674190885932
0.213000000000000023,43.006949463471450201
0.214000000000000024,42.042023957399393908
0.215000000000000024,41.068600689995790276
0.216000000000000025,40.089026020765402336
0.217000000000000026,39.106786838049849564
0.218000000000000027,38.125890105044945244
0.219000000000000028,37.150375435509211286
0.220000000000000029,36.183961229537644044
0.221000000000000030,35.229812420705826526
0.222000000000000031,34.290411602715842321
0.223000000000000032,33.367513073396594336
0.224000000000000032,32.462159637041843041
0.225000000000000033,31.574743783285718735
0.226000000000000034,30.705097389409949926
0.227000000000000035,29.852596894431123076
0.228000000000000036,29.016273663281804573
0.229000000000000037,28.194921816559507022
0.230000000000000038,27.387198049278349998
0.231000000000000039,26.591709861609729160
0.232000000000000040,25.807090173666228594
0.233000000000000040,25.032057515749336574
0.234000000000000041,24.265461908776750022
0.235000000000000042,23.506317216454419849
0.236000000000000043,22.753821202217409336
0.237000000000000044,22.007364799619846707
0.238000000000000045,21.266532241092228617
0.239000000000000046,20.531093719088566729
0.240000000000000047,19.800992203435907157
0.241000000000000048,19.076325932569332622
0.242000000000000048,18.357327953481561877
0.243000000000000049,17.644343921029729927
0.244000000000000050,16.937809193754961967
0.245000000000000051,16.238226089705360522
0.246000000000000052,15.546141998600703005
0.247000000000000053,14.862128890688381944
0.248000000000000054,14.186764620836379791
0.249000000000000055,13.520616300500535090
0.250000000000000056,12.864225900890801313
0.251000000000000056,12.218098157878923615
0.252000000000000057,11.582690772315025640
0.253000000000000058,10.958406837441899029
0.254000000000000059,10.345589376746028520
0.255000000000000060,9.744517839458518793
0.256000000000000061,9.155406375544719921
0.257000000000000062,8.578403695935042705
0.258000000000000063,8.013594315532881041
0.259000000000000064,7.461000974854916201
0.260000000000000064,6.920588039782932910
0.261000000000000065,6.392265686720219442
0.262000000000000066,5.875894691454111474
0.263000000000000067,5.371291653361634388
0.264000000000000068,4.878234501502615394
0.265000000000000069,4.396468144986378057
0.266000000000000070,3.925710146241738308
0.267000000000000071,3.465656312025672037
0.268000000000000071,3.015986112826095855
0.269000000000000072,2.576367856472766782
0.270000000000000073,2.146463556063242351
0.271000000000000074,1.725933445589900916
0.272000000000000075,1.314440108821456787
0.273000000000000076,0.911652197993663149
0.274000000000000077,0.517247728676816565
0.275000000000000078,0.130916945820612612
0.276000000000000079,-0.247635236540053150
0.277000000000000079,-0.618687213055930441
0.278000000000000080,-0.982499068110010421
0.279000000000000081,-1.339311341575383008
0.280000000000000082,-1.689344157251124301
0.281000000000000083,-2.032796689292871939
0.282000000000000084,-2.369846940040420069
0.283000000000000085,-2.700651801387080830
0.284000000000000086,-3.025347371157157905
0.285000000000000087,-3.344049495780976766
0.286000000000000087,-3.656854510813690062
0.287000000000000088,-3.963840151464776973
0.288000000000000089,-4.265066606229115820
0.289000000000000090,-4.560577687881154141
0.290000000000000091,-4.850402097457291006
0.291000000000000092,-5.134554758364560101
0.292000000000000093,-5.413038199371102088
0.293000000000000094,-5.685843966921368065
0.294000000000000095,-5.952954048942858734
0.295000000000000095,-6.214342294045023252
0.296000000000000096,-6.469975811728990500
0.297000000000000097,-6.719816340911225261
0.298000000000000098,-6.963821575696677257
0.299000000000000099,-7.201946438905247661
0.300000000000000100,-7.434144295347749676
0.301000000000000101,-7.660368098257384517
0.302000000000000102,-7.880571463601865112
0.303000000000000103,-8.094709668229072008
0.304000000000000103,-8.302740568929596776
0.305000000000000104,-8.504625440535322767
0.306000000000000105,-8.700329732112836112
0.307000000000000106,-8.889823741156162029
0.308000000000000107,-9.073083206437933868
0.309000000000000108,-9.250089820844150879
0.310000000000000109,-9.420831666099893198
0.311000000000000110,-9.585303571794398181
0.312000000000000111,-9.743507401540840718
0.313000000000000111,-9.895452269460550454
0.314000000000000112,-10.041154690471236322
0.315000000000000113,-10.180638668086844589
0.316000000000000114,-10.313935723609088058
0.317000000000000115,-10.441084870711708987
0.318000000000000116,-10.562132539493543248
0.319000000000000117,-10.677132454109313997
0.320000000000000118,-10.786145468083068621
0.321000000000000119,-10.889239361372094805
0.322000000000000119,-10.986488603182943180
0.323000000000000120,-11.077974084449863312
0.324000000000000121,-11.163782823773571451
0.325000000000000122,-11.244007650486892658
0.326000000000000123,-11.318746868367938418
0.327000000000000124,-11.388103903363010261
0.328000000000000125,-11.452186938513577275
0.329000000000000126,-11.511108539106228221
0.330000000000000127,-11.564985270884205804
0.331000000000000127,-11.613937313975760901
0.332000000000000128,-11.658088075009398921
0.333000000000000129,-11.697563799701715226
0.334000000000000130,-11.732493188019892827
0.335000000000000131,-11.763007013840969250
0.336000000000000132,-11.789237750852681330
0.337000000000000133,-11.811319206269100590
0.338000000000000134,-11.829386163767448892
0.339000000000000135,-11.843574036891679313
0.340000000000000135,-11.854018534014626240
0.341000000000000136,-11.860855335803041299
0.342000000000000137,-11.864219785990073319
0.343000000000000138,-11.864246596127115296
0.344000000000000139,-11.861069564862145143
0.345000000000000140,-11.854821312174347980
0.346000000000000141,-11.845633028885156790
0.347000000000000142,-11.833634241663915532
0.348000000000000143,-11.818952593651875560
0.349000000000000143,-11.801713640740985056
0.350000000000000144,-11.782040663464190544
0.351000000000000145,-11.760054494380845824
0.352000000000000146,-11.735873360774787599
0.353000000000000147,-11.709612742422864429
0.354000000000000148,-11.681385244138443369
0.355000000000000149,-11.651300482746750120
0.356000000000000150,-11.619464988107459646
0.357000000000000151,-11.585982117763231614
0.358000000000000151,-11.550951984761963942
0.359000000000000152,-11.514471398173744987
0.360000000000000153,-11.476633815801866589
0.361000000000000154,-11.437529308569159170
0.362000000000000155,-11.397244536047320906
0.363000000000000156,-11.355862732586627928
0.364000000000000157,-11.313463703496505985
0.365000000000000158,-11.270123830723951741
0.366000000000000159,-11.225916087475562577
0.367000000000000159,-11.180910061230850516
0.368000000000000160,-11.135171984598594364
0.369000000000000161,-11.088764773473926084
0.370000000000000162,-11.041748071962119937
0.371000000000000163,-10.994178303544828168
0.372000000000000164,-10.946108727975564889
0.373000000000000165,-10.897589503404152111
0.374000000000000166,-10.848667753243327994
0.375000000000000167,-10.799387637305519760
0.376000000000000167,-10.749790426753415673
0.377000000000000168,-10.699914582424131737
0.378000000000000169,-10.649795836103450597
0.379000000000000170,-10.599467274344187118
0.380000000000000171,-10.548959424439813048
0.381000000000000172,-10.498300342182680822
0.382000000000000173,-10.447515701053653459
0.383000000000000174,-10.396628882508270664
0.384000000000000175,-10.345661067042078329
0.385000000000000175,-10.294631325735723593
0.386000000000000176,-10.243556711997911179
0.387000000000000177,-10.192452353241581164
0.388000000000000178,-10.141331542245831443
0.389000000000000179,-10.090205827972598129
0.390000000000000180,-10.039085105623644978
0.391000000000000181,-9.987977705739083945
0.392000000000000182,-9.936890482154336013
0.393000000000000183,-9.885828898647137208
0.394000000000000183,-9.834797114121016648
0.395000000000000184,-9.783798066185422471
0.396000000000000185,-9.732833553006248195
0.397000000000000186,-9.681904313313406618
0.398000000000000187,-9.631010104464609256
0.399000000000000188,-9.580149778476243938
0.400000000000000189,-9.529321355943690008
0.401000000000000190,-9.478522097784082945
0.402000000000000191,-9.427748574745006493
0.403000000000000191,-9.376996734631971364
0.404000000000000192,-9.326261967217162052
0.405000000000000193,-9.275539166800196966
0.406000000000000194,-9.224822792400150462
0.407000000000000195,-9.174106925565608250
0.408000000000000196,-9.123385325796707690
0.409000000000000197,-9.072651483579864617
0.410000000000000198,-9.021898671042302809
0.411000000000000199,-8.971119990238943132
0.412000000000000199,-8.920308419090037688
0.413000000000000200,-8.869456854992586514
0.414000000000000201,-8.818558156133306625
0.415000000000000202,-8.767605180534967957
0.416000000000000203,-8.716590822871916444
0.417000000000000204,-8.665508049093872955
0.418000000000000205,-8.614349928900294273
0.419000000000000206,-8.563109666110447549
0.420000000000000207,-8.511780626976591435
0.421000000000000207,-8.460356366490259461
0.422000000000000208,-8.408830652733007227
0.423000000000000209,-8.357197489325198347
0.424000000000000210,-8.305451136027341974
0.425000000000000211,-8.253586127549906948
0.426000000000000212,-8.201597290628425796
0.427000000000000213,-8.149479759421343061
0.428000000000000214,-8.097228989288698386
0.429000000000000214,-8.044840769010061621
0.430000000000000215,-7.992311231500179858
0.431000000000000216,-7.939636863081121376
0.432000000000000217,-7.886814511369104608
0.433000000000000218,-7.833841391834432955
0.434000000000000219,-7.780715093092148038
0.435000000000000220,-7.727433580980775041
0.436000000000000221,-7.673995201485725559
0.437000000000000222,-7.620398682563295445
0.438000000000000222,-7.566643134920420621
0.439000000000000223,-7.512728051804325347
0.440000000000000224,-7.458653307855397152
0.441000000000000225,-7.404419157075407654
0.442000000000000226,-7.350026229962362656
0.443000000000000227,-7.295475529861795039
0.444000000000000228,-7.240768428583500338
0.445000000000000229,-7.185906661331157963
0.446000000000000230,-7.130892320991217836
0.447000000000000230,-7.075727851826141723
0.448000000000000231,-7.020416042615717167
0.449000000000000232,-6.964960019288783499
0.450000000000000233,-6.909363237086647125
0.451000000000000234,-6.853629472297692260
0.452000000000000235,-6.797762813601783805
0.453000000000000236,-6.741767653061333299
0.454000000000000237,-6.685648676794873957
0.455000000000000238,-6.629410855367308564
0.456000000000000238,-6.573059433930024120
0.457000000000000239,-6.516599922142387591
0.458000000000000240,-6.460038083905141448
0.459000000000000241,-6.403379926934604782
0.460000000000000242,-6.346631692205622066
0.461000000000000243,-6.289799843289673120
0.462000000000000244,-6.232891055613539955
0.463000000000000245,-6.175912205662408283
0.464000000000000246,-6.118870360150522103
0.465000000000000246,-6.061772765180890588
0.466000000000000247,-6.004626835414683228
0.467000000000000248,-5.947440143269728807
0.468000000000000249,-5.890220408166487509
0.469000000000000250,-5.832975485838737484
0.470000000000000251,-5.775713357725237529
0.471000000000000252,-5.718442120457557287
0.472000000000000253,-5.661169975458448356
0.473000000000000254,-5.603905218663905785
0.474000000000000254,-5.546656230381453057
0.475000000000000255,-5.489431465296033430
0.476000000000000256,-5.432239442634240412
0.477000000000000257,-5.375088736496652864
0.478000000000000258,-5.317987966367259567
0.479000000000000259,-5.260945787808276819
0.480000000000000260,-5.203970883347803777
0.481000000000000261,-5.147071953567065705
0.482000000000000262,-5.090257708393420621
0.483000000000000262,-5.033536858604497510
0.484000000000000263,-4.976918107548277348
0.485000000000000264,-4.920410143083330468
0.486000000000000265,-4.864021629742831365
0.487000000000000266,-4.807761201125382300
0.488000000000000267,-4.751637452515219628
0.489000000000000268,-4.695658933733874107
0.490000000000000269,-4.639834142224733782
0.491000000000000270,-4.584171516371777777
0.492000000000000270,-4.528679429053005911
0.493000000000000271,-4.473366181428934496
0.494000000000000272,-4.418239996966041083
0.495000000000000273,-4.363309015694575521
0.496000000000000274,-4.308581288700087164
0.497000000000000275,-4.254064772847355513
0.498000000000000276,-4.199767325735367152
0.499000000000000277,-4.145696700881627450
0.500000000000000222,-4.091860543133675421
0.501000000000000334,-4.038266384305714496
0.502000000000000224,-3.984921639037799501
0.503000000000000336,-3.931833600874805601
0.504000000000000226,-3.879009438562497358
0.505000000000000338,-3.826456192557318836
0.506000000000000227,-3.774180771747000396
0.507000000000000339,-3.722189950378207435
0.508000000000000229,-3.670490365188047832
0.509000000000000341,-3.619088512735395113
0.510000000000000231,-3.567990746928649148
0.511000000000000343,-3.517203276745581864
0.512000000000000233,-3.466732164141709038
0.513000000000000345,-3.416583322142726864
0.514000000000000234,-3.366762513117290467
0.515000000000000346,-3.317275347225442594
0.516000000000000236,-3.268127281038935905
0.517000000000000348,-3.219323616328706894
0.518000000000000238,-3.170869499015560145
0.519000000000000350,-3.122769918279333368
0.520000000000000240,-3.075029705822486470
0.521000000000000352,-3.027653535283505448
0.522000000000000242,-2.980645921795868958
0.523000000000000353,-2.934011221688057169
0.524000000000000243,-2.887753632320360531
0.525000000000000355,-2.841877192053988921
0.526000000000000245,-2.796385780348285444
0.527000000000000357,-2.751283117981497384
0.528000000000000247,-2.706572767391102641
0.529000000000000359,-2.662258133129140614
0.530000000000000249,-2.618342462428573381
0.531000000000000361,-2.574828845876286909
0.532000000000000250,-2.531720218188820759
0.533000000000000362,-2.489019359086502625
0.534000000000000252,-2.446728894262191645
0.535000000000000364,-2.404851296440436048
0.536000000000000254,-2.363388886523378751
0.537000000000000366,-2.322343834819224462
0.538000000000000256,-2.281718162349871459
0.539000000000000368,-2.241513742233558482
0.540000000000000258,-2.201732301139279979
0.541000000000000369,-2.162375420808951176
0.542000000000000259,-2.123444539644214757
0.543000000000000371,-2.084940954354062015
0.544000000000000261,-2.046865821660149631
0.545000000000000373,-2.009220160056329973
0.546000000000000263,-1.972004851619312493
0.547000000000000375,-1.935220643867028745
0.548000000000000265,-1.898868151662001624
0.549000000000000377,-1.862947859156248054
0.550000000000000266,-1.827460121775176249
0.551000000000000378,-1.792405168237299673
0.552000000000000268,-1.757783102607193282
0.553000000000000380,-1.723593906378794616
0.554000000000000270,-1.689837440586582584
0.555000000000000382,-1.656513447941855954
0.556000000000000272,-1.623621554991849347
0.557000000000000384,-1.591161274298998007
0.558000000000000274,-1.559132006638279888
0.559000000000000385,-1.527533043210071995
0.560000000000000275,-1.496363567866578981
0.561000000000000387,-1.465622659349470114
0.562000000000000277,-1.435309293536818576
0.563000000000000389,-1.405422345697231901
0.564000000000000279,-1.375960592749348121
0.565000000000000391,-1.346922715524718761
0.566000000000000281,-1.318307301032392242
0.567000000000000393,-1.290112844723362295
0.568000000000000282,-1.262337752753347697
0.569000000000000394,-1.234980344242111006
0.570000000000000284,-1.208038853528003997
0.571000000000000396,-1.181511432416030516
0.572000000000000286,-1.155396152418228573
0.573000000000000398,-1.129691006984789414
0.574000000000000288,-1.104393913724808440
0.575000000000000400,-1.079502716615296176
0.576000000000000290,-1.055015188197315990
0.577000000000000401,-1.030929031758078374
0.578000000000000291,-1.007241883497960844
0.579000000000000403,-0.983951314681342892
0.580000000000000293,-0.961054833770386807
0.581000000000000405,-0.938549888540695987
0.582000000000000295,-0.916433868178133104
0.583000000000000407,-0.894704105355790147
0.584000000000000297,-0.873357878290481060
0.585000000000000409,-0.852392412777885466
0.586000000000000298,-0.831804884205757711
0.587000000000000410,-0.811592419544429733
0.588000000000000300,-0.791752099314115831
0.589000000000000412,-0.772280959528311106
0.590000000000000302,-0.753175993612873684
0.591000000000000414,-0.734434154300218411
0.592000000000000304,-0.716052355498179915
0.593000000000000416,-0.698027474133105064
0.594000000000000306,-0.680356351966849626
0.595000000000000417,-0.663035797387216741
0.596000000000000307,-0.646062587171613134
0.597000000000000419,-0.629433468223564385
0.598000000000000309,-0.613145159281889840
0.599000000000000421,-0.597194352602207323
0.600000000000000311,-0.581577715610704038
0.601000000000000423,-0.566291892529837249
0.602000000000000313,-0.551333505975994398
0.603000000000000425,-0.536699158528773257
0.604000000000000314,-0.522385434272040539
0.605000000000000426,-0.508388900306430913
0.606000000000000316,-0.494706108233460284
0.607000000000000428,-0.481333595611046050
0.608000000000000318,-0.468267887380573344
0.609000000000000430,-0.455505497265385972
0.610000000000000320,-0.443042929140853470
0.611000000000000432,-0.430876678375960165
0.612000000000000322,-0.419003233146569509
0.613000000000000433,-0.407419075720381052
0.614000000000000323,-0.396120683713736210
0.615000000000000435,-0.385104531320347998
0.616000000000000325,-0.374367090512119305
0.617000000000000437,-0.363904832212164020
0.618000000000000327,-0.353714227440235507
0.619000000000000439,-0.343791748430674005
0.620000000000000329,-0.334133869723125476
0.621000000000000441,-0.324737069226181174
0.622000000000000330,-0.315597829254169737
0.623000000000000442,-0.306712637537300381
0.624000000000000332,-0.298077988205414868
0.625000000000000444,-0.289690382745561525
0.626000000000000334,-0.281546330933645284
0.627000000000000446,-0.273642351740417400
0.628000000000000336,-0.265974974212053628
0.629000000000000448,-0.258540738325596209
0.630000000000000338,-0.251336195819555797
0.631000000000000449,-0.244357910999915079
0.632000000000000339,-0.237602461521865871
0.633000000000000451,-0.231066439147544156
0.634000000000000341,-0.224746450480083709
0.635000000000000453,-0.218639117674283151
0.636000000000000343,-0.212741079124177362
0.637000000000000455,-0.207048990127869592
0.638000000000000345,-0.201559523529899920
0.639000000000000457,-0.196269370341471683
0.640000000000000346,-0.191175240338893271
0.641000000000000458,-0.186273862640509519
0.642000000000000348,-0.181561986262492037
0.643000000000000460,-0.177036380653777303
0.644000000000000350,-0.172693836210526808
0.645000000000000462,-0.168531164770393094
0.646000000000000352,-0.164545200086958582
0.647000000000000464,-0.160732798284652173
0.648000000000000353,-0.157090838294510926
0.649000000000000465,-0.153616222271071357
0.650000000000000355,-0.150305875990775994
0.651000000000000467,-0.147156749232179390
0.652000000000000357,-0.144165816138321995
0.653000000000000469,-0.141330075561581670
0.654000000000000359,-0.138646551391349238
0.655000000000000471,-0.136112292864825790
0.656000000000000361,-0.133724374861321910
0.657000000000000473,-0.131479898180328542
0.658000000000000362,-0.129375989803732272
0.659000000000000474,-0.127409803142455036
0.660000000000000364,-0.125578518267884798
0.661000000000000476,-0.123879342128379394
