# Au-001-PEG_CS-29107-AC
# h[nm],U(h)[kJ/mol]
0.149999999999999994,99.619118581757021502
0.150999999999999995,97.746329370213175025
0.151999999999999996,95.764696903454009203
0.152999999999999997,93.782409388561532637
0.153999999999999998,91.835455634983787832
0.154999999999999999,89.927942097182622661
0.156000000000000000,88.052894924724711245
0.157000000000000001,86.201978476071417390
0.158000000000000002,84.369236200960997962
0.159000000000000002,82.551852844389856045
0.160000000000000003,80.749627806801655083
0.161000000000000004,78.964055951109486386
0.162000000000000005,77.197446536118491167
0.163000000000000006,75.452249860097253986
0.164000000000000007,73.730624471832285849
0.165000000000000008,72.034214207660753004
0.166000000000000009,70.364081710358433952
0.167000000000000010,68.720743829295031446
0.168000000000000010,67.104262771470004623
0.169000000000000011,65.514358521533779367
0.170000000000000012,63.950519453217921750
0.171000000000000013,62.412097657554284069
0.172000000000000014,60.898382820255335446
0.173000000000000015,59.408653559972734115
0.174000000000000016,57.942208320380260034
0.175000000000000017,56.498379608362213844
0.176000000000000018,55.076535996467555378
0.177000000000000018,53.676076215422540372
0.178000000000000019,52.296419137278157052
0.179000000000000020,50.936992706733349223
0.180000000000000021,49.597224069557597659
0.181000000000000022,48.276532373068235415
0.182000000000000023,46.974325033949213548
0.183000000000000024,45.689997712863274160
0.184000000000000025,44.422937811697380539
0.185000000000000026,43.172531012354070867
0.186000000000000026,41.938170191861537717
0.187000000000000027,40.719265959081724304
0.188000000000000028,39.515258043942125710
0.189000000000000029,38.325626811970366248
0.190000000000000030,37.149904257778196381
0.191000000000000031,35.987683936212725655
0.192000000000000032,34.838629406975442748
0.193000000000000033,33.702480888010548199
0.194000000000000034,32.579059927712300748
0.195000000000000034,31.468272010946929385
0.196000000000000035,30.370107105802055969
0.197000000000000036,29.284638235112243621
0.198000000000000037,28.212018218577934903
0.199000000000000038,27.152474777991848498
0.200000000000000039,26.106304230640596131
0.201000000000000040,25.073864015706256225
0.202000000000000041,24.055564307055369966
0.203000000000000042,23.051858964886527303
0.204000000000000042,22.063236070036516878
0.205000000000000043,21.090208269987098078
0.206000000000000044,20.133303146306563036
0.207000000000000045,19.193053790803617176
0.208000000000000046,18.269989753282832368
0.209000000000000047,17.364628498519955713
0.210000000000000048,16.477467484790725649
0.211000000000000049,15.608976951693239954
0.212000000000000050,14.759593481646087199
0.213000000000000050,13.929714377738056541
0.214000000000000051,13.119692880827122039
0.215000000000000052,12.329834231124145560
0.216000000000000053,11.560392564034305707
0.217000000000000054,10.811568616785807606
0.218000000000000055,10.083508211305048263
0.219000000000000056,9.376301469812680978
0.220000000000000057,8.689982712586427738
0.221000000000000058,8.024530982122671574
0.222000000000000058,7.379871134354130113
0.223000000000000059,6.755875435481783597
0.224000000000000060,6.152365602171199654
0.225000000000000061,5.569115223175731266
0.226000000000000062,5.005852501711646418
0.227000000000000063,4.462263259962474748
0.228000000000000064,3.937994149783045295
0.229000000000000065,3.432656016867359661
0.230000000000000066,2.945827369217435265
0.231000000000000066,2.477057904586021930
0.232000000000000067,2.025872055569439834
0.233000000000000068,1.591772515108653696
0.234000000000000069,1.174243709244723544
0.235000000000000070,0.772755188005216143
0.236000000000000071,0.386764909220513098
0.237000000000000072,0.015722393838886007
0.238000000000000073,-0.340928265104018302
0.239000000000000073,-0.683745554327881422
0.240000000000000074,-1.013287864280849160
0.241000000000000075,-1.330110993649983975
0.242000000000000076,-1.634765840151766181
0.243000000000000077,-1.927796280928878447
0.244000000000000078,-2.209737243708238985
0.245000000000000079,-2.481112967945004577
0.246000000000000080,-2.742435453479378449
0.247000000000000081,-2.994203092758780826
0.248000000000000081,-3.236899481414341917
0.249000000000000082,-3.470992400916442566
0.250000000000000111,-3.696932966155265010
0.251000000000000112,-3.915154930084789875
0.252000000000000113,-4.126074137019809740
0.253000000000000114,-4.330088115768186086
0.254000000000000115,-4.527575803505436980
0.255000000000000115,-4.718897391137628183
0.256000000000000116,-4.904394280842295117
0.257000000000000117,-5.084389146511198554
0.258000000000000118,-5.259186087931676745
0.259000000000000119,-5.429070869725361348
0.260000000000000120,-5.594311236302689672
0.261000000000000121,-5.755157294379285915
0.262000000000000122,-5.911841954928766185
0.263000000000000123,-6.064581426805609965
0.264000000000000123,-6.213575754656411654
0.265000000000000124,-6.359009394139623517
0.266000000000000125,-6.501051817888705564
0.267000000000000126,-6.639858146074422152
0.268000000000000127,-6.775569795846425158
0.269000000000000128,-6.908315144355803739
0.270000000000000129,-7.038210200477716505
0.271000000000000130,-7.165359280762373828
0.272000000000000131,-7.289855685540959307
0.273000000000000131,-7.411782371499438860
0.274000000000000132,-7.531212617404503540
0.275000000000000133,-7.648210680022531349
0.276000000000000134,-7.762832437611557168
0.277000000000000135,-7.875126018688402674
0.278000000000000136,-7.985132414077407148
0.279000000000000137,-8.092886070533150900
0.280000000000000138,-8.198415464497191607
0.281000000000000139,-8.301743654798485750
0.282000000000000139,-8.402888813338654117
0.283000000000000140,-8.501864733017121978
0.284000000000000141,-8.598681312347887129
0.285000000000000142,-8.693345016399687708
0.286000000000000143,-8.785859313855352681
0.287000000000000144,-8.876225090134330031
0.288000000000000145,-8.964441036656733530
0.289000000000000146,-9.050504016446357269
0.290000000000000147,-9.134409406377065110
0.291000000000000147,-9.216151416460631296
0.292000000000000148,-9.295723386656561615
0.293000000000000149,-9.373118061755317143
0.294000000000000150,-9.448327844947375098
0.295000000000000151,-9.521345030742043747
0.296000000000000152,-9.592162017942200691
0.297000000000000153,-9.660771503415688244
0.298000000000000154,-9.727166657430890595
0.299000000000000155,-9.791341281344131176
0.300000000000000155,-9.853289948440281165
0.301000000000000156,-9.913008128736064961
0.302000000000000157,-9.970492298558875532
0.303000000000000158,-10.025740035712093601
0.304000000000000159,-10.078750101032600384
0.305000000000000160,-10.129522507136721643
0.306000000000000161,-10.178058575138733133
0.307000000000000162,-10.224360980110720476
0.308000000000000163,-10.268433786035085831
0.309000000000000163,-10.310282470981373848
0.310000000000000164,-10.349913943217828205
0.311000000000000165,-10.387336548945194536
0.312000000000000166,-10.422560072316468194
0.313000000000000167,-10.455595728381355869
0.314000000000000168,-10.486456149568745388
0.315000000000000169,-10.515155366294347772
0.316000000000000170,-10.541708782254586296
0.317000000000000171,-10.566133144941112221
0.318000000000000171,-10.588446511883962131
0.319000000000000172,-10.608668213105312716
0.320000000000000173,-10.626818810239473834
0.321000000000000174,-10.642920052749271775
0.322000000000000175,-10.656994831643878285
0.323000000000000176,-10.669067131078341149
0.324000000000000177,-10.679161978191221039
0.325000000000000178,-10.687305391513156394
0.326000000000000179,-10.693524328256810207
0.327000000000000179,-10.697846630776492560
0.328000000000000180,-10.700300972464638960
0.329000000000000181,-10.700916803332308547
0.330000000000000182,-10.699724295500718796
0.331000000000000183,-10.696754288812901024
0.332000000000000184,-10.692038236756038927
0.333000000000000185,-10.685608152868319110
0.334000000000000186,-10.677496557787971909
0.335000000000000187,-10.667736427086541795
0.336000000000000187,-10.656361140014123379
0.337000000000000188,-10.643404429270134415
0.338000000000000189,-10.628900331900641874
0.339000000000000190,-10.612883141410623722
0.340000000000000191,-10.595387361168102203
0.341000000000000192,-10.576447659166513304
0.342000000000000193,-10.556098824201221476
0.343000000000000194,-10.534375723507000799
0.344000000000000195,-10.511313261894105864
0.345000000000000195,-10.486946342412956312
0.346000000000000196,-10.461309828569252289
0.347000000000000197,-10.434438508104872056
0.348000000000000198,-10.406367058353193755
0.349000000000000199,-10.377130013171496969
0.350000000000000200,-10.346761731448037125
0.351000000000000201,-10.315296367175955439
0.352000000000000202,-10.282767841081994931
0.353000000000000203,-10.249209813793900281
0.354000000000000203,-10.214655660526577918
0.355000000000000204,-10.179138447263804679
0.356000000000000205,-10.142690908409452533
0.357000000000000206,-10.105345425879598054
0.358000000000000207,-10.067134009604249201
0.359000000000000208,-10.028088279406000893
0.360000000000000209,-9.988239448220735284
0.361000000000000210,-9.947618306624189444
0.362000000000000210,-9.906255208627072761
0.363000000000000211,-9.864180058700233289
0.364000000000000212,-9.821422299990796745
0.365000000000000213,-9.778010903689363431
0.366000000000000214,-9.733974359508131613
0.367000000000000215,-9.689340667229368265
0.368000000000000216,-9.644137329283761773
0.369000000000000217,-9.598391344317894536
0.370000000000000218,-9.552129201710588546
0.371000000000000218,-9.505376876997761570
0.372000000000000219,-9.458159828166071037
0.373000000000000220,-9.410502992776013542
0.374000000000000221,-9.362430785875515582
0.375000000000000222,-9.313967098665877131
0.376000000000000223,-9.265135297882489240
0.377000000000000224,-9.215958225853505326
0.378000000000000225,-9.166458201200399003
0.379000000000000226,-9.116657020145160217
0.380000000000000226,-9.066575958389890388
0.381000000000000227,-9.016235773535125730
0.382000000000000228,-8.965656708004537734
0.383000000000000229,-8.914858492444285076
0.384000000000000230,-8.863860349566348162
0.385000000000000231,-8.812680998406248634
0.386000000000000232,-8.761338658966348447
0.387000000000000233,-8.709851057217045778
0.388000000000000234,-8.658235430429030544
0.389000000000000234,-8.606508532810986267
0.390000000000000235,-8.554686641427705851
0.391000000000000236,-8.502785562375001049
0.392000000000000237,-8.450820637188332540
0.393000000000000238,-8.398806749463394894
0.394000000000000239,-8.346758331667473385
0.395000000000000240,-8.294689372121620607
0.396000000000000241,-8.242613422134414947
0.397000000000000242,-8.190543603268903183
0.398000000000000242,-8.138492614725473473
0.399000000000000243,-8.086472740823849037
0.400000000000000244,-8.034495858568527993
0.401000000000000245,-7.982573445282723057
0.402000000000000246,-7.930716586296530757
0.403000000000000247,-7.878935982675903560
0.404000000000000248,-7.827241958979790581
0.405000000000000249,-7.775644471033382743
0.406000000000000250,-7.724153113706225149
0.407000000000000250,-7.672777128684539427
0.408000000000000251,-7.621525412227784457
0.409000000000000252,-7.570406522900138491
0.410000000000000253,-7.519428689268070620
0.411000000000000254,-7.468599817555923615
0.412000000000000255,-7.417927499251805834
0.413000000000000256,-7.367419018656805818
0.414000000000000257,-7.317081360370837118
0.415000000000000258,-7.266921216709181230
0.416000000000000258,-7.216944995044006994
0.417000000000000259,-7.167158825065799377
0.418000000000000260,-7.117568565959945026
0.419000000000000261,-7.068179813494161579
0.420000000000000262,-7.018997907012874293
0.421000000000000263,-6.970027936335055685
0.422000000000000264,-6.921274748552230349
0.423000000000000265,-6.872742954723885411
0.424000000000000266,-6.824436936467854764
0.425000000000000266,-6.776360852443255922
0.426000000000000267,-6.728518644724277742
0.427000000000000268,-6.680914045063052420
0.428000000000000269,-6.633550581040249305
0.429000000000000270,-6.586431582102322935
0.430000000000000271,-6.539560185484397437
0.431000000000000272,-6.492939342018220650
0.432000000000000273,-6.446571821824615078
0.433000000000000274,-6.400460219890208968
0.434000000000000274,-6.354606961528284970
0.435000000000000275,-6.309014307723856518
0.436000000000000276,-6.263684360363202863
0.437000000000000277,-6.218619067348162943
0.438000000000000278,-6.173820227595773424
0.439000000000000279,-6.129289495923891273
0.440000000000000280,-6.085028387823487428
0.441000000000000281,-6.041038284118540602
0.442000000000000282,-5.997320435514512660
0.443000000000000282,-5.953875967036399430
0.444000000000000283,-5.910705882357580876
0.445000000000000284,-5.867811068020666099
0.446000000000000285,-5.825192297551589959
0.447000000000000286,-5.782850235468464106
0.448000000000000287,-5.740785441186401883
0.449000000000000288,-5.698998372820007319
0.450000000000000289,-5.657489390884872016
0.451000000000000290,-5.616258761899766583
0.452000000000000290,-5.575306661891085369
0.453000000000000291,-5.534633179801147662
0.454000000000000292,-5.494238320802097064
0.455000000000000293,-5.454122009516974678
0.456000000000000294,-5.414284093149788646
0.457000000000000295,-5.374724344526193853
0.458000000000000296,-5.335442465046583038
0.459000000000000297,-5.296438087553300811
0.460000000000000298,-5.257710779113709876
0.461000000000000298,-5.219260043720893805
0.462000000000000299,-5.181085324913722090
0.463000000000000300,-5.143186008317987223
0.464000000000000301,-5.105561424110424795
0.465000000000000302,-5.068210849407299712
0.466000000000000303,-5.031133510579262946
0.467000000000000304,-4.994328585494228534
0.468000000000000305,-4.957795205689956575
0.469000000000000306,-4.921532458477988925
0.470000000000000306,-4.885539388980696174
0.471000000000000307,-4.849815002102916495
0.472000000000000308,-4.814358264440020463
0.473000000000000309,-4.779168106123845128
0.474000000000000310,-4.744243422608166227
0.475000000000000311,-4.709583076395239765
0.476000000000000312,-4.675185898705028542
0.477000000000000313,-4.641050691088497437
0.478000000000000314,-4.607176226986602785
0.479000000000000314,-4.573561253236411162
0.480000000000000315,-4.540204491525718922
0.481000000000000316,-4.507104639797740120
0.482000000000000317,-4.474260373607089392
0.483000000000000318,-4.441670347428581245
0.484000000000000319,-4.409333195920060788
0.485000000000000320,-4.377247535140690538
0.486000000000000321,-4.345411963725902993
0.487000000000000322,-4.313825064020337052
0.488000000000000322,-4.282485403169912885
0.489000000000000323,-4.251391534174386422
0.490000000000000324,-4.220541996901435944
0.491000000000000325,-4.189935319063532226
0.492000000000000326,-4.159570017158625177
0.493000000000000327,-4.129444597375875325
0.494000000000000328,-4.099557556467383179
0.495000000000000329,-4.069907382587066635
0.496000000000000330,-4.040492556097636800
0.497000000000000330,-4.011311550346750465
0.498000000000000331,-3.982362832413202547
0.499000000000000332,-3.953644863824264721
0.500000000000000333,-3.925156101244959839
0.501000000000000334,-3.896894997140220251
0.502000000000000335,-3.868860000410845768
0.503000000000000336,-3.841049557004080128
0.504000000000000337,-3.813462110499627133
0.505000000000000338,-3.786096102671950181
0.506000000000000338,-3.758949974029636820
0.507000000000000339,-3.732022164332556180
0.508000000000000340,-3.705311113087596198
0.509000000000000341,-3.678815260023718281
0.510000000000000342,-3.652533045546952906
0.511000000000000343,-3.626462911176115966
0.512000000000000344,-3.600603299959833858
0.513000000000000345,-3.574952656875550527
0.514000000000000346,-3.549509429211175071
0.515000000000000346,-3.524272066929893477
0.516000000000000347,-3.499239023018790640
0.517000000000000348,-3.474408753821889295
0.518000000000000349,-3.449779719358021080
0.519000000000000350,-3.425350383624244266
0.520000000000000351,-3.401119214885162112
0.521000000000000352,-3.377084685948781750
0.522000000000000353,-3.353245274429299094
0.523000000000000353,-3.329599462997312909
0.524000000000000354,-3.306145739617980972
0.525000000000000355,-3.282882597777460720
0.526000000000000356,-3.259808536698133086
0.527000000000000357,-3.236922061543020757
0.528000000000000358,-3.214221683609745472
0.529000000000000359,-3.191705920514497752
0.530000000000000360,-3.169373296366298387
0.531000000000000361,-3.147222341932007783
0.532000000000000361,-3.125251594792349596
0.533000000000000362,-3.103459599489355458
0.534000000000000363,-3.081844907665508337
0.535000000000000364,-3.060406078194932711
0.536000000000000365,-3.039141677306909095
0.537000000000000366,-3.018050278702052669
0.538000000000000367,-2.997130463661361155
0.539000000000000368,-2.976380821148522315
0.540000000000000369,-2.955799947905609848
0.541000000000000369,-2.935386448542561588
0.542000000000000370,-2.915138935620572358
0.543000000000000371,-2.895056029729703884
0.544000000000000372,-2.875136359560936050
0.545000000000000373,-2.855378561972859774
0.546000000000000374,-2.835781282053235319
0.547000000000000375,-2.816343173175618553
0.548000000000000376,-2.797062897051282526
0.549000000000000377,-2.777939123776590691
0.550000000000000377,-2.758970531875998944
0.551000000000000378,-2.740155808340904109
0.552000000000000379,-2.721493648664500942
0.553000000000000380,-2.702982756872774228
0.554000000000000381,-2.684621845551819597
0.555000000000000382,-2.666409635871674677
0.556000000000000383,-2.648344857606705904
0.557000000000000384,-2.630426249152835627
0.558000000000000385,-2.612652557541601972
0.559000000000000385,-2.595022538451303706
0.560000000000000386,-2.577534956215275397
0.561000000000000387,-2.560188583827455844
0.562000000000000388,-2.542982202945348380
0.563000000000000389,-2.525914603890500043
0.564000000000000390,-2.508984585646592436
0.565000000000000391,-2.492190955855265067
0.566000000000000392,-2.475532530809744891
0.567000000000000393,-2.459008135446437482
0.568000000000000393,-2.442616603334475833
0.569000000000000394,-2.426356776663408432
0.570000000000000395,-2.410227506229079886
0.571000000000000396,-2.394227651417745406
0.572000000000000397,-2.378356080188580357
0.573000000000000398,-2.362611669054572872
0.574000000000000399,-2.346993303061950975
0.575000000000000400,-2.331499875768154428
0.576000000000000401,-2.316130289218436111
0.577000000000000401,-2.300883453921201305
0.578000000000000402,-2.285758288822071105
0.579000000000000403,-2.270753721276768555
0.580000000000000404,-2.255868687022919428
0.581000000000000405,-2.241102130150751215
0.582000000000000406,-2.226453003072791148
0.583000000000000407,-2.211920266492600540
0.584000000000000408,-2.197502889372604074
0.585000000000000409,-2.183199848901032247
0.586000000000000409,-2.169010130458056018
0.587000000000000410,-2.154932727581141627
0.588000000000000411,-2.140966641929648695
0.589000000000000412,-2.127110883248762629
0.590000000000000413,-2.113364469332725371
0.591000000000000414,-2.099726425987464840
0.592000000000000415,-2.086195786992639967
0.593000000000000416,-2.072771594063105738
0.594000000000000417,-2.059452896809856881
0.595000000000000417,-2.046238752700518582
0.596000000000000418,-2.033128227019294521
0.597000000000000419,-2.020120392826565414
0.598000000000000420,-2.007214330917995504
0.599000000000000421,-1.994409129783329293
0.600000000000000422,-1.981703885564768841
0.601000000000000423,-1.969097702015056184
0.602000000000000424,-1.956589690455223352
0.603000000000000425,-1.944178969732065054
0.604000000000000425,-1.931864666175323375
0.605000000000000426,-1.919645913554637762
0.606000000000000427,-1.907521853036286075
0.607000000000000428,-1.895491633139644305
0.608000000000000429,-1.883554409693552145
0.609000000000000430,-1.871709345792396118
0.610000000000000431,-1.859955611752127425
0.611000000000000432,-1.848292385066075738
0.612000000000000433,-1.836718850360639310
