# Au-001-PEG_CS-311940-AC
# h[nm],U(h)[kJ/mol]
0.200000000000000011,56.101555429903100958
0.201000000000000012,55.743158922003701150
0.202000000000000013,54.802207332206478441
0.203000000000000014,53.607440908738098528
0.204000000000000015,52.340688805656078841
0.205000000000000016,51.092148763037322112
0.206000000000000016,49.897514421866539180
0.207000000000000017,48.762304010344593053
0.208000000000000018,47.677292947148131930
0.209000000000000019,46.627869940739337551
0.210000000000000020,45.599332666305954831
0.211000000000000021,44.579546880049861102
0.212000000000000022,43.559959631505243749
0.213000000000000023,42.535643139523564571
0.214000000000000024,41.504820511462455102
0.215000000000000024,40.468164750031228039
0.216000000000000025,39.428050988522912235
0.217000000000000026,38.387865523941293588
0.218000000000000027,37.351424180819137177
0.219000000000000028,36.322519551437686403
0.220000000000000029,35.304596341738907483
0.221000000000000030,34.300542466740552072
0.222000000000000031,33.312577826464810471
0.223000000000000032,32.342220803136214613
0.224000000000000032,31.390313002548623444
0.225000000000000033,30.457084609042958334
0.226000000000000034,29.542245249455923783
0.227000000000000035,28.645088015151365823
0.228000000000000036,27.764596987910969972
0.229000000000000037,26.899551087188672938
0.230000000000000038,26.048619215751376288
0.231000000000000039,25.210443494760959027
0.232000000000000040,24.383708849457995882
0.233000000000000040,23.567198355559252576
0.234000000000000041,22.759834618760471869
0.235000000000000042,21.960708075047655541
0.236000000000000043,21.169093508498416867
0.237000000000000044,20.384456324764165913
0.238000000000000045,19.606450227961886412
0.239000000000000046,18.834907957603970630
0.240000000000000047,18.069826677326389586
0.241000000000000048,17.311349491029556447
0.242000000000000048,16.559744412983018691
0.243000000000000049,15.815381951108003378
0.244000000000000050,15.078712288415266229
0.245000000000000051,14.350242874992375164
0.246000000000000052,13.630517078214342774
0.247000000000000053,12.920094386242695350
0.248000000000000054,12.219532522071157032
0.249000000000000055,11.529371703816149619
0.250000000000000056,10.850121182126573061
0.251000000000000056,10.182248097271562770
0.252000000000000057,9.526168625912610821
0.253000000000000058,8.882241329676947572
0.254000000000000059,8.250762573095922647
0.255000000000000060,7.631963845811137404
0.256000000000000061,7.026010801690935281
0.257000000000000062,6.433003814170819012
0.258000000000000063,5.852979841320165022
0.259000000000000064,5.285915394524214328
0.260000000000000064,4.731730410040936086
0.261000000000000065,4.190292831956613284
0.262000000000000066,3.661423727250418203
0.263000000000000067,3.144902767945917166
0.264000000000000068,2.640473930947831782
0.265000000000000069,2.147851282523765004
0.266000000000000070,1.666724730985444491
0.267000000000000071,1.196765647536313093
0.268000000000000071,0.737632271156045682
0.269000000000000072,0.288974828532514216
0.270000000000000073,-0.149559685758485633
0.271000000000000074,-0.578323110516915984
0.272000000000000075,-0.997662130373159761
0.273000000000000076,-1.407914718443730617
0.274000000000000077,-1.809407018678019785
0.275000000000000078,-2.202450669064925926
0.276000000000000079,-2.587340559708097842
0.277000000000000079,-2.964353013726363173
0.278000000000000080,-3.333744373922486570
0.279000000000000081,-3.695749974118130332
0.280000000000000082,-4.050583470892287430
0.281000000000000083,-4.398436509105226655
0.282000000000000084,-4.739478692954952166
0.283000000000000085,-5.073857833318029087
0.284000000000000086,-5.401700441692347532
0.285000000000000087,-5.723112441108004766
0.286000000000000087,-6.038180064835791505
0.287000000000000088,-6.346970914531222085
0.288000000000000089,-6.649535150545155204
0.289000000000000090,-6.945906788453998004
0.290000000000000091,-7.236105077360212690
0.291000000000000092,-7.520135937144429406
0.292000000000000093,-7.797993433570161059
0.293000000000000094,-8.069661271917368595
0.294000000000000095,-8.335114291619330373
0.295000000000000095,-8.594319946173007096
0.296000000000000096,-8.847239754361741149
0.297000000000000097,-9.093830710553724828
0.298000000000000098,-9.334046643502949436
0.299000000000000099,-9.567839514670023249
0.300000000000000100,-9.795160648587454943
0.301000000000000101,-10.015961889211986602
0.302000000000000102,-10.230196677528088145
0.303000000000000103,-10.437821046891702537
0.304000000000000103,-10.638794533726535718
0.305000000000000104,-10.833081002210258603
0.306000000000000105,-11.020649382513328263
0.307000000000000106,-11.201474322982377885
0.308000000000000107,-11.375536757395735776
0.309000000000000108,-11.542824389064319845
0.310000000000000109,-11.703332094111583928
0.311000000000000110,-11.857062246744456857
0.312000000000000111,-12.004024969731000638
0.313000000000000111,-12.144238313631216641
0.314000000000000112,-12.277728368593525232
0.315000000000000113,-12.404529312734034363
0.316000000000000114,-12.524683401264779192
0.317000000000000115,-12.638240900635377528
0.318000000000000116,-12.745259972005291260
0.319000000000000117,-12.845806508375307686
0.320000000000000118,-12.939953929682019407
0.321000000000000119,-13.027782940102188292
0.322000000000000119,-13.109381251728603246
0.323000000000000120,-13.184843278669788447
0.324000000000000121,-13.254269805496315726
0.325000000000000122,-13.317767633809108219
0.326000000000000123,-13.375449210544005041
0.327000000000000124,-13.427432241454308581
0.328000000000000125,-13.473839293031938169
0.329000000000000126,-13.514797385940152452
0.330000000000000127,-13.550437582839194306
0.331000000000000127,-13.580894573292255245
0.332000000000000128,-13.606306258244691421
0.333000000000000129,-13.626813336375992236
0.334000000000000130,-13.642558894432628591
0.335000000000000131,-13.653688003462642442
0.336000000000000132,-13.660347322689124994
0.337000000000000133,-13.662684712582224833
0.338000000000000134,-13.660848858517525173
0.339000000000000135,-13.654988906242977009
0.340000000000000135,-13.645254110219152466
0.341000000000000136,-13.631793495746316935
0.342000000000000137,-13.614755535649289087
0.343000000000000138,-13.594287842155756252
0.344000000000000139,-13.570536874476943012
0.345000000000000140,-13.543647662480395866
0.346000000000000141,-13.513763546733699172
0.347000000000000142,-13.481025935094859136
0.348000000000000143,-13.445574075930101898
0.349000000000000143,-13.407544847951820444
0.350000000000000144,-13.367072566589744298
0.351000000000000145,-13.324288806735058444
0.352000000000000146,-13.279322241631499324
0.353000000000000147,-13.232298497628054434
0.354000000000000148,-13.183340024455043604
0.355000000000000149,-13.132565980638606362
0.356000000000000150,-13.080092133627635675
0.357000000000000151,-13.026030774171772464
0.358000000000000151,-12.970490644458774199
0.359000000000000152,-12.913576879494073069
0.360000000000000153,-12.855390961184738785
0.361000000000000154,-12.796030684573201697
0.362000000000000155,-12.735590135653628963
0.363000000000000156,-12.674159680194922117
0.364000000000000157,-12.611825962988529426
0.365000000000000158,-12.548671916937141901
0.366000000000000159,-12.484776781400430679
0.367000000000000159,-12.420216129217076073
0.368000000000000160,-12.355061901827742332
0.369000000000000161,-12.289382451930988438
0.370000000000000162,-12.223242593113344157
0.371000000000000163,-12.156703655906119010
0.372000000000000164,-12.089823549733575092
0.373000000000000165,-12.022656830231218450
0.374000000000000166,-11.955254771427687999
0.375000000000000167,-11.887665442299546470
0.376000000000000167,-11.819933787225163968
0.377000000000000168,-11.752101709880829361
0.378000000000000169,-11.684208160140308053
0.379000000000000170,-11.616289223557311416
0.380000000000000171,-11.548378213028509975
0.381000000000000172,-11.480505762253947921
0.382000000000000173,-11.412699920629787442
0.383000000000000174,-11.344986249227874353
0.384000000000000175,-11.277387917534486661
0.385000000000000175,-11.209925800639812365
0.386000000000000176,-11.142618576587567603
0.387000000000000177,-11.075482823612318839
0.388000000000000178,-11.008533117009998037
0.389000000000000179,-10.941782125403955561
0.390000000000000180,-10.875240706186263040
0.391000000000000181,-10.808917999930148568
0.392000000000000182,-10.742821523585664778
0.393000000000000183,-10.676957262285908357
0.394000000000000183,-10.611329759606409340
0.395000000000000184,-10.545942206134494512
0.396000000000000185,-10.480796526219469555
0.397000000000000186,-10.415893462787771284
0.398000000000000187,-10.351232660119988438
0.399000000000000188,-10.286812744498973871
0.400000000000000189,-10.222631402649799526
0.401000000000000190,-10.158685457903446903
0.402000000000000191,-10.094970944026822934
0.403000000000000191,-10.031483176671320834
0.404000000000000192,-9.968216822402030886
0.405000000000000193,-9.905165965278193596
0.406000000000000194,-9.842324170964179331
0.407000000000000195,-9.779684548358066110
0.408000000000000196,-9.717239808732081485
0.409000000000000197,-9.654982322386340243
0.410000000000000198,-9.592904172823576658
0.411000000000000199,-9.530997208458405368
0.412000000000000199,-9.469253091880379003
0.413000000000000200,-9.407663346695111173
0.414000000000000201,-9.346219401972245322
0.415000000000000202,-9.284912634333556625
0.416000000000000203,-9.223734407718227502
0.417000000000000204,-9.162676110865874080
0.418000000000000205,-9.101729192561080595
0.419000000000000206,-9.040885194686158144
0.420000000000000207,-8.980135783131100169
0.421000000000000207,-8.919472776612300535
0.422000000000000208,-8.858888173453166814
0.423000000000000209,-8.798374176381765110
0.424000000000000210,-8.737923215401810495
0.425000000000000211,-8.677527968794574775
0.426000000000000212,-8.617181382310294069
0.427000000000000213,-8.556876686608237748
0.428000000000000214,-8.496607413005332177
0.429000000000000214,-8.436367407593348133
0.430000000000000215,-8.376150843785026723
0.431000000000000216,-8.315952233349479528
0.432000000000000217,-8.255766435996896746
0.433000000000000218,-8.195588667572559771
0.434000000000000219,-8.135414506919550703
0.435000000000000220,-8.075239901469139170
0.436000000000000221,-8.015061171617059443
0.437000000000000222,-7.954875013943261131
0.438000000000000222,-7.894678503331856056
0.439000000000000223,-7.834469094047006976
0.440000000000000224,-7.774244619819607571
0.441000000000000225,-7.714003292998397043
0.442000000000000226,-7.653743702818340822
0.443000000000000227,-7.593464812837463107
0.444000000000000228,-7.533165957592648176
0.445000000000000229,-7.472846838523229174
0.446000000000000230,-7.412507519210106643
0.447000000000000230,-7.352148419976890281
0.448000000000000231,-7.291770311898024381
0.449000000000000232,-7.231374310257604243
0.450000000000000233,-7.170961867501363329
0.451000000000000234,-7.110534765722590578
0.452000000000000235,-7.050095108721789572
0.453000000000000236,-6.989645313678083838
0.454000000000000237,-6.929188102469362676
0.455000000000000238,-6.868726492676508144
0.456000000000000238,-6.808263788305874087
0.457000000000000239,-6.747803570262665751
0.458000000000000240,-6.687349686606731680
0.459000000000000241,-6.626906242620682619
0.460000000000000242,-6.566477590719259183
0.461000000000000243,-6.506068320227262447
0.462000000000000244,-6.445683247052441445
0.463000000000000245,-6.385327403278008518
0.464000000000000246,-6.325006026698859252
0.465000000000000246,-6.264724550323771624
0.466000000000000247,-6.204488591865082725
0.467000000000000248,-6.144303943236010035
0.468000000000000249,-6.084176560074793905
0.469000000000000250,-6.024112551313619335
0.470000000000000251,-5.964118168809333653
0.471000000000000252,-5.904199797051822074
0.472000000000000253,-5.844363942965112635
0.473000000000000254,-5.784617225815027908
0.474000000000000254,-5.724966367236527631
0.475000000000000255,-5.665418181392787744
0.476000000000000256,-5.605979565277296572
0.477000000000000257,-5.546657489169381172
0.478000000000000258,-5.487458987252638920
0.479000000000000259,-5.428391148405192546
0.480000000000000260,-5.369461107169692937
0.481000000000000261,-5.310676034910349230
0.482000000000000262,-5.252043131163674161
0.483000000000000262,-5.193569615188772026
0.484000000000000263,-5.135262717722421044
0.485000000000000264,-5.077129672943700101
0.486000000000000265,-5.019177710652092728
0.487000000000000266,-4.961414048662642351
0.488000000000000267,-4.903845885421050710
0.489000000000000268,-4.846480392841218787
0.490000000000000269,-4.789324709367070554
0.491000000000000270,-4.732385933260290223
0.492000000000000270,-4.675671116114816783
0.493000000000000271,-4.619187256598883629
0.494000000000000272,-4.562941294424757821
0.495000000000000273,-4.506940104545926751
0.496000000000000274,-4.451190491581439979
0.497000000000000275,-4.395699184466328902
0.498000000000000276,-4.340472831327103265
0.499000000000000277,-4.285517994580819945
0.500000000000000222,-4.230841146255945873
0.501000000000000334,-4.176448663533144590
0.502000000000000224,-4.122346824503662077
0.503000000000000336,-4.068541804142840945
0.504000000000000226,-4.015039670496273416
0.505000000000000338,-3.961846381075447621
0.506000000000000227,-3.908967779460231107
0.507000000000000339,-3.856409592104605988
0.508000000000000229,-3.804177425342682106
0.509000000000000341,-3.752276762591147730
0.510000000000000231,-3.700712961744984320
0.511000000000000343,-3.649491252762261606
0.512000000000000233,-3.598616735434637892
0.513000000000000345,-3.548094377339284566
0.514000000000000234,-3.497929011968676782
0.515000000000000346,-3.448125337033712157
0.516000000000000236,-3.398687912936568356
0.517000000000000348,-3.349621161408713910
0.518000000000000238,-3.300929364310236647
0.519000000000000350,-3.252616662585961826
0.520000000000000240,-3.204687055374392024
0.521000000000000352,-3.157144399264995904
0.522000000000000242,-3.109992407699750050
0.523000000000000353,-3.063234650514484514
0.524000000000000243,-3.016874553615969123
0.525000000000000355,-2.970915398790283213
0.526000000000000245,-2.925360323638437787
0.527000000000000357,-2.880212321634797235
0.528000000000000247,-2.835474242304364179
0.529000000000000359,-2.791148791514514116
0.530000000000000249,-2.747238531877290058
0.531000000000000361,-2.703745883257932636
0.532000000000000250,-2.660673123385861594
0.533000000000000362,-2.618022388563826741
0.534000000000000252,-2.575795674471538454
0.535000000000000364,-2.533994837059668992
0.536000000000000254,-2.492621593530587987
0.537000000000000366,-2.451677523401766923
0.538000000000000256,-2.411164069648501052
0.539000000000000368,-2.371082539921860910
0.540000000000000258,-2.331434107838699976
0.541000000000000369,-2.292219814339761186
0.542000000000000259,-2.253440569112813208
0.543000000000000371,-2.215097152077076803
0.544000000000000261,-2.177190214925845080
0.545000000000000373,-2.139720282723897249
0.546000000000000263,-2.102687755556625238
0.547000000000000375,-2.066092910227555812
0.548000000000000265,-2.029935902001562376
0.549000000000000377,-1.994216766390357165
0.550000000000000266,-1.958935420977770736
0.551000000000000378,-1.924091667281667695
0.552000000000000268,-1.889685192649977807
0.553000000000000380,-1.855715572187958795
0.554000000000000270,-1.822182270714284957
0.555000000000000382,-1.789084644743178298
0.556000000000000272,-1.756421944490399012
0.557000000000000384,-1.724193315900387491
0.558000000000000274,-1.692397802692549691
0.559000000000000385,-1.661034348424124119
0.560000000000000275,-1.630101798567733962
0.561000000000000387,-1.599598902601267802
0.562000000000000277,-1.569524316108207529
0.563000000000000389,-1.539876602886327994
0.564000000000000279,-1.510654237062936334
0.565000000000000391,-1.481855605214716487
0.566000000000000281,-1.453479008490492053
0.567000000000000393,-1.425522664735090483
0.568000000000000282,-1.397984710612805159
0.569000000000000394,-1.370863203728653446
0.570000000000000284,-1.344156124746145320
0.571000000000000396,-1.317861379499867480
0.572000000000000286,-1.291976801101686112
0.573000000000000398,-1.266500152039003790
0.574000000000000288,-1.241429126263968730
0.575000000000000400,-1.216761351272278580
0.576000000000000290,-1.192494390170446561
0.577000000000000401,-1.168625743730370869
0.578000000000000291,-1.145152852430186829
0.579000000000000403,-1.122073098480278919
0.580000000000000293,-1.099383807833609783
0.581000000000000405,-1.077082252179284882
0.582000000000000295,-1.055165650918649112
0.583000000000000407,-1.033631173122900426
0.584000000000000297,-1.012475939471598751
0.585000000000000409,-0.991697024171200980
0.586000000000000298,-0.971291456853029977
0.587000000000000410,-0.951256224449914312
0.588000000000000300,-0.931588273050995119
0.589000000000000412,-0.912284509734007543
0.590000000000000302,-0.893341804374605863
0.591000000000000414,-0.874756991432171227
0.592000000000000304,-0.856526871711653093
0.593000000000000416,-0.838648214101002765
0.594000000000000306,-0.821117757283858274
0.595000000000000417,-0.803932211427044741
0.596000000000000307,-0.787088259842623983
0.597000000000000419,-0.770582560624151425
0.598000000000000309,-0.754411748256938686
0.599000000000000421,-0.738572435201976352
0.600000000000000311,-0.723061213453445317
0.601000000000000423,-0.707874656069491182
0.602000000000000313,-0.693009318676261366
0.603000000000000425,-0.678461740944881542
0.604000000000000314,-0.664228448041505271
0.605000000000000426,-0.650305952050100333
0.606000000000000316,-0.636690753368138407
0.607000000000000428,-0.623379342074965370
0.608000000000000318,-0.610368199272993683
0.609000000000000430,-0.597653798401580394
0.610000000000000320,-0.585232606523731991
0.611000000000000432,-0.573101085585582259
0.612000000000000322,-0.561255693648775589
0.613000000000000433,-0.549692886095775712
0.614000000000000323,-0.538409116808238108
0.615000000000000435,-0.527400839318514447
0.616000000000000325,-0.516664507934446737
0.617000000000000437,-0.506196578837551869
0.618000000000000327,-0.495993511154792011
0.619000000000000439,-0.486051768004038653
0.620000000000000329,-0.476367817513457026
0.621000000000000441,-0.466938133814971235
0.622000000000000330,-0.457759198012014312
0.623000000000000442,-0.448827499121757456
0.624000000000000332,-0.440139534992068870
0.625000000000000444,-0.431691813193397944
0.626000000000000334,-0.423480851885837395
0.627000000000000446,-0.415503180661602300
0.628000000000000336,-0.407755341363182588
0.629000000000000448,-0.400233888877413180
0.630000000000000338,-0.392935391905766429
0.631000000000000449,-0.385856433711078473
0.632000000000000339,-0.378993612841052041
0.633000000000000451,-0.372343543828765888
0.634000000000000341,-0.365902857870520459
0.635000000000000453,-0.359668203481289028
0.636000000000000343,-0.353636247128061798
0.637000000000000455,-0.347803673841430183
0.638000000000000345,-0.342167187805667627
0.639000000000000457,-0.336723512927623370
0.640000000000000346,-0.331469393384774325
0.641000000000000458,-0.326401594152700203
0.642000000000000348,-0.321516901512329478
0.643000000000000460,-0.316812123537257240
0.644000000000000350,-0.312284090561468275
0.645000000000000462,-0.307929655627761645
0.646000000000000352,-0.303745694917223474
0.647000000000000464,-0.299729108160040558
0.648000000000000353,-0.295876819028014548
0.649000000000000465,-0.292185775509047896
0.650000000000000355,-0.288652950263982244
0.651000000000000467,-0.285275340966050062
0.652000000000000357,-0.282049970623314938
0.653000000000000469,-0.278973887884378047
0.654000000000000359,-0.276044167327711087
0.655000000000000471,-0.273257909734879401
0.656000000000000361,-0.270612242348040155
0.657000000000000473,-0.268104319111970635
0.658000000000000362,-0.265731320900986723
0.659000000000000474,-0.263490455731020756
0.660000000000000364,-0.261378958957224294
0.661000000000000476,-0.259394093457351260
