# Au-001-PEG_CS-283071-AC
# h[nm],U(h)[kJ/mol]
0.149999999999999994,77.985778979738071826
0.150999999999999995,76.162198466248781870
0.151999999999999996,74.228732273792431329
0.152999999999999997,72.298033136209795657
0.153999999999999998,70.410092661682625703
0.154999999999999999,68.571369282095403719
0.156000000000000000,66.775652148819332865
0.157000000000000001,65.014265460795769513
0.158000000000000002,63.280327175234944548
0.159000000000000002,61.569907422895177262
0.160000000000000003,59.881744124703139676
0.161000000000000004,58.216433992323800339
0.162000000000000005,56.575569311327569721
0.163000000000000006,54.961029515817585889
0.164000000000000007,53.374491901480311640
0.165000000000000008,51.817152316239649679
0.166000000000000009,50.289614967419097979
0.167000000000000010,48.791902065657858145
0.168000000000000010,47.323537492114873260
0.169000000000000011,45.883667258319405846
0.170000000000000012,44.471189408460574555
0.171000000000000013,43.084875208047421324
0.172000000000000014,41.723471091982041514
0.173000000000000015,40.385776665609498082
0.174000000000000016,39.070698159757668577
0.175000000000000017,37.777279388538282490
0.176000000000000018,36.504713751556337797
0.177000000000000018,35.252341457732953245
0.178000000000000019,34.019636187537344085
0.179000000000000020,32.806185068051462395
0.180000000000000021,31.611665276700346539
0.181000000000000022,30.435819936509584949
0.182000000000000023,29.278435303081231211
0.183000000000000024,28.139320625925705599
0.184000000000000025,27.018291526239472944
0.185000000000000026,25.915157284702775797
0.186000000000000026,24.829712079606956365
0.187000000000000027,23.761729953026883067
0.188000000000000028,22.710963101540979636
0.189000000000000029,21.677142976445715306
0.190000000000000030,20.659983623969718991
0.191000000000000031,19.659186686396456167
0.192000000000000032,18.674447508945597463
0.193000000000000033,17.705461844774422531
0.194000000000000034,16.751932713098671712
0.195000000000000034,15.813577036277328247
0.196000000000000035,14.890131755304722105
0.197000000000000036,13.981359195365985926
0.198000000000000037,13.087051520953414396
0.199000000000000038,12.207034181500006298
0.200000000000000039,11.341168302353175079
0.201000000000000040,10.489352021609848364
0.202000000000000041,9.651520810782425741
0.203000000000000042,8.827646846743755660
0.204000000000000042,8.017737524443157682
0.205000000000000043,7.221833215200933687
0.206000000000000044,6.440004384770935175
0.207000000000000045,5.672348189652192119
0.208000000000000046,4.918984670165073680
0.209000000000000047,4.180052655387816785
0.210000000000000048,3.455705488923209057
0.211000000000000049,2.746106676311664163
0.212000000000000050,2.051425545325623823
0.213000000000000050,1.371832999898464633
0.214000000000000051,0.707497437498113557
0.215000000000000052,0.058580888724519123
0.216000000000000053,-0.574764572911748095
0.217000000000000054,-1.192400113450039933
0.218000000000000055,-1.794203085354476146
0.219000000000000056,-2.380069619981653339
0.220000000000000057,-2.949916854990883408
0.221000000000000058,-3.503684793329884251
0.222000000000000058,-4.041337796816292460
0.223000000000000059,-4.562865722823661763
0.224000000000000060,-5.068284717203528800
0.225000000000000061,-5.557637680369856170
0.226000000000000062,-6.030994426491798066
0.227000000000000063,-6.488451558045360557
0.228000000000000064,-6.930132079627253638
0.229000000000000065,-7.356184776004371706
0.230000000000000066,-7.766783379922914676
0.231000000000000066,-8.162125555303180846
0.232000000000000067,-8.542431721158441960
0.233000000000000068,-8.907943740963180090
0.234000000000000069,-9.258923501311574711
0.235000000000000070,-9.595651402604827851
0.236000000000000071,-9.918424783232563158
0.237000000000000072,-10.227556297313480371
0.238000000000000073,-10.523372264570541645
0.239000000000000073,-10.806211009369951270
0.240000000000000074,-11.076421204383192887
0.241000000000000075,-11.334360232758420750
0.242000000000000076,-11.580392581136390362
0.243000000000000077,-11.814888274333519291
0.244000000000000078,-12.038221361054835867
0.245000000000000079,-12.250768458604593292
0.246000000000000080,-12.452907363240553806
0.247000000000000081,-12.645015731577652573
0.248000000000000081,-12.827469837289351418
0.249000000000000082,-13.000643406286537029
0.250000000000000111,-13.164906532573231956
0.251000000000000112,-13.320624676085936144
0.252000000000000113,-13.468157743019464334
0.253000000000000114,-13.607859248420485443
0.254000000000000115,-13.740075560193417914
0.255000000000000115,-13.865145223102496530
0.256000000000000116,-13.983398360869074395
0.257000000000000117,-14.095156154048456898
0.258000000000000118,-14.200730391020277565
0.259000000000000119,-14.300423089138993404
0.260000000000000120,-14.394526182858664143
0.261000000000000121,-14.483321275465783629
0.262000000000000122,-14.567079450921088579
0.263000000000000123,-14.646061142220355933
0.264000000000000123,-14.720516052632268256
0.265000000000000124,-14.790683126153160387
0.266000000000000125,-14.856790563530873683
0.267000000000000126,-14.919055880248421886
0.268000000000000127,-14.977686002920346908
0.269000000000000128,-15.032877400635808129
0.270000000000000129,-15.084816247881065010
0.271000000000000130,-15.133678615786370969
0.272000000000000131,-15.179630688565922014
0.273000000000000131,-15.222829002152575839
0.274000000000000132,-15.263420702168659204
0.275000000000000133,-15.301543818519590445
0.276000000000000134,-15.337327554044927425
0.277000000000000135,-15.370892584811830517
0.278000000000000136,-15.402351369786762447
0.279000000000000137,-15.431808467771066518
0.280000000000000138,-15.459360859634438512
0.281000000000000139,-15.485098274026233511
0.282000000000000139,-15.509103514886694697
0.283000000000000140,-15.531452789218878507
0.284000000000000141,-15.552216033715813737
0.285000000000000142,-15.571457238966569747
0.286000000000000143,-15.589234770088694404
0.287000000000000144,-15.605601682752567427
0.288000000000000145,-15.620606033676187607
0.289000000000000146,-15.634291184775127803
0.290000000000000147,-15.646696100253915773
0.291000000000000147,-15.657855636019515799
0.292000000000000148,-15.667800820887425317
0.293000000000000149,-15.676559129133764259
0.294000000000000150,-15.684154744024777273
0.295000000000000151,-15.690608812027482699
0.296000000000000152,-15.695939687471717860
0.297000000000000153,-15.700163167495905014
0.298000000000000154,-15.703292717165087566
0.299000000000000155,-15.705339684701858260
0.300000000000000155,-15.706313506817906500
0.301000000000000156,-15.706221904176597803
0.302000000000000157,-15.705071067055859757
0.303000000000000158,-15.702865831315033773
0.304000000000000159,-15.699609844800495040
0.305000000000000160,-15.695305724351959142
0.306000000000000161,-15.689955203595809863
0.307000000000000162,-15.683559271732494977
0.308000000000000163,-15.676118303543219668
0.309000000000000163,-15.667632180856566393
0.310000000000000164,-15.658100405728669458
0.311000000000000165,-15.647522205600850498
0.312000000000000166,-15.635896630707600607
0.313000000000000167,-15.623222644013702975
0.314000000000000168,-15.609499203964517733
0.315000000000000169,-15.594725340336129449
0.316000000000000170,-15.578900223473898023
0.317000000000000171,-15.562023227208101162
0.318000000000000171,-15.544093985734216190
0.319000000000000172,-15.525112444743674800
0.320000000000000173,-15.505078907087408879
0.321000000000000174,-15.483994073250993750
0.322000000000000175,-15.461859076915288824
0.323000000000000176,-15.438675515871116417
0.324000000000000177,-15.414445478550822699
0.325000000000000178,-15.389171566432722216
0.326000000000000179,-15.362856912568144452
0.327000000000000179,-15.335505196473089740
0.328000000000000180,-15.307120655619234739
0.329000000000000181,-15.277708093751567020
0.330000000000000182,-15.247272886251504787
0.331000000000000183,-15.215820982756991242
0.332000000000000184,-15.183358907242427094
0.333000000000000185,-15.149893755753620184
0.334000000000000186,-15.115433191984601891
0.335000000000000187,-15.079985440875054437
0.336000000000000187,-15.043559280399415812
0.337000000000000188,-15.006164031710227391
0.338000000000000189,-14.967809547791128821
0.339000000000000190,-14.928506200766770817
0.340000000000000191,-14.888264868009477127
0.341000000000000192,-14.847096917175431230
0.342000000000000193,-14.805014190295409549
0.343000000000000194,-14.762028987038780414
0.344000000000000195,-14.718154047261950979
0.345000000000000195,-14.673402532946585808
0.346000000000000196,-14.627788009625945165
0.347000000000000197,-14.581324427391800569
0.348000000000000198,-14.534026101568567668
0.349000000000000199,-14.485907693135171570
0.350000000000000200,-14.436984188970001242
0.351000000000000201,-14.387270881988962756
0.352000000000000202,-14.336783351241347617
0.353000000000000203,-14.285537442023684918
0.354000000000000203,-14.233549246066919736
0.355000000000000204,-14.180835081847874335
0.356000000000000205,-14.127411475071671276
0.357000000000000206,-14.073295139368099171
0.358000000000000207,-14.018502957240437823
0.359000000000000208,-13.963051961302403114
0.360000000000000209,-13.906959315834905411
0.361000000000000210,-13.850242298691195941
0.362000000000000210,-13.792918283576074856
0.363000000000000211,-13.735004722721658510
0.364000000000000212,-13.676519129979817890
0.365000000000000213,-13.617479064348401607
0.366000000000000214,-13.557902113946388667
0.367000000000000215,-13.497805880450517435
0.368000000000000216,-13.437207964004008076
0.369000000000000217,-13.376125948605940508
0.370000000000000218,-13.314577387988004276
0.371000000000000218,-13.252579791983658097
0.372000000000000219,-13.190150613393040402
0.373000000000000220,-13.127307235345664793
0.374000000000000221,-13.064066959161348080
0.375000000000000222,-13.000446992708694083
0.376000000000000223,-12.936464439259259152
0.377000000000000224,-12.872136286834443553
0.378000000000000225,-12.807479398041127894
0.379000000000000226,-12.742510500391221129
0.380000000000000226,-12.677246177099600999
0.381000000000000227,-12.611702858353764256
0.382000000000000228,-12.545896813048482699
0.383000000000000229,-12.479844140977528255
0.384000000000000230,-12.413560765474363379
0.385000000000000231,-12.347062426493227605
0.386000000000000232,-12.280364674121392099
0.387000000000000233,-12.213482862513235006
0.388000000000000234,-12.146432144236275263
0.389000000000000234,-12.079227465019338084
0.390000000000000235,-12.011883558892355595
0.391000000000000236,-11.944414943707567289
0.392000000000000237,-11.876835917031439038
0.393000000000000238,-11.809160552396720689
0.394000000000000239,-11.741402695903730091
0.395000000000000240,-11.673575963160267577
0.396000000000000241,-11.605693736549159922
0.397000000000000242,-11.537769162812725909
0.398000000000000242,-11.469815150943377446
0.399000000000000243,-11.401844370369635939
0.400000000000000244,-11.333869249426836490
0.401000000000000245,-11.265901974102119354
0.402000000000000246,-11.197954487043192628
0.403000000000000247,-11.130038486820437171
0.404000000000000248,-11.062165427432397280
0.405000000000000249,-10.994346518044462613
0.406000000000000250,-10.926592722950914549
0.407000000000000250,-10.858914761750689593
0.408000000000000251,-10.791323109727276375
0.409000000000000252,-10.723827998423475449
0.410000000000000253,-10.656439416401834563
0.411000000000000254,-10.589167110181900711
0.412000000000000255,-10.522020585345440935
0.413000000000000256,-10.455009107801277679
0.414000000000000257,-10.388141705201240583
0.415000000000000258,-10.321427168499273108
0.416000000000000258,-10.254874053645758991
0.417000000000000259,-10.188490683409391124
0.418000000000000260,-10.122285149319171893
0.419000000000000261,-10.056265313719263688
0.420000000000000262,-9.990438811929688967
0.421000000000000263,-9.924813054506149257
0.422000000000000264,-9.859395229592225363
0.423000000000000265,-9.794192305357677597
0.424000000000000266,-9.729211032516769109
0.425000000000000266,-9.664457946920450127
0.426000000000000267,-9.599939372216791611
0.427000000000000268,-9.535661422574120749
0.428000000000000269,-9.471630005461449286
0.429000000000000270,-9.407850824481092999
0.430000000000000271,-9.344329382248481863
0.431000000000000272,-9.281070983314453571
0.432000000000000273,-9.218080737125371016
0.433000000000000274,-9.155363561016763185
0.434000000000000274,-9.092924183236146263
0.435000000000000275,-9.030767145991102751
0.436000000000000276,-8.968896808518680430
0.437000000000000277,-8.907317350172375470
0.438000000000000278,-8.846032773523225146
0.439000000000000279,-8.785046907471603106
0.440000000000000280,-8.724363410366432703
0.441000000000000281,-8.663985773128773715
0.442000000000000282,-8.603917322376929633
0.443000000000000282,-8.544161223550080564
0.444000000000000283,-8.484720484028004606
0.445000000000000284,-8.425597956244244457
0.446000000000000285,-8.366796340790294551
0.447000000000000286,-8.308318189508701934
0.448000000000000287,-8.250165908572736129
0.449000000000000288,-8.192341761550782309
0.450000000000000289,-8.134847872453415007
0.451000000000000290,-8.077686228761395526
0.452000000000000290,-8.020858684432964125
0.453000000000000291,-7.964366962888699497
0.454000000000000292,-7.908212659972583936
0.455000000000000293,-7.852397246887784732
0.456000000000000294,-7.796922073105916340
0.457000000000000295,-7.741788369248512325
0.458000000000000296,-7.686997249939605759
0.459000000000000297,-7.632549716628391323
0.460000000000000298,-7.578446660380921962
0.461000000000000298,-7.524688864640069141
0.462000000000000299,-7.471277007952811466
0.463000000000000300,-7.418211666664167758
0.464000000000000301,-7.365493317577073817
0.465000000000000302,-7.313122340577616676
0.466000000000000303,-7.261099021225000172
0.467000000000000304,-7.209423553305822630
0.468000000000000305,-7.158096041352183470
0.469000000000000306,-7.107116503123222628
0.470000000000000306,-7.056484872049852974
0.471000000000000307,-7.006200999642214988
0.472000000000000308,-6.956264657859844824
0.473000000000000309,-6.906675541444168509
0.474000000000000310,-6.857433270213294740
0.475000000000000311,-6.808537391318902898
0.476000000000000312,-6.759987381465309753
0.477000000000000313,-6.711782649090435093
0.478000000000000314,-6.663922536508925631
0.479000000000000314,-6.616406322017320818
0.480000000000000315,-6.569233221961306768
0.481000000000000316,-6.522402392765288326
0.482000000000000317,-6.475912932924259735
0.483000000000000318,-6.429763884958208386
0.484000000000000319,-6.383954237329161785
0.485000000000000320,-6.338482926321168165
0.486000000000000321,-6.293348837883318225
0.487000000000000322,-6.248550809436150821
0.488000000000000322,-6.204087631641575840
0.489000000000000323,-6.159958050136753904
0.490000000000000324,-6.116160767232094564
0.491000000000000325,-6.072694443573740664
0.492000000000000326,-6.029557699770831114
0.493000000000000327,-5.986749117987925750
0.494000000000000328,-5.944267243502912024
0.495000000000000329,-5.902110586230757683
0.496000000000000330,-5.860277622213476256
0.497000000000000330,-5.818766795076727227
0.498000000000000331,-5.777576517453359095
0.499000000000000332,-5.736705172374426454
0.500000000000000333,-5.696151114627945766
0.501000000000000334,-5.655912672085898762
0.502000000000000335,-5.615988146999846720
0.503000000000000336,-5.576375817265673440
0.504000000000000337,-5.537073937657732259
0.505000000000000338,-5.498080741032977059
0.506000000000000338,-5.459394439505455665
0.507000000000000339,-5.421013225591567064
0.508000000000000340,-5.382935273326585168
0.509000000000000341,-5.345158739352894983
0.510000000000000342,-5.307681763980315104
0.511000000000000343,-5.270502472219038559
0.512000000000000344,-5.233618974785562372
0.513000000000000345,-5.197029369082112105
0.514000000000000346,-5.160731740149996583
0.515000000000000346,-5.124724161597278282
0.516000000000000347,-5.089004696501282510
0.517000000000000348,-5.053571398286381466
0.518000000000000349,-5.018422311577378281
0.519000000000000350,-4.983555473029133154
0.520000000000000351,-4.948968912132647446
0.521000000000000352,-4.914660651998241647
0.522000000000000353,-4.880628710116089231
0.523000000000000353,-4.846871099094629542
0.524000000000000354,-4.813385827377304693
0.525000000000000355,-4.780170899937933093
0.526000000000000356,-4.747224318955248989
0.527000000000000357,-4.714544084466984586
0.528000000000000358,-4.682128195003855353
0.529000000000000359,-4.649974648203953898
0.530000000000000360,-4.618081441407850818
0.531000000000000361,-4.586446572234877728
0.532000000000000361,-4.555068039140954816
0.533000000000000362,-4.523943841958335099
0.534000000000000363,-4.493071982417693455
0.535000000000000364,-4.462450464652886417
0.536000000000000365,-4.432077295688814367
0.537000000000000366,-4.401950485912715649
0.538000000000000367,-4.372068049529248768
0.539000000000000368,-4.342428004999787206
0.540000000000000369,-4.313028375466194220
0.541000000000000369,-4.283867189159502153
0.542000000000000370,-4.254942479793799137
0.543000000000000371,-4.226252286945669567
0.544000000000000372,-4.197794656419534753
0.545000000000000373,-4.169567640599232128
0.546000000000000374,-4.141569298786110132
0.547000000000000375,-4.113797697523999375
0.548000000000000376,-4.086250910911405576
0.549000000000000377,-4.058927020901146321
0.550000000000000377,-4.031824117587791356
0.551000000000000378,-4.004940299483219057
0.552000000000000379,-3.978273673780547970
0.553000000000000380,-3.951822356606744968
0.554000000000000381,-3.925584473264184915
0.555000000000000382,-3.899558158461495339
0.556000000000000383,-3.873741556533840225
0.557000000000000384,-3.848132821653067026
0.558000000000000385,-3.822730118027837243
0.559000000000000385,-3.797531620094107829
0.560000000000000386,-3.772535512696145510
0.561000000000000387,-3.747739991258364878
0.562000000000000388,-3.723143261948224314
0.563000000000000389,-3.698743541830405768
0.564000000000000390,-3.674539059012536857
0.565000000000000391,-3.650528052782664012
0.566000000000000392,-3.626708773738723579
0.567000000000000393,-3.603079483910227143
0.568000000000000393,-3.579638456872356933
0.569000000000000394,-3.556383977852704881
0.570000000000000395,-3.533314343830891602
0.571000000000000396,-3.510427863631183865
0.572000000000000397,-3.487722858008416971
0.573000000000000398,-3.465197659727337509
0.574000000000000399,-3.442850613635592971
0.575000000000000400,-3.420680076730553854
0.576000000000000401,-3.398684418220137893
0.577000000000000401,-3.376862019577848706
0.578000000000000402,-3.355211274592154957
0.579000000000000403,-3.333730589410410339
0.580000000000000404,-3.312418382577520415
0.581000000000000405,-3.291273085069426063
0.582000000000000406,-3.270293140321663294
0.583000000000000407,-3.249477004253082946
0.584000000000000408,-3.228823145284938079
0.585000000000000409,-3.208330044355450550
0.586000000000000409,-3.187996194930011296
0.587000000000000410,-3.167820103007184862
0.588000000000000411,-3.147800287120621210
0.589000000000000412,-3.127935278337036440
0.590000000000000413,-3.108223620250373020
0.591000000000000414,-3.088663868972294946
0.592000000000000415,-3.069254593119141727
0.593000000000000416,-3.049994373795436253
0.594000000000000417,-3.030881804574087290
0.595000000000000417,-3.011915491473453166
0.596000000000000418,-2.993094052931253746
0.597000000000000419,-2.974416119775607825
0.598000000000000420,-2.955880335193154629
0.599000000000000421,-2.937485354694482798
0.600000000000000422,-2.919229846076883739
0.601000000000000423,-2.901112489384597648
0.602000000000000424,-2.883131976866606827
0.603000000000000425,-2.865287012932092647
0.604000000000000425,-2.847576314103647643
0.605000000000000426,-2.829998608968321783
0.606000000000000427,-2.812552638126645466
0.607000000000000428,-2.795237154139583957
0.608000000000000429,-2.778050921473724788
0.609000000000000430,-2.760992716444516937
