# Au-001-PEG_CS-55104-AC
# h[nm],U(h)[kJ/mol]
0.149999999999999994,115.151601419591997910
0.150999999999999995,112.172550706486916283
0.151999999999999996,109.966143110748163281
0.152999999999999997,107.978765568657394169
0.153999999999999998,105.993559944735835643
0.154999999999999999,103.956015143197646466
0.156000000000000000,101.878723100897360609
0.157000000000000001,99.793005996633013410
0.158000000000000002,97.727214121661603485
0.159000000000000002,95.699356129611516053
0.160000000000000003,93.716757824008297462
0.161000000000000004,91.778608836130672444
0.162000000000000005,89.879196562969696060
0.163000000000000006,88.010779011012985507
0.164000000000000007,86.165702456604833515
0.165000000000000008,84.337716633892043205
0.166000000000000009,82.522603048418758931
0.167000000000000010,80.718289699399022652
0.168000000000000010,78.924627000994817649
0.169000000000000011,77.142974651608639647
0.170000000000000012,75.375714774216220349
0.171000000000000013,73.625772159183199506
0.172000000000000014,71.896192400872706685
0.173000000000000015,70.189804819756133725
0.174000000000000016,68.508979420432041252
0.175000000000000017,66.855475079446392783
0.176000000000000018,65.230368688400929500
0.177000000000000018,63.634051044690750132
0.178000000000000019,62.066273915756674739
0.179000000000000020,60.526233081631609423
0.180000000000000021,59.012673628312271035
0.181000000000000022,57.524005822079494976
0.182000000000000023,56.058422181317439481
0.183000000000000024,54.614008630662830512
0.184000000000000025,53.188844715422263221
0.185000000000000026,51.781089683201358298
0.186000000000000026,50.389052765080649010
0.187000000000000027,49.011247205157587814
0.188000000000000028,47.646428511832830566
0.189000000000000029,46.293618067073147415
0.190000000000000030,44.952113667879885384
0.191000000000000031,43.621488826170079278
0.192000000000000032,42.301582756966851662
0.193000000000000033,40.992482974892176628
0.194000000000000034,39.694502326073504150
0.195000000000000034,38.408152132779768806
0.196000000000000035,37.134112942917298028
0.197000000000000036,35.873204173147023255
0.198000000000000037,34.626353726142660605
0.199000000000000038,33.394568459303840768
0.200000000000000039,32.178906191082717214
0.201000000000000040,30.980449756607491452
0.202000000000000041,29.800283469203332487
0.203000000000000042,28.639472209936108982
0.204000000000000042,27.499043253510585316
0.205000000000000043,26.379970845004283575
0.206000000000000044,25.283163466684975162
0.207000000000000045,24.209453675874506473
0.208000000000000046,23.159590351597000080
0.209000000000000047,22.134233157636092670
0.210000000000000048,21.133949010684588643
0.211000000000000049,20.159210332652644837
0.212000000000000050,19.210394864181814967
0.213000000000000050,18.287786820434455137
0.214000000000000051,17.391579178893493918
0.215000000000000052,16.521876901005995819
0.216000000000000053,15.678700903992027094
0.217000000000000054,14.861992615140042773
0.218000000000000055,14.071618957698452945
0.219000000000000056,13.307377634464838678
0.220000000000000057,12.569002591903352339
0.221000000000000058,11.856169563741191908
0.222000000000000058,11.168501608235755995
0.223000000000000059,10.505574567493896510
0.224000000000000060,9.866922390240826957
0.225000000000000061,9.252042271221409209
0.226000000000000062,8.660399570951859971
0.227000000000000063,8.091432488841839188
0.228000000000000064,7.544556470819014926
0.229000000000000065,7.019168339570084569
0.230000000000000066,6.514650141442568376
0.231000000000000066,6.030372709010296539
0.232000000000000067,5.565698942383773939
0.233000000000000068,5.119986815632526778
0.234000000000000069,4.692592117269420271
0.235000000000000070,4.282870935712657534
0.236000000000000071,3.890181902071735642
0.237000000000000072,3.513888203573812152
0.238000000000000073,3.153359381529292627
0.239000000000000073,2.807972927993550805
0.240000000000000074,2.477115695271684626
0.241000000000000075,2.160185132190252766
0.242000000000000076,1.856590360666900308
0.243000000000000077,1.565753105586239702
0.244000000000000078,1.287108490373462644
0.245000000000000079,1.020105709974494346
0.246000000000000080,0.764208592228449057
0.247000000000000081,0.518896057874324912
0.248000000000000081,0.283662488687826009
0.249000000000000082,0.058018012508095483
0.250000000000000111,-0.158511286801063023
0.251000000000000112,-0.366383227096069242
0.252000000000000113,-0.566039446696517623
0.253000000000000114,-0.757905378028102206
0.254000000000000115,-0.942390270637820771
0.255000000000000115,-1.119887258579075562
0.256000000000000116,-1.290773467647559514
0.257000000000000117,-1.455410158388929176
0.258000000000000118,-1.614142901197670454
0.259000000000000119,-1.767301780186188553
0.260000000000000120,-1.915201622825065453
0.261000000000000121,-2.058142252642208181
0.262000000000000122,-2.196408762523824443
0.263000000000000123,-2.330271806384995870
0.264000000000000123,-2.459987907176454325
0.265000000000000124,-2.585799779367968565
0.266000000000000125,-2.707936664201755494
0.267000000000000126,-2.826614676142343630
0.268000000000000127,-2.942037159066393848
0.269000000000000128,-3.054395050837616310
0.270000000000000129,-3.163867255001271417
0.271000000000000130,-3.270621018411452585
0.272000000000000131,-3.374812313673424935
0.273000000000000131,-3.476586225345049463
0.274000000000000132,-3.576077338896544777
0.275000000000000133,-3.673410131478103580
0.276000000000000134,-3.768699363590712892
0.277000000000000135,-3.862050470798097823
0.278000000000000136,-3.953559954658088404
0.279000000000000137,-4.043315772089733251
0.280000000000000138,-4.131397722429293928
0.281000000000000139,-4.217877831464280192
0.282000000000000139,-4.302820731769697815
0.283000000000000140,-4.386284038705733579
0.284000000000000141,-4.468318721470585508
0.285000000000000142,-4.548969468636907543
0.286000000000000143,-4.628275047634919481
0.287000000000000144,-4.706268657679770762
0.288000000000000145,-4.782978275675935365
0.289000000000000146,-4.858426994665588694
0.290000000000000147,-4.932633354423350269
0.291000000000000147,-5.005611663833809288
0.292000000000000148,-5.077372314723438862
0.293000000000000149,-5.147922086852112500
0.294000000000000150,-5.217264443803736995
0.295000000000000151,-5.285399819548834088
0.296000000000000152,-5.352325895484573159
0.297000000000000153,-5.418037867790181927
0.298000000000000154,-5.482528704966864730
0.299000000000000155,-5.545789395461964588
0.300000000000000155,-5.607809185306754429
0.301000000000000156,-5.668575805725607708
0.302000000000000157,-5.728075690702068457
0.303000000000000158,-5.786294184513282701
0.304000000000000159,-5.843215739269748354
0.305000000000000160,-5.898824102520778823
0.306000000000000161,-5.953102495008907979
0.307000000000000162,-6.006033778677620560
0.308000000000000163,-6.057600615056552229
0.309000000000000163,-6.107785614167000610
0.310000000000000164,-6.156571474107700226
0.311000000000000165,-6.203941111496556360
0.312000000000000166,-6.249877782958749961
0.313000000000000167,-6.294365197864495443
0.314000000000000168,-6.337387622531823972
0.315000000000000169,-6.378929976120184087
0.316000000000000170,-6.418977918450150533
0.317000000000000171,-6.457517929992502737
0.318000000000000171,-6.494537384276893199
0.319000000000000172,-6.530024612976379039
0.320000000000000173,-6.563968963928486389
0.321000000000000174,-6.596360852357426197
0.322000000000000175,-6.627191805564730309
0.323000000000000176,-6.656454501357285558
0.324000000000000177,-6.684142800482744562
0.325000000000000178,-6.710251773342146286
0.326000000000000179,-6.734777721249111337
0.327000000000000179,-6.757718192503195276
0.328000000000000180,-6.779071993542979513
0.329000000000000181,-6.798839195441777505
0.330000000000000182,-6.817021136005071646
0.331000000000000183,-6.833620417725389196
0.332000000000000184,-6.848640901845415740
0.333000000000000185,-6.862087698775587441
0.334000000000000186,-6.873967155107083116
0.335000000000000187,-6.884286837455344532
0.336000000000000187,-6.893055513363698594
0.337000000000000188,-6.900283129489880984
0.338000000000000189,-6.905980787292423706
0.339000000000000190,-6.910160716426799077
0.340000000000000191,-6.912836246054436806
0.341000000000000192,-6.914021774261081887
0.342000000000000193,-6.913732735773433724
0.343000000000000194,-6.911985568156405080
0.344000000000000195,-6.908797676665524357
0.345000000000000195,-6.904187397922588509
0.346000000000000196,-6.898173962574640328
0.347000000000000197,-6.890777457089842351
0.348000000000000198,-6.882018784836324343
0.349000000000000199,-6.871919626583016694
0.350000000000000200,-6.860502400554722158
0.351000000000000201,-6.847790222166520557
0.352000000000000202,-6.833806863555895283
0.353000000000000203,-6.818576713024427249
0.354000000000000203,-6.802124734494162439
0.355000000000000204,-6.784476427077470007
0.356000000000000205,-6.765657784852957768
0.357000000000000206,-6.745695256934043371
0.358000000000000207,-6.724615707910482243
0.359000000000000208,-6.702446378737920263
0.360000000000000209,-6.679214848144607863
0.361000000000000210,-6.654948994619123148
0.362000000000000210,-6.629676959037764661
0.363000000000000211,-6.603427107985257116
0.364000000000000212,-6.576227997817563953
0.365000000000000213,-6.548108339510889664
0.366000000000000214,-6.519096964336637434
0.367000000000000215,-6.489222790397630725
0.368000000000000216,-6.458514790057011901
0.369000000000000217,-6.427001958287118732
0.370000000000000218,-6.394713281962128626
0.371000000000000218,-6.361677710114496342
0.372000000000000219,-6.327924125172019743
0.373000000000000220,-6.293481315189117353
0.374000000000000221,-6.258377947082822246
0.375000000000000222,-6.222642540881150097
0.376000000000000223,-6.186303444988942246
0.377000000000000224,-6.149388812473540966
0.378000000000000225,-6.111926578370396435
0.379000000000000226,-6.073944438006411595
0.380000000000000226,-6.035469826336900212
0.381000000000000227,-5.996529898289738369
0.382000000000000228,-5.957151510108936066
0.383000000000000229,-5.917361201687792338
0.384000000000000230,-5.877185179880400234
0.385000000000000231,-5.836649302778960546
0.386000000000000232,-5.795779064942753855
0.387000000000000233,-5.754599583563740239
0.388000000000000234,-5.713135585552373108
0.389000000000000234,-5.671411395526551935
0.390000000000000235,-5.629450924685372115
0.391000000000000236,-5.587277660548908287
0.392000000000000237,-5.544914657544231851
0.393000000000000238,-5.502384528417590737
0.394000000000000239,-5.459709436451734454
0.395000000000000240,-5.416911088467347035
0.396000000000000241,-5.374010728586799956
0.397000000000000242,-5.331029132738329679
0.398000000000000242,-5.287986603878460201
0.399000000000000243,-5.244902967910229030
0.400000000000000244,-5.201797570274683480
0.401000000000000245,-5.158689273193169278
0.402000000000000246,-5.115596453537603949
0.403000000000000247,-5.072537001306284488
0.404000000000000248,-5.029528318682622512
0.405000000000000249,-4.986587319654433692
0.406000000000000250,-4.943730430171434875
0.407000000000000250,-4.900973588818938076
0.408000000000000251,-4.858332247985805097
0.409000000000000252,-4.815821375505095148
0.410000000000000253,-4.773455456745961278
0.411000000000000254,-4.731248497135869258
0.412000000000000255,-4.689214025092288907
0.413000000000000256,-4.647365095343590546
0.414000000000000257,-4.605714292618988459
0.415000000000000258,-4.564273735688061606
0.416000000000000258,-4.523055081730470661
0.417000000000000259,-4.482069531017094377
0.418000000000000260,-4.441327831884203547
0.419000000000000261,-4.400840285982619449
0.420000000000000262,-4.360616753784372079
0.421000000000000263,-4.320666660329781195
0.422000000000000264,-4.280999001198226850
0.423000000000000265,-4.241622348686489019
0.424000000000000266,-4.202544858178988818
0.425000000000000266,-4.163774274694501898
0.426000000000000267,-4.125317939594707717
0.427000000000000268,-4.087182797440144455
0.428000000000000269,-4.049375402979697114
0.429000000000000270,-4.011901928260277472
0.430000000000000271,-3.974768169843614807
0.431000000000000272,-3.937979556117771729
0.432000000000000273,-3.901541154691261060
0.433000000000000274,-3.865457679858191220
0.434000000000000274,-3.829733500123259748
0.435000000000000275,-3.794372645775865749
0.436000000000000276,-3.759378816503088583
0.437000000000000277,-3.724755389031565223
0.438000000000000278,-3.690505424788890654
0.439000000000000279,-3.656631677575497008
0.440000000000000280,-3.623136601238270860
0.441000000000000281,-3.590022357337752990
0.442000000000000282,-3.557290822801041141
0.443000000000000282,-3.524943597552824937
0.444000000000000283,-3.492982012117553658
0.445000000000000284,-3.461407135185898376
0.446000000000000285,-3.430219781139070445
0.447000000000000286,-3.399420517525091334
0.448000000000000287,-3.369009672481062090
0.449000000000000288,-3.338987342096234379
0.450000000000000289,-3.309353397710654399
0.451000000000000290,-3.280107493144667874
0.452000000000000290,-3.251249071854804384
0.453000000000000291,-3.222777374011811524
0.454000000000000292,-3.194691443496991301
0.455000000000000293,-3.166990134813121749
0.456000000000000294,-3.139672119906663728
0.457000000000000295,-3.112735894898094990
0.458000000000000296,-3.086179786717493823
0.459000000000000297,-3.060001959642768554
0.460000000000000298,-3.034200421738070474
0.461000000000000298,-3.008773031190265179
0.462000000000000299,-2.983717502541455069
0.463000000000000300,-2.959031412815759321
0.464000000000000301,-2.934712207538836548
0.465000000000000302,-2.910757206648724615
0.466000000000000303,-2.887163610296804794
0.467000000000000304,-2.863928504537839537
0.468000000000000305,-2.841048866908276960
0.469000000000000306,-2.818521571892039557
0.470000000000000306,-2.796343396273344162
0.471000000000000307,-2.774511024376013602
0.472000000000000308,-2.753021053189161016
0.473000000000000309,-2.731869997378998161
0.474000000000000310,-2.711054294186807212
0.475000000000000311,-2.690570308213164896
0.476000000000000312,-2.670414336088705820
0.477000000000000313,-2.650582611031641278
0.478000000000000314,-2.631071307292561556
0.479000000000000314,-2.611876544487050644
0.480000000000000315,-2.592994391816647148
0.481000000000000316,-2.574420872178984521
0.482000000000000317,-2.556151966167793610
0.483000000000000318,-2.538183615963695239
0.484000000000000319,-2.520511729116678090
0.485000000000000320,-2.503132182221323276
0.486000000000000321,-2.486040824485781897
0.487000000000000322,-2.469233481195665991
0.488000000000000322,-2.452705957073996856
0.489000000000000323,-2.436454039538509697
0.490000000000000324,-2.420473501857514975
0.491000000000000325,-2.404760106205683368
0.492000000000000326,-2.389309606621077275
0.493000000000000327,-2.374117751864868620
0.494000000000000328,-2.359180288185117824
0.495000000000000329,-2.344492961986129220
0.496000000000000330,-2.330051522404788411
0.497000000000000330,-2.315851723795496309
0.498000000000000331,-2.301889328125087175
0.499000000000000332,-2.288160107279426203
0.500000000000000333,-2.274659845283141024
0.501000000000000334,-2.261384340434096973
0.502000000000000335,-2.248329407354209497
0.503000000000000336,-2.235490878958190208
0.504000000000000337,-2.222864608341807546
0.505000000000000338,-2.210446470591285184
0.506000000000000338,-2.198232364515451565
0.507000000000000339,-2.186218214302232177
0.508000000000000340,-2.174399971101100615
0.509000000000000341,-2.162773614533128441
0.510000000000000342,-2.151335154130171734
0.511000000000000343,-2.140080630704869424
0.512000000000000344,-2.129006117652962882
0.513000000000000345,-2.118107722189592312
0.514000000000000346,-2.107381586521124284
0.515000000000000346,-2.096823888954035375
0.516000000000000347,-2.086430844942449347
0.517000000000000348,-2.076198708075879473
0.518000000000000349,-2.066123771008629539
0.519000000000000350,-2.056202366332457121
0.520000000000000351,-2.046430867393932207
0.521000000000000352,-2.036805689058017954
0.522000000000000353,-2.027323288419288438
0.523000000000000353,-2.017980165462279984
0.524000000000000354,-2.008772863672394049
0.525000000000000355,-1.999697970598737440
0.526000000000000356,-1.990752118370321400
0.527000000000000357,-1.981931984167004668
0.528000000000000358,-1.973234290646483036
0.529000000000000359,-1.964655806328725163
0.530000000000000360,-1.956193345939108763
0.531000000000000361,-1.947843770711604749
0.532000000000000361,-1.939603988653236355
0.533000000000000362,-1.931470954771093318
0.534000000000000363,-1.923441671263120600
0.535000000000000364,-1.915513187673886453
0.536000000000000365,-1.907682601016522650
0.537000000000000366,-1.899947055862012402
0.538000000000000367,-1.892303744396919285
0.539000000000000368,-1.884749906450777557
0.540000000000000369,-1.877282829494112182
0.541000000000000369,-1.869899848608288506
0.542000000000000370,-1.862598346428173013
0.543000000000000371,-1.855375753058645216
0.544000000000000372,-1.848229545966018517
0.545000000000000373,-1.841157249845305044
0.546000000000000374,-1.834156436464323248
0.547000000000000375,-1.827224724485581486
0.548000000000000376,-1.820359779266895517
0.549000000000000377,-1.813559312641589205
0.550000000000000377,-1.806821082679209711
0.551000000000000378,-1.800142893427597146
0.552000000000000379,-1.793522594637160905
0.553000000000000380,-1.786958081468178250
0.554000000000000381,-1.780447294181902507
0.555000000000000382,-1.773988217816319546
0.556000000000000383,-1.767578881847211125
0.557000000000000384,-1.761217359835386631
0.558000000000000385,-1.754901769060702943
0.559000000000000385,-1.748630270143650689
0.560000000000000386,-1.742401066655135722
0.561000000000000387,-1.736212404715165025
0.562000000000000388,-1.730062572581051894
0.563000000000000389,-1.723949900225798970
0.564000000000000390,-1.717872758907236896
0.565000000000000391,-1.711829560728548305
0.566000000000000392,-1.705818758190721152
0.567000000000000393,-1.699838843737535354
0.568000000000000393,-1.693888349293557471
0.569000000000000394,-1.687965845795743602
0.570000000000000395,-1.682069942719125688
0.571000000000000396,-1.676199287597048171
0.572000000000000397,-1.670352565536518785
0.573000000000000398,-1.664528498729024975
0.574000000000000399,-1.658725845957380374
0.575000000000000400,-1.652943402098935977
0.576000000000000401,-1.647179997625636272
0.577000000000000401,-1.641434498101328243
0.578000000000000402,-1.635705803676669401
0.579000000000000403,-1.629992848582050513
0.580000000000000404,-1.624294600618904738
0.581000000000000405,-1.618610060649725568
0.582000000000000406,-1.612938262087150409
0.583000000000000407,-1.607278270382441532
0.584000000000000408,-1.601629182513675476
0.585000000000000409,-1.595990126473934012
0.586000000000000409,-1.590360260759801081
0.587000000000000410,-1.584738773860458139
0.588000000000000411,-1.579124883747602626
0.589000000000000412,-1.573517837366512850
0.590000000000000413,-1.567916910128443808
0.591000000000000414,-1.562321405404636376
0.592000000000000415,-1.556730654022157045
0.593000000000000416,-1.551144013761767138
0.594000000000000417,-1.545560868858049552
0.595000000000000417,-1.539980629502017084
0.596000000000000418,-1.534402731346304005
0.597000000000000419,-1.528826635013255997
0.598000000000000420,-1.523251825605949739
0.599000000000000421,-1.517677812222432365
0.600000000000000422,-1.512104127473242299
0.601000000000000423,-1.506530327002413294
0.602000000000000424,-1.500955989012088931
0.603000000000000425,-1.495380713790889882
0.604000000000000425,-1.489804123246122325
0.605000000000000426,-1.484225860439999600
0.606000000000000427,-1.478645589129986115
0.607000000000000428,-1.473062993313271507
0.608000000000000429,-1.467477776775665932
0.609000000000000430,-1.461889662644780374
0.610000000000000431,-1.456298392947788622
0.611000000000000432,-1.450703728173706075
0.612000000000000433,-1.445105446840317720
0.613000000000000433,-1.439503345065850759
