# Au-001-PEG_CS-13867413-AC
# h[nm],U(h)[kJ/mol]
0.149999999999999994,83.110987866976884675
0.150999999999999995,80.979697908660810413
0.151999999999999996,79.204230824304914904
0.152999999999999997,77.516583486634985434
0.153999999999999998,75.821428825501541837
0.154999999999999999,74.103074906819500711
0.156000000000000000,72.375919664300937484
0.157000000000000001,70.660240714875058643
0.158000000000000002,68.972088194806275396
0.159000000000000002,67.320517146217000004
0.160000000000000003,65.708229519371272431
0.161000000000000004,64.133454827886694716
0.162000000000000005,62.591960801977293727
0.163000000000000006,61.078703503262943286
0.164000000000000007,59.588967154337090903
0.165000000000000008,58.119016246425132977
0.166000000000000009,56.666356196594108496
0.167000000000000010,55.229717894216697971
0.168000000000000010,53.808872844031292004
0.169000000000000011,52.404365204973089476
0.170000000000000012,51.017223771717119973
0.171000000000000013,49.648695449363472676
0.172000000000000014,48.300024035415077606
0.173000000000000015,46.972284670158636288
0.174000000000000016,45.666274886761542007
0.175000000000000017,44.382457167878683890
0.176000000000000018,43.120944568174039091
0.177000000000000018,41.881519588764447803
0.178000000000000019,40.663676477597022085
0.179000000000000020,39.466677981091457639
0.180000000000000021,38.289618904035357616
0.181000000000000022,37.131490367309432088
0.182000000000000023,35.991240194160077692
0.183000000000000024,34.867826282402454297
0.184000000000000025,33.760261061956391870
0.185000000000000026,32.667646162843396951
0.186000000000000026,31.589197223264612546
0.187000000000000027,30.524259363089402797
0.188000000000000028,29.472314257749729904
0.189000000000000029,28.432979998998121118
0.190000000000000030,27.406005051539729322
0.191000000000000031,26.391257636516996854
0.192000000000000032,25.388711820071847569
0.193000000000000033,24.398431480322543052
0.194000000000000034,23.420553188073629514
0.195000000000000034,22.455268880841718016
0.196000000000000035,21.502809048391164026
0.197000000000000036,20.563426989985746474
0.198000000000000037,19.637384555425118293
0.199000000000000038,18.724939647923370956
0.200000000000000039,17.826335649506315661
0.201000000000000040,16.941792829961464406
0.202000000000000041,16.071501718523546032
0.203000000000000042,15.215618352694084692
0.204000000000000042,14.374261269619992731
0.205000000000000043,13.547510070703197016
0.206000000000000044,12.735405367803121379
0.207000000000000045,11.937949907695449170
0.208000000000000046,11.155110668554669928
0.209000000000000047,10.386821726419961820
0.210000000000000048,9.632987699304889517
0.211000000000000049,8.893487590402292753
0.212000000000000050,8.168178868469253118
0.213000000000000050,7.456901641888921795
0.214000000000000051,6.759482802194645146
0.215000000000000052,6.075740032277176184
0.216000000000000053,5.405485593491175855
0.217000000000000054,4.748529823982819309
0.218000000000000055,4.104684297443819574
0.219000000000000056,3.473764606930756393
0.220000000000000057,2.855592752224799469
0.221000000000000058,2.249999121382781020
0.222000000000000058,1.656824067624133034
0.223000000000000059,1.075919091553646068
0.224000000000000060,0.507147646000241314
0.225000000000000061,-0.049614413442724728
0.226000000000000062,-0.594478704645825529
0.227000000000000063,-1.127544491201552423
0.228000000000000064,-1.648899117864521147
0.229000000000000065,-2.158618675188056280
0.230000000000000066,-2.656768859066555244
0.231000000000000066,-3.143405991299846214
0.232000000000000067,-3.618578168289518171
0.233000000000000068,-4.082326506449513559
0.234000000000000069,-4.534686454760010754
0.235000000000000070,-4.975689147022690051
0.236000000000000071,-5.405362768703654730
0.237000000000000072,-5.823733915707074438
0.238000000000000073,-6.230828924941899771
0.239000000000000073,-6.626675159073838195
0.240000000000000074,-7.011302230351044606
0.241000000000000075,-7.384743150814228052
0.242000000000000076,-7.747035398522816863
0.243000000000000077,-8.098221891624669766
0.244000000000000078,-8.438351864148785353
0.245000000000000079,-8.767481639297635354
0.246000000000000080,-9.085675297749130408
0.247000000000000081,-9.393005240045436466
0.248000000000000081,-9.689552643544143251
0.249000000000000082,-9.975407815640524589
0.250000000000000111,-10.250670446041434403
0.251000000000000112,-10.515449761787831306
0.252000000000000113,-10.769864589492604168
0.253000000000000114,-11.014043329889400269
0.254000000000000115,-11.248123850290301817
0.255000000000000115,-11.472253300930191244
0.256000000000000116,-11.686587861448181513
0.257000000000000117,-11.891292423929186839
0.258000000000000118,-12.086540219011808972
0.259000000000000119,-12.272512391573846102
0.260000000000000120,-12.449397532441745184
0.261000000000000121,-12.617391172444499148
0.262000000000000122,-12.776695244956160380
0.263000000000000123,-12.927517522849726106
0.264000000000000123,-13.070071035529092995
0.265000000000000124,-13.204573471419710273
0.266000000000000125,-13.331246570990472833
0.267000000000000126,-13.450315515054034776
0.268000000000000127,-13.562008312756564266
0.269000000000000128,-13.666555193324086304
0.270000000000000129,-13.764188005286701610
0.271000000000000130,-13.855139626557138044
0.272000000000000131,-13.939643388398939905
0.273000000000000131,-14.017932515986222697
0.274000000000000132,-14.090239587931979059
0.275000000000000133,-14.156796016849128250
0.276000000000000134,-14.217831552707821174
0.277000000000000135,-14.273573810466164247
0.278000000000000136,-14.324247823180531469
0.279000000000000137,-14.370075621546011035
0.280000000000000138,-14.411275840578355201
0.281000000000000139,-14.448063353926198005
0.282000000000000139,-14.480648936096107704
0.283000000000000140,-14.509238952683734425
0.284000000000000141,-14.534035078530715523
0.285000000000000142,-14.555234043570070668
0.286000000000000143,-14.573027405980846893
0.287000000000000144,-14.587601352146037925
0.288000000000000145,-14.599136522795808091
0.289000000000000146,-14.607807864618939320
0.290000000000000147,-14.613784506540742569
0.291000000000000147,-14.617229659792005947
0.292000000000000148,-14.618300540832754209
0.293000000000000149,-14.617148316143936171
0.294000000000000150,-14.613918067859964722
0.295000000000000151,-14.608748779184603350
0.296000000000000152,-14.601773338510392719
0.297000000000000153,-14.593118561148182621
0.298000000000000154,-14.582905227566451245
0.299000000000000155,-14.571248137040516468
0.300000000000000155,-14.558256175617623640
0.301000000000000156,-14.544032397315433514
0.302000000000000157,-14.528674117487900830
0.303000000000000158,-14.512273017313082946
0.304000000000000159,-14.494915258381762868
0.305000000000000160,-14.476681606393290380
0.306000000000000161,-14.457647562995555646
0.307000000000000162,-14.437883504838623594
0.308000000000000163,-14.417454828946045353
0.309000000000000163,-14.396422103544338711
0.310000000000000164,-14.374841223528239453
0.311000000000000165,-14.352763569777758690
0.312000000000000166,-14.330236171581969273
0.313000000000000167,-14.307301871463661058
0.314000000000000168,-14.283999491738185839
0.315000000000000169,-14.260364002179349185
0.316000000000000170,-14.236426688203801305
0.317000000000000171,-14.212215319023965066
0.318000000000000171,-14.187754315257274484
0.319000000000000172,-14.163064915516605069
0.320000000000000173,-14.138165341542890729
0.321000000000000174,-14.113070961475932208
0.322000000000000175,-14.087794450893943221
0.323000000000000176,-14.062345951284845214
0.324000000000000177,-14.036733225644535850
0.325000000000000178,-14.010961810927648585
0.326000000000000179,-13.985035167105815290
0.327000000000000179,-13.958954822616330915
0.328000000000000180,-13.932720516010789424
0.329000000000000181,-13.906330333638933894
0.330000000000000182,-13.879780843226509290
0.331000000000000183,-13.853067223229416527
0.332000000000000184,-13.826183387867185814
0.333000000000000185,-13.799122107759583145
0.334000000000000186,-13.771875126108904297
0.335000000000000187,-13.744433270388123347
0.336000000000000187,-13.716786559511955801
0.337000000000000188,-13.688924306482846305
0.338000000000000189,-13.660835216518563584
0.339000000000000190,-13.632507480680951417
0.340000000000000191,-13.603928865037573814
0.341000000000000192,-13.575086795399281314
0.342000000000000193,-13.545968437686505936
0.343000000000000194,-13.516560773986643795
0.344000000000000195,-13.486850674372874437
0.345000000000000195,-13.456824964562599689
0.346000000000000196,-13.426470489499905625
0.347000000000000197,-13.395774172952693348
0.348000000000000198,-13.364723073220181604
0.349000000000000199,-13.333304435050823855
0.350000000000000200,-13.301505737874780522
0.351000000000000201,-13.269314740458122870
0.352000000000000202,-13.236719522088611356
0.353000000000000203,-13.203708520405157856
0.354000000000000203,-13.170270565984608879
0.355000000000000204,-13.136394913800597095
0.356000000000000205,-13.102071271670103769
0.357000000000000206,-13.067289825803644732
0.358000000000000207,-13.032041263574791756
0.359000000000000208,-12.996316793624743013
0.360000000000000209,-12.960108163416638405
0.361000000000000210,-12.923407674353441621
0.362000000000000210,-12.886208194572185803
0.363000000000000211,-12.848503169525566037
0.364000000000000212,-12.810286630460590018
0.365000000000000213,-12.771553200901760050
0.366000000000000214,-12.732298101244625244
0.367000000000000215,-12.692517151562928035
0.368000000000000216,-12.652206772730767881
0.369000000000000217,-12.611363985958291778
0.370000000000000218,-12.569986410837298507
0.371000000000000218,-12.528072261990287117
0.372000000000000219,-12.485620344413941751
0.373000000000000220,-12.442630047605341304
0.374000000000000221,-12.399101338556324237
0.375000000000000222,-12.355034753698646455
0.376000000000000223,-12.310431389879926911
0.377000000000000224,-12.265292894447345162
0.378000000000000225,-12.219621454513296399
0.379000000000000226,-12.173419785474411725
0.380000000000000226,-12.126691118852647833
0.381000000000000227,-12.079439189523975884
0.382000000000000228,-12.031668222398060664
0.383000000000000229,-11.983382918608988632
0.384000000000000230,-11.934588441274707193
0.385000000000000231,-11.885290400880359485
0.386000000000000232,-11.835494840337592137
0.387000000000000233,-11.785208219769963023
0.388000000000000234,-11.734437401071506457
0.389000000000000234,-11.683189632283680126
0.390000000000000235,-11.631472531832843131
0.391000000000000236,-11.579294072668814053
0.392000000000000237,-11.526662566342123384
0.393000000000000238,-11.473586647056006171
0.394000000000000239,-11.420075255726439778
0.395000000000000240,-11.366137624082023549
0.396000000000000241,-11.311783258833091992
0.397000000000000242,-11.257021925937653606
0.398000000000000242,-11.201863634990051111
0.399000000000000243,-11.146318623756057420
0.400000000000000244,-11.090397342876739728
0.401000000000000245,-11.034110440761612182
0.402000000000000246,-10.977468748689927835
0.403000000000000247,-10.920483266137507528
0.404000000000000248,-10.863165146345004075
0.405000000000000249,-10.805525682142118171
0.406000000000000250,-10.747576292040765367
0.407000000000000250,-10.689328506609127700
0.408000000000000251,-10.630793955137111340
0.409000000000000252,-10.571984352602635582
0.410000000000000253,-10.512911486946995510
0.411000000000000254,-10.453587206666581366
0.412000000000000255,-10.394023408727026236
0.413000000000000256,-10.334232026805146631
0.414000000000000257,-10.274225019862880615
0.415000000000000258,-10.214014361056744207
0.416000000000000258,-10.153612026985424421
0.417000000000000259,-10.093029987277336801
0.418000000000000260,-10.032280194519406891
0.419000000000000261,-9.971374574527368750
0.420000000000000262,-9.910325016957548527
0.421000000000000263,-9.849143366259326626
0.422000000000000264,-9.787841412966844956
0.423000000000000265,-9.726430885328230858
0.424000000000000266,-9.664923441269960946
0.425000000000000266,-9.603330660693480070
0.426000000000000267,-9.541664038100972078
0.427000000000000268,-9.479934975546632003
0.428000000000000269,-9.418154775909442833
0.429000000000000270,-9.356334636483277123
0.430000000000000271,-9.294485642879608989
0.431000000000000272,-9.232618763238074067
0.432000000000000273,-9.170744842739718905
0.433000000000000274,-9.108874598417665780
0.434000000000000274,-9.047018614259565439
0.435000000000000275,-8.985187336596277774
0.436000000000000276,-8.923391069770778117
0.437000000000000277,-8.861639972081356120
0.438000000000000278,-8.799944051992985905
0.439000000000000279,-8.738313164610664430
0.440000000000000280,-8.676757008408335636
0.441000000000000281,-8.615285122207135160
0.442000000000000282,-8.553906882396468347
0.443000000000000282,-8.492631500391444987
0.444000000000000283,-8.431468020320251000
0.445000000000000284,-8.370425316934881010
0.446000000000000285,-8.309512093738728566
0.447000000000000286,-8.248736881324685299
0.448000000000000287,-8.188108035916981109
0.449000000000000288,-8.127633738110676020
0.450000000000000289,-8.067321991802083758
0.451000000000000290,-8.007180623303963074
0.452000000000000290,-7.947217280639094383
0.453000000000000291,-7.887439433005988931
0.454000000000000292,-7.827854370410595841
0.455000000000000293,-7.768469203457831540
0.456000000000000294,-7.709290863296979879
0.457000000000000295,-7.650326101714969518
0.458000000000000296,-7.591581491371682588
0.459000000000000297,-7.533063426171564103
0.460000000000000298,-7.474778121765791816
0.461000000000000298,-7.416731616179534470
0.462000000000000299,-7.358929770558769512
0.463000000000000300,-7.301378270031285922
0.464000000000000301,-7.244082624676690507
0.465000000000000302,-7.187048170600228048
0.466000000000000303,-7.130280071105355333
0.467000000000000304,-7.073783317960200989
0.468000000000000305,-7.017562732753084731
0.469000000000000306,-6.961622968332361161
0.470000000000000306,-6.905968510326120580
0.471000000000000307,-6.850603678737078539
0.472000000000000308,-6.795532629608580066
0.473000000000000309,-6.740759356757187959
0.474000000000000310,-6.686287693567988910
0.475000000000000311,-6.632121314848395066
0.476000000000000312,-6.578263738736787047
0.477000000000000313,-6.524718328661927913
0.478000000000000314,-6.471488295349749009
0.479000000000000314,-6.418576698873802222
0.480000000000000315,-6.365986450745937830
0.481000000000000316,-6.313720316043951897
0.482000000000000317,-6.261780915572883188
0.483000000000000318,-6.210170728056885636
0.484000000000000319,-6.158892092358646764
0.485000000000000320,-6.107947209723445958
0.486000000000000321,-6.057338146045028182
0.487000000000000322,-6.007066834150587731
0.488000000000000322,-5.957135076102200166
0.489000000000000323,-5.907544545512318557
0.490000000000000324,-5.858296789870734322
0.491000000000000325,-5.809393232880844415
0.492000000000000326,-5.760835176802813429
0.493000000000000327,-5.712623804801674865
0.494000000000000328,-5.664760183298125362
0.495000000000000329,-5.617245264320199105
0.496000000000000330,-5.570079887853799150
0.497000000000000330,-5.523264784190390131
0.498000000000000331,-5.476800576270002274
0.499000000000000332,-5.430687782018052800
0.500000000000000333,-5.384926816674261651
0.501000000000000334,-5.339517995112228910
0.502000000000000335,-5.294461534148255488
0.503000000000000336,-5.249757554838057061
0.504000000000000337,-5.205406084760019425
0.505000000000000338,-5.161407060283845105
0.506000000000000338,-5.117760328823408145
0.507000000000000339,-5.074465651072711303
0.508000000000000340,-5.031522703223899384
0.509000000000000341,-4.988931079166462723
0.510000000000000342,-4.946690292666527711
0.511000000000000343,-4.904799779525563785
0.512000000000000344,-4.863258899717560091
0.513000000000000345,-4.822066939503994121
0.514000000000000346,-4.781223113525893353
0.515000000000000346,-4.740726566872274006
0.516000000000000347,-4.700576377124397354
0.517000000000000348,-4.660771556375315150
0.518000000000000349,-4.621311053224078869
0.519000000000000350,-4.582193754744265490
0.520000000000000351,-4.543418488426288704
0.521000000000000352,-4.504984024093169559
0.522000000000000353,-4.466889075789376662
0.523000000000000353,-4.429132303642387747
0.524000000000000354,-4.391712315696807423
0.525000000000000355,-4.354627669720623651
0.526000000000000356,-4.317876874983520352
0.527000000000000357,-4.281458394007037427
0.528000000000000358,-4.245370644286325934
0.529000000000000359,-4.209611999983538411
0.530000000000000360,-4.174180793592597638
0.531000000000000361,-4.139075317575384716
0.532000000000000361,-4.104293825969226539
0.533000000000000362,-4.069834535965703992
0.534000000000000363,-4.035695629460784417
0.535000000000000364,-4.001875254576253482
0.536000000000000365,-3.968371527152549927
0.537000000000000366,-3.935182532213046702
0.538000000000000367,-3.902306325399808706
0.539000000000000368,-3.869740934381067810
0.540000000000000369,-3.837484360230340119
0.541000000000000369,-3.805534578777518995
0.542000000000000370,-3.773889541931942482
0.543000000000000371,-3.742547178977678080
0.544000000000000372,-3.711505397841200704
0.545000000000000373,-3.680762086331638816
0.546000000000000374,-3.650315113353779672
0.547000000000000375,-3.620162330094088610
0.548000000000000376,-3.590301571179962625
0.549000000000000377,-3.560730655812434087
0.550000000000000377,-3.531447388872581250
0.551000000000000378,-3.502449562001911154
0.552000000000000379,-3.473734954656988894
0.553000000000000380,-3.445301335138563736
0.554000000000000381,-3.417146461595463425
0.555000000000000382,-3.389268083003627474
0.556000000000000383,-3.361663940120411809
0.557000000000000384,-3.334331766414661669
0.558000000000000385,-3.307269288972678023
0.559000000000000385,-3.280474229380513584
0.560000000000000386,-3.253944304582828018
0.561000000000000387,-3.227677227718687369
0.562000000000000388,-3.201670708934561738
0.563000000000000389,-3.175922456174895103
0.564000000000000390,-3.150430175950549749
0.565000000000000391,-3.125191574085455670
0.566000000000000392,-3.100204356441794040
0.567000000000000393,-3.075466229624064241
0.568000000000000393,-3.050974901662333316
0.569000000000000394,-3.026728082675012921
0.570000000000000395,-3.002723485511543000
0.571000000000000396,-2.978958826375223801
0.572000000000000397,-2.955431825426632297
0.573000000000000398,-2.932140207367868179
0.574000000000000399,-2.909081702008046388
0.575000000000000400,-2.886254044810280028
0.576000000000000401,-2.863654977420559966
0.577000000000000401,-2.841282248178843339
0.578000000000000402,-2.819133612612640505
0.579000000000000403,-2.797206833913470803
0.580000000000000404,-2.775499683396520645
0.581000000000000405,-2.754009940943784152
0.582000000000000406,-2.732735395431044267
0.583000000000000407,-2.711673845139003447
0.584000000000000408,-2.690823098148884984
0.585000000000000409,-2.670180972722811852
0.586000000000000409,-2.649745297669281463
0.587000000000000410,-2.629513912694066313
0.588000000000000411,-2.609484668736796298
0.589000000000000412,-2.589655428293594408
0.590000000000000413,-2.570024065726002060
0.591000000000000414,-2.550588467556539118
0.592000000000000415,-2.531346532751190814
0.593000000000000416,-2.512296172989068488
0.594000000000000417,-2.493435312919579427
0.595000000000000417,-2.474761890407414011
0.596000000000000418,-2.456273856765508690
0.597000000000000419,-2.437969176976455987
0.598000000000000420,-2.419845829902434353
0.599000000000000421,-2.401901808484094403
0.600000000000000422,-2.384135119928558311
0.601000000000000423,-2.366543785886855655
0.602000000000000424,-2.349125842621039073
0.603000000000000425,-2.331879341161227526
0.604000000000000425,-2.314802347452844966
0.605000000000000426,-2.297892942494287549
0.606000000000000427,-2.281149222465313819
0.607000000000000428,-2.264569298846275114
0.608000000000000429,-2.248151298528623165
0.609000000000000430,-2.231893363916706896
