# Au-001-PEG_BSAI10
# h[nm],U(h)[kJ/mol]
0.149999999999999994,74.881856076559088820
0.150999999999999995,72.957810462768975412
0.151999999999999996,71.159961301969389069
0.152999999999999997,69.424981370490428390
0.153999999999999998,67.722060719799088702
0.154999999999999999,66.039067245170215870
0.156000000000000000,64.373640929435765656
0.157000000000000001,62.727752969825964158
0.158000000000000002,61.104610744128763145
0.159000000000000002,59.507085178639940182
0.160000000000000003,57.937074725801473107
0.161000000000000004,56.395403828864360207
0.162000000000000005,54.881990919545515339
0.163000000000000006,53.396120145779320865
0.164000000000000007,51.936720314522958120
0.165000000000000008,50.502601144840177483
0.166000000000000009,49.092626846622053449
0.167000000000000010,47.705825057743865614
0.168000000000000010,46.341438988178637715
0.169000000000000011,44.998935009702307752
0.170000000000000012,43.677978916690399558
0.171000000000000013,42.378393095841985883
0.172000000000000014,41.100104855249760760
0.173000000000000015,39.843093813083847010
0.174000000000000016,38.607343925835643006
0.175000000000000017,37.392803666412262942
0.176000000000000018,36.199356147695361585
0.177000000000000018,35.026799656176038411
0.178000000000000019,33.874838095515720227
0.179000000000000020,32.743080198463147212
0.180000000000000021,31.631045993150223694
0.181000000000000022,30.538178849679933791
0.182000000000000023,29.463861431567927696
0.183000000000000024,28.407433986656023706
0.184000000000000025,27.368213593775873704
0.185000000000000026,26.345513202688220389
0.186000000000000026,25.338659540998889952
0.187000000000000027,24.347009194753194805
0.188000000000000028,23.369962386715730673
0.189000000000000029,22.406974170006598968
0.190000000000000030,21.457562920459544387
0.191000000000000031,20.521316147214633929
0.192000000000000032,19.597893748090417176
0.193000000000000033,18.687028916009229107
0.194000000000000034,17.788526957875930634
0.195000000000000034,16.902262321014884350
0.196000000000000035,16.028174137928932197
0.197000000000000036,15.166260601102248273
0.198000000000000037,14.316572468990040434
0.199000000000000038,13.479205985111580191
0.200000000000000039,12.654295466843638707
0.201000000000000040,11.842005791294866412
0.202000000000000041,11.042524974367928792
0.203000000000000042,10.256057007280929838
0.204000000000000042,9.482815083599220429
0.205000000000000043,8.723015320119699822
0.206000000000000044,7.976871047392239511
0.207000000000000045,7.244587720691599841
0.208000000000000046,6.526358480118925165
0.209000000000000047,5.822360369322638896
0.210000000000000048,5.132751206077593942
0.211000000000000049,4.457667084553472492
0.212000000000000050,3.797220478374891961
0.213000000000000050,3.151498905325277988
0.214000000000000051,2.520564108532898473
0.215000000000000052,1.904451704954896796
0.216000000000000053,1.303171249685667332
0.217000000000000054,0.716706663809135947
0.218000000000000055,0.145016973948655481
0.219000000000000056,-0.411962686880955442
0.220000000000000057,-0.954319865260472078
0.221000000000000058,-1.482163405457055383
0.222000000000000058,-1.995621941561827484
0.223000000000000059,-2.494842301989157463
0.224000000000000060,-2.979987860851248893
0.225000000000000061,-3.451236866851837615
0.226000000000000062,-3.908780776494501730
0.227000000000000063,-4.352822614648138355
0.228000000000000064,-4.783575381910457835
0.229000000000000065,-5.201260524807265639
0.230000000000000066,-5.606106481689023369
0.231000000000000066,-5.998347314263170027
0.232000000000000067,-6.378221432040665384
0.233000000000000068,-6.745970414585782393
0.234000000000000069,-7.101837934338536051
0.235000000000000070,-7.446068780923172703
0.236000000000000071,-7.778907986254776752
0.237000000000000072,-8.100600048397444297
0.238000000000000073,-8.411388250995301519
0.239000000000000073,-8.711514074175919831
0.240000000000000074,-9.001216692099117012
0.241000000000000075,-9.280732551770958239
0.242000000000000076,-9.550295027348514765
0.243000000000000077,-9.810134143906433124
0.244000000000000078,-10.060476364504612690
0.245000000000000079,-10.301544434370960346
0.246000000000000080,-10.533557276078909126
0.247000000000000081,-10.756729929742254726
0.248000000000000081,-10.971273532455104061
0.249000000000000082,-11.177395331461596584
0.250000000000000111,-11.375298725836870517
0.251000000000000112,-11.565183331786771603
0.252000000000000113,-11.747245067022564768
0.253000000000000114,-11.921676250026363775
0.254000000000000115,-12.088665710391703456
0.255000000000000115,-12.248398906790615825
0.256000000000000116,-12.401058049482561074
0.257000000000000117,-12.546822224635475251
0.258000000000000118,-12.685867518071500371
0.259000000000000119,-12.818367136378421733
0.260000000000000120,-12.944491523638754771
0.261000000000000121,-13.064408472320604204
0.262000000000000122,-13.178283227147378653
0.263000000000000123,-13.286278581015443123
0.264000000000000123,-13.388554962260496239
0.265000000000000124,-13.485270512783699814
0.266000000000000125,-13.576581156739113254
0.267000000000000126,-13.662640659653238373
0.268000000000000127,-13.743600677998575321
0.269000000000000128,-13.819610799374022037
0.270000000000000129,-13.890818573559247540
0.271000000000000130,-13.957369534807019917
0.272000000000000131,-14.019407215818592505
0.273000000000000131,-14.077073153913895354
0.274000000000000132,-14.130506889960978256
0.275000000000000133,-14.179845960669762661
0.276000000000000134,-14.225225884884199701
0.277000000000000135,-14.266780144525423424
0.278000000000000136,-14.304640160848412833
0.279000000000000137,-14.338935266675557401
0.280000000000000138,-14.369792675264879023
0.281000000000000139,-14.397337446458120525
0.282000000000000139,-14.421692450736241398
0.283000000000000140,-14.442978331787504231
0.284000000000000141,-14.461313468166769880
0.285000000000000142,-14.476813934595517352
0.286000000000000143,-14.489593463419657482
0.287000000000000144,-14.499763406708311209
0.288000000000000145,-14.507432699441684676
0.289000000000000146,-14.512707824199088336
0.290000000000000147,-14.515692777722074780
0.291000000000000147,-14.516489039690156915
0.292000000000000148,-14.515195544010287776
0.293000000000000149,-14.511908652884637050
0.294000000000000150,-14.506722133886352566
0.295000000000000151,-14.499727140238210410
0.296000000000000152,-14.491012194456004636
0.297000000000000153,-14.480663175486967020
0.298000000000000154,-14.468763309442703502
0.299000000000000155,-14.455393163997925399
0.300000000000000155,-14.440630646498750167
0.301000000000000156,-14.424551005799212788
0.302000000000000157,-14.407226837820900300
0.303000000000000158,-14.388728094808683977
0.304000000000000159,-14.369122098235667551
0.305000000000000160,-14.348473555291599624
0.306000000000000161,-14.326844578872856673
0.307000000000000162,-14.304294710976700244
0.308000000000000163,-14.280880949389407775
0.309000000000000163,-14.256657777545820309
0.310000000000000164,-14.231677197427895720
0.311000000000000165,-14.205988765360720194
0.312000000000000166,-14.179639630557232977
0.313000000000000167,-14.152674576256689676
0.314000000000000168,-14.125136063296912070
0.315000000000000169,-14.097064275956919133
0.316000000000000170,-14.068497169903656285
0.317000000000000171,-14.039470522075074399
0.318000000000000171,-14.010017982331097741
0.319000000000000172,-13.980171126704220796
0.320000000000000173,-13.949959512082619639
0.321000000000000174,-13.919410732160127253
0.322000000000000175,-13.888550474490113373
0.323000000000000176,-13.857402578483085875
0.324000000000000177,-13.825989094191601936
0.325000000000000178,-13.794330341729684974
0.326000000000000179,-13.762444971178917186
0.327000000000000179,-13.730350022837578550
0.328000000000000180,-13.698060987674711697
0.329000000000000181,-13.665591867856212716
0.330000000000000182,-13.632955237215488964
0.331000000000000183,-13.600162301547218391
0.332000000000000184,-13.567222958608351036
0.333000000000000185,-13.534145857716683992
0.334000000000000186,-13.500938458843180001
0.335000000000000187,-13.467607091100436634
0.336000000000000187,-13.434157010535676235
0.337000000000000188,-13.400592457142556313
0.338000000000000189,-13.366916711012351016
0.339000000000000190,-13.333132147550776025
0.340000000000000191,-13.299240291692402849
0.341000000000000192,-13.265241871050829303
0.342000000000000193,-13.231136867947693503
0.343000000000000194,-13.196924570269649379
0.344000000000000195,-13.162603621107297869
0.345000000000000195,-13.128172067135531975
0.346000000000000196,-13.093627405699432842
0.347000000000000197,-13.058966630574877499
0.348000000000000198,-13.024186276377509586
0.349000000000000199,-12.989282461598193663
0.350000000000000200,-12.954250930247260598
0.351000000000000201,-12.919087092094020619
0.352000000000000202,-12.883786061491687036
0.353000000000000203,-12.848342694781672790
0.354000000000000203,-12.812751626274692995
0.355000000000000204,-12.777007302809174405
0.356000000000000205,-12.741104016890817618
0.357000000000000206,-12.705035938420005337
0.358000000000000207,-12.668797145016213790
0.359000000000000208,-12.632381650951511887
0.360000000000000209,-12.595783434707287896
0.361000000000000210,-12.558996465170706003
0.362000000000000210,-12.522014726489272718
0.363000000000000211,-12.484832241603847081
0.364000000000000212,-12.447443094482190773
0.365000000000000213,-12.409841451076461638
0.366000000000000214,-12.372021579029730987
0.367000000000000215,-12.333977866157653125
0.368000000000000216,-12.295704837732701620
0.369000000000000217,-12.257197172599196833
0.370000000000000218,-12.218449718148455929
0.371000000000000218,-12.179457504183821115
0.372000000000000219,-12.140215755706320166
0.373000000000000220,-12.100719904651972669
0.374000000000000221,-12.060965600612288284
0.375000000000000222,-12.020948720569782253
0.376000000000000223,-11.980665377680685069
0.377000000000000224,-11.940111929137017910
0.378000000000000225,-11.899284983140386629
0.379000000000000226,-11.858181405019740495
0.380000000000000226,-11.816798322525567499
0.381000000000000227,-11.775133130332189779
0.382000000000000228,-11.733183493780531492
0.383000000000000229,-11.690947351892660322
0.384000000000000230,-11.648422919689510380
0.385000000000000231,-11.605608689842863868
0.386000000000000232,-11.562503433691917465
0.387000000000000233,-11.519106201654759403
0.388000000000000234,-11.475416323064177249
0.389000000000000234,-11.431433405457124053
0.390000000000000235,-11.387157333346122456
0.391000000000000236,-11.342588266500868599
0.392000000000000237,-11.297726637767159019
0.393000000000000238,-11.252573150450169592
0.394000000000000239,-11.207128775287896971
0.395000000000000240,-11.161394747040549902
0.396000000000000241,-11.115372560720455652
0.397000000000000242,-11.069063967486734157
0.398000000000000242,-11.022470970228168241
0.399000000000000243,-10.975595818856969998
0.400000000000000244,-10.928441005335510994
0.401000000000000245,-10.881009258457471134
0.402000000000000246,-10.833303538403914246
0.403000000000000247,-10.785327031094302797
0.404000000000000248,-10.737083142351766085
0.405000000000000249,-10.688575491901122660
0.406000000000000250,-10.639807907217534222
0.407000000000000250,-10.590784417243025217
0.408000000000000251,-10.541509245987318977
0.409000000000000252,-10.491986806028936741
0.410000000000000253,-10.442221691931619532
0.411000000000000254,-10.392218673590743805
0.412000000000000255,-10.341982689523508299
0.413000000000000256,-10.291518840116266276
0.414000000000000257,-10.240832380841581539
0.415000000000000258,-10.189928715457110542
0.416000000000000258,-10.138813389197716575
0.417000000000000259,-10.087492081971749514
0.418000000000000260,-10.035970601571781557
0.419000000000000261,-9.984254876909513854
0.420000000000000262,-9.932350951284174556
0.421000000000000263,-9.880264975693055618
0.422000000000000264,-9.828003202192334697
0.423000000000000265,-9.775571977315939520
0.424000000000000266,-9.722977735559716450
0.425000000000000266,-9.670226992937500654
0.426000000000000267,-9.617326340615543145
0.427000000000000268,-9.564282438631057204
0.428000000000000269,-9.511102009700369564
0.429000000000000270,-9.457791833121707015
0.430000000000000271,-9.404358738777199633
0.431000000000000272,-9.350809601238449176
0.432000000000000273,-9.297151333979455146
0.433000000000000274,-9.243390883700531191
0.434000000000000274,-9.189535224766316901
0.435000000000000275,-9.135591353760826649
0.436000000000000276,-9.081566284162105873
0.437000000000000277,-9.027467041138670822
0.438000000000000278,-8.973300656469781700
0.439000000000000279,-8.919074163591279358
0.440000000000000280,-8.864794592768314274
0.441000000000000281,-8.810468966396246771
0.442000000000000282,-8.756104294430674173
0.443000000000000282,-8.701707569947229715
0.444000000000000283,-8.647285764831742938
0.445000000000000284,-8.592845825601044041
0.446000000000000285,-8.538394669354438804
0.447000000000000286,-8.483939179855969570
0.448000000000000287,-8.429486203746952455
0.449000000000000288,-8.375042546888636252
0.450000000000000289,-8.320614970834194324
0.451000000000000290,-8.266210189429473942
0.452000000000000290,-8.211834865541597139
0.453000000000000291,-8.157495607914412972
0.454000000000000292,-8.103198968149738945
0.455000000000000293,-8.048951437813103738
0.456000000000000294,-7.994759445662768194
0.457000000000000295,-7.940629355000507594
0.458000000000000296,-7.886567461142677260
0.459000000000000297,-7.832579989010016952
0.460000000000000298,-7.778673090834392845
0.461000000000000298,-7.724852843980892558
0.462000000000000299,-7.671125248883330805
0.463000000000000300,-7.617496227091346661
0.464000000000000301,-7.563971619427192650
0.465000000000000302,-7.510557184250226115
0.466000000000000303,-7.457258595827052083
0.467000000000000304,-7.404081442805325430
0.468000000000000305,-7.351031226789094930
0.469000000000000306,-7.298113361013562894
0.470000000000000306,-7.245333169117185612
0.471000000000000307,-7.192695884008839080
0.472000000000000308,-7.140206646828012538
0.473000000000000309,-7.087870505995715220
0.474000000000000310,-7.035692416354008216
0.475000000000000311,-6.983677238391811315
0.476000000000000312,-6.931829737555013082
0.477000000000000313,-6.880154583638377730
0.478000000000000314,-6.828656350257295671
0.479000000000000314,-6.777339514397044518
0.480000000000000315,-6.726208456037392480
0.481000000000000316,-6.675267457850418751
0.482000000000000317,-6.624520704969276252
0.483000000000000318,-6.573972284825852164
0.484000000000000319,-6.523626187055093339
0.485000000000000320,-6.473486303463971581
0.486000000000000321,-6.423556428062897616
0.487000000000000322,-6.373840257157579181
0.488000000000000322,-6.324341389499172017
0.489000000000000323,-6.275063326490853299
0.490000000000000324,-6.226009472448638782
0.491000000000000325,-6.177183134914571383
0.492000000000000326,-6.128587525020278370
0.493000000000000327,-6.080225757899031080
0.494000000000000328,-6.032100853144343411
0.495000000000000329,-5.984215735313314966
0.496000000000000330,-5.936573234472822591
0.497000000000000330,-5.889176086786845232
0.498000000000000331,-5.842026935143016964
0.499000000000000332,-5.795128329816873425
0.500000000000000333,-5.748482729171891847
0.501000000000000334,-5.702092500393765917
0.502000000000000335,-5.655959920257267903
0.503000000000000336,-5.610087175924087788
0.504000000000000337,-5.564476365770075539
0.505000000000000338,-5.519129500240362418
0.506000000000000338,-5.474048502730883392
0.507000000000000339,-5.429235210494784525
0.508000000000000340,-5.384691375572342231
0.509000000000000341,-5.340418665743006166
0.510000000000000342,-5.296418665498125122
0.511000000000000343,-5.252692877033133811
0.512000000000000344,-5.209242721257821174
0.513000000000000345,-5.166069538823482965
0.514000000000000346,-5.123174591165714276
0.515000000000000346,-5.080559061561647383
0.516000000000000347,-5.038224056200437673
0.517000000000000348,-4.996170605266003761
0.518000000000000349,-4.954399664030722406
0.519000000000000350,-4.912912113959235327
0.520000000000000351,-4.871708763821160026
0.521000000000000352,-4.830790350811840383
0.522000000000000353,-4.790157541680068576
0.523000000000000353,-4.749810933861889239
0.524000000000000354,-4.709751056619622567
0.525000000000000355,-4.669978372185100923
0.526000000000000356,-4.630493276906419098
0.527000000000000357,-4.591296102397295797
0.528000000000000358,-4.552387116688229263
0.529000000000000359,-4.513766525378786199
0.530000000000000360,-4.475434472790183804
0.531000000000000361,-4.437391043117518308
0.532000000000000361,-4.399636261580931240
0.533000000000000362,-4.362170095575050865
0.534000000000000363,-4.324992455816129677
0.535000000000000364,-4.288103197486163864
0.536000000000000365,-4.251502121373529341
0.537000000000000366,-4.215188975009521499
0.538000000000000367,-4.179163453800211592
0.539000000000000368,-4.143425202153235176
0.540000000000000369,-4.107973814598872231
0.541000000000000369,-4.072808836905080554
0.542000000000000370,-4.037929767185947760
0.543000000000000371,-4.003336057003148873
0.544000000000000372,-3.969027112460062678
0.545000000000000373,-3.935002295288070773
0.546000000000000374,-3.901260923924733337
0.547000000000000375,-3.867802274583451716
0.548000000000000376,-3.834625582314346470
0.549000000000000377,-3.801730042055975645
0.550000000000000377,-3.769114809677598821
0.551000000000000378,-3.736779003011760913
0.552000000000000379,-3.704721702876894174
0.553000000000000380,-3.672941954089691485
0.554000000000000381,-3.641438766467008037
0.555000000000000382,-3.610211115817153704
0.556000000000000383,-3.579257944920226642
0.557000000000000384,-3.548578164497467213
0.558000000000000385,-3.518170654169319622
0.559000000000000385,-3.488034263402144397
0.560000000000000386,-3.458167812443353029
0.561000000000000387,-3.428570093244892369
0.562000000000000388,-3.399239870374909600
0.563000000000000389,-3.370175881917519600
0.564000000000000390,-3.341376840360557487
0.565000000000000391,-3.312841433471218178
0.566000000000000392,-3.284568325159540336
0.567000000000000393,-3.256556156329629026
0.568000000000000393,-3.228803545718572643
0.569000000000000394,-3.201309090722997297
0.570000000000000395,-3.174071368213270183
0.571000000000000396,-3.147088935335200510
0.572000000000000397,-3.120360330299388529
0.573000000000000398,-3.093884073158023718
0.574000000000000399,-3.067658666569290649
0.575000000000000400,-3.041682596549250661
0.576000000000000401,-3.015954333211304128
0.577000000000000401,-2.990472331493207570
0.578000000000000402,-2.965235031871652716
0.579000000000000403,-2.940240861064467914
0.580000000000000404,-2.915488232720476525
0.581000000000000405,-2.890975548097029169
0.582000000000000406,-2.866701196725263134
0.583000000000000407,-2.842663557063163093
0.584000000000000408,-2.818860997136459545
0.585000000000000409,-2.795291875167426277
0.586000000000000409,-2.771954540191646998
0.587000000000000410,-2.748847332662847975
0.588000000000000411,-2.725968585045815740
0.589000000000000412,-2.703316622397548663
0.590000000000000413,-2.680889762936653042
0.591000000000000414,-2.658686318601135135
0.592000000000000415,-2.636704595594657086
0.593000000000000416,-2.614942894921314043
0.594000000000000417,-2.593399512909076776
0.595000000000000417,-2.572072741722029043
0.596000000000000418,-2.550960869861352620
0.597000000000000419,-2.530062182655391734
0.598000000000000420,-2.509374962738681880
0.599000000000000421,-2.488897490520213029
0.600000000000000422,-2.468628044640947206
0.601000000000000423,-2.448564902420756972
0.602000000000000424,-2.428706340294855881
0.603000000000000425,-2.409050634239878086
0.604000000000000425,-2.389596060189695947
0.605000000000000426,-2.370340894441105739
0.606000000000000427,-2.351283414049539555
0.607000000000000428,-2.332421897214805195
0.608000000000000429,-2.313754623657176435
0.609000000000000430,-2.295279874983729318
