# Au-001-PEG_BSAI11
# h[nm],U(h)[kJ/mol]
0.149999999999999994,83.648280945384811957
0.150999999999999995,81.597517661654507037
0.151999999999999996,79.391122117824863835
0.152999999999999997,77.175386067547805169
0.153999999999999998,75.004637182984723154
0.154999999999999999,72.890837212376126786
0.156000000000000000,70.829659381949696240
0.157000000000000001,68.813059500295253201
0.158000000000000002,66.834454086224766911
0.159000000000000002,64.890131072921974464
0.160000000000000003,62.978961326682473043
0.161000000000000004,61.101526882318353273
0.162000000000000005,59.259216949361018578
0.163000000000000006,57.453521512351031220
0.164000000000000007,55.685580703166067451
0.165000000000000008,53.955965498987893625
0.166000000000000009,52.264633389621806714
0.167000000000000010,50.610997789991401419
0.168000000000000010,48.994057963415293955
0.169000000000000011,47.412548930399950109
0.170000000000000012,45.865083895965696570
0.171000000000000013,44.350273046121984066
0.172000000000000014,42.866811375404516582
0.173000000000000015,41.413534469011580086
0.174000000000000016,39.989445185160917617
0.175000000000000017,38.593716411914464004
0.176000000000000018,37.225675968634007518
0.177000000000000018,35.884779699366930572
0.178000000000000019,34.570578205342897604
0.179000000000000020,33.282681750430938905
0.180000000000000021,32.020726839239699757
0.181000000000000022,30.784346943910311012
0.182000000000000023,29.573148925094518091
0.183000000000000024,28.386695900477512566
0.184000000000000025,27.224496678914476888
0.185000000000000026,26.086001399768520059
0.186000000000000026,24.970602683575322089
0.187000000000000027,23.877641393242811318
0.188000000000000028,22.806416003142395255
0.189000000000000029,21.756194554727617430
0.190000000000000030,20.726228220989632689
0.191000000000000031,19.715765589577188166
0.192000000000000032,18.724066889898999477
0.193000000000000033,17.750417519936664945
0.194000000000000034,16.794140363521705694
0.195000000000000034,15.854606520673405257
0.196000000000000035,14.931244196676138003
0.197000000000000036,14.023545606187033385
0.198000000000000037,13.131071844639894408
0.199000000000000038,12.253455759599367170
0.200000000000000039,11.390402919509005741
0.201000000000000040,10.541690827132804031
0.202000000000000041,9.707166561056100207
0.203000000000000042,8.886743052327858550
0.204000000000000042,8.080394216290134324
0.205000000000000043,7.288149163508363060
0.206000000000000044,6.510085710108830526
0.207000000000000045,5.746323398290892115
0.208000000000000046,4.997016223725767148
0.209000000000000047,4.262345249250108381
0.210000000000000048,3.542511264822425510
0.211000000000000049,2.837727633083613643
0.212000000000000050,2.148213438839442713
0.213000000000000050,1.474187040012228334
0.214000000000000051,0.815860097594533373
0.215000000000000052,0.173432143270427719
0.216000000000000053,-0.452914274073160983
0.217000000000000054,-1.063017837554215861
0.218000000000000055,-1.656742095944146786
0.219000000000000056,-2.233978482827234213
0.220000000000000057,-2.794648732939523761
0.221000000000000058,-3.338706716247372697
0.222000000000000058,-3.866139717603324755
0.223000000000000059,-4.376969195576224436
0.224000000000000060,-4.871251058422108926
0.225000000000000061,-5.349075498270353890
0.226000000000000062,-5.810566426581605270
0.227000000000000063,-6.255880554927410131
0.228000000000000064,-6.685206165277636003
0.229000000000000065,-7.098761613391131320
0.230000000000000066,-7.496793607704484330
0.231000000000000066,-7.879575304419977222
0.232000000000000067,-8.247404257405126060
0.233000000000000068,-8.600600259129425496
0.234000000000000069,-8.939503106259836684
0.235000000000000070,-9.264470320789973456
0.236000000000000071,-9.575874854751688758
0.237000000000000072,-9.874102803708797893
0.238000000000000073,-10.159551151405365133
0.239000000000000073,-10.432625565174898696
0.240000000000000074,-10.693738259045209915
0.241000000000000075,-10.943305938918530984
0.242000000000000076,-11.181747841789611897
0.243000000000000077,-11.409483878699475667
0.244000000000000078,-11.626932889018272377
0.245000000000000079,-11.834511011713802375
0.246000000000000080,-12.032630177494592516
0.247000000000000081,-12.221696724118556787
0.248000000000000081,-12.402110135725790130
0.249000000000000082,-12.574261905783938431
0.250000000000000111,-12.738534522119936199
0.251000000000000112,-12.895300571544776602
0.252000000000000113,-13.044921960752196455
0.253000000000000114,-13.187749249475075430
0.254000000000000115,-13.324121091310541232
0.255000000000000115,-13.454363777162180682
0.256000000000000116,-13.578790875889191980
0.257000000000000117,-13.697702966486648535
0.258000000000000118,-13.811387455939314606
0.259000000000000119,-13.920118476785367179
0.260000000000000120,-14.024156858387339497
0.261000000000000121,-14.123750165926100664
0.262000000000000122,-14.219132801204736438
0.263000000000000123,-14.310526159462913398
0.264000000000000123,-14.398138836554014830
0.265000000000000124,-14.482166881019926663
0.266000000000000125,-14.562794085806576305
0.267000000000000126,-14.640192314591763179
0.268000000000000127,-14.714521857941416982
0.269000000000000128,-14.785931814766147596
0.270000000000000129,-14.854560494813753735
0.271000000000000130,-14.920535838201891110
0.272000000000000131,-14.983975848264929454
0.273000000000000131,-15.044989034258254179
0.274000000000000132,-15.103674860728958151
0.275000000000000133,-15.160124200623419810
0.276000000000000134,-15.214419789456224308
0.277000000000000135,-15.266636678111689562
0.278000000000000136,-15.316842682086903693
0.279000000000000137,-15.365098825212967881
0.280000000000000138,-15.411459776108554109
0.281000000000000139,-15.455974275826253717
0.282000000000000139,-15.498685555347426757
0.283000000000000140,-15.539631741765116857
0.284000000000000141,-15.578846252166560049
0.285000000000000142,-15.616358174387849900
0.286000000000000143,-15.652192633962698665
0.287000000000000144,-15.686371146725331727
0.288000000000000145,-15.718911956655526652
0.289000000000000146,-15.749830358670021013
0.290000000000000147,-15.779139006172126614
0.291000000000000147,-15.806848203267563235
0.292000000000000148,-15.832966181643044479
0.293000000000000149,-15.857499362182348790
0.294000000000000150,-15.880452601465341544
0.295000000000000151,-15.901829423357805027
0.296000000000000152,-15.921632235954879420
0.297000000000000153,-15.939862534189057186
0.298000000000000154,-15.956521088454769242
0.299000000000000155,-15.971608119637375367
0.300000000000000155,-15.985123460963762909
0.301000000000000156,-15.997066707116227136
0.302000000000000157,-16.007437351071253318
0.303000000000000158,-16.016234909139722475
0.304000000000000159,-16.023459034696692527
0.305000000000000160,-16.029109621096129246
0.306000000000000161,-16.033186894270585299
0.307000000000000162,-16.035691495516939398
0.308000000000000163,-16.036624554968007317
0.309000000000000163,-16.035987756246065317
0.310000000000000164,-16.033783392788695465
0.311000000000000165,-16.030014416329176896
0.312000000000000166,-16.024684478005056576
0.313000000000000167,-16.017797962557168034
0.314000000000000168,-16.009360016069901889
0.315000000000000169,-15.999376567690404727
0.316000000000000170,-15.987854345750985630
0.317000000000000171,-15.974800888704228541
0.318000000000000171,-15.960224551265588033
0.319000000000000172,-15.944134506143214480
0.320000000000000173,-15.926540741718648420
0.321000000000000174,-15.907454056026711697
0.322000000000000175,-15.886886047366953534
0.323000000000000176,-15.864849101863237379
0.324000000000000177,-15.841356378272365646
0.325000000000000178,-15.816421790327044761
0.326000000000000179,-15.790059986883363763
0.327000000000000179,-15.762286330127627920
0.328000000000000180,-15.733116872082883120
0.329000000000000181,-15.702568329641186651
0.330000000000000182,-15.670658058333184925
0.331000000000000183,-15.637404025033777799
0.332000000000000184,-15.602824779788779352
0.333000000000000185,-15.566939426935274327
0.334000000000000186,-15.529767595675963321
0.335000000000000187,-15.491329410256042820
0.336000000000000187,-15.451645459880097633
0.337000000000000188,-15.410736768495373994
0.338000000000000189,-15.368624764557907270
0.339000000000000190,-15.325331250887860080
0.340000000000000191,-15.280878374711168277
0.341000000000000192,-15.235288597975976899
0.342000000000000193,-15.188584668023512592
0.343000000000000194,-15.140789588685516165
0.344000000000000195,-15.091926591872541152
0.345000000000000195,-15.042019109710684788
0.346000000000000196,-14.991090747277254991
0.347000000000000197,-14.939165255980066505
0.348000000000000198,-14.886266507618937993
0.349000000000000199,-14.832418469162510277
0.350000000000000200,-14.777645178268628001
0.351000000000000201,-14.721970719571476849
0.352000000000000202,-14.665419201754422929
0.353000000000000203,-14.608014735423481056
0.354000000000000203,-14.549781411792363173
0.355000000000000204,-14.490743282186679508
0.356000000000000205,-14.430924338371642790
0.357000000000000206,-14.370348493704819148
0.358000000000000207,-14.309039565112346537
0.359000000000000208,-14.247021255885178093
0.360000000000000209,-14.184317139289234433
0.361000000000000210,-14.120950642981465961
0.362000000000000210,-14.056945034222133373
0.363000000000000211,-13.992323405871740505
0.364000000000000212,-13.927108663159902591
0.365000000000000213,-13.861323511211864457
0.366000000000000214,-13.794990443317459494
0.367000000000000215,-13.728131729926209559
0.368000000000000216,-13.660769408351484344
0.369000000000000217,-13.592925273165880284
0.370000000000000218,-13.524620867269382174
0.371000000000000218,-13.455877473611380424
0.372000000000000219,-13.386716107547211863
0.373000000000000220,-13.317157509809657512
0.374000000000000221,-13.247222140075503916
0.375000000000000222,-13.176930171107176903
0.376000000000000223,-13.106301483449527723
0.377000000000000224,-13.035355660661574362
0.378000000000000225,-12.964111985063373922
0.379000000000000226,-12.892589433978013602
0.380000000000000226,-12.820806676449205241
0.381000000000000227,-12.748782070414780065
0.382000000000000228,-12.676533660317037544
0.383000000000000229,-12.604079175130902257
0.384000000000000230,-12.531436026791165972
0.385000000000000231,-12.458621309000729838
0.386000000000000232,-12.385651796401642599
0.387000000000000233,-12.312543944091641990
0.388000000000000234,-12.239313887468812325
0.389000000000000234,-12.165977442387868379
0.390000000000000235,-12.092550105611559630
0.391000000000000236,-12.019047055541509650
0.392000000000000237,-11.945483153212952843
0.393000000000000238,-11.871872943538559042
0.394000000000000239,-11.798230656786687476
0.395000000000000240,-11.724570210280228721
0.396000000000000241,-11.650905210302335391
0.397000000000000242,-11.577248954195940911
0.398000000000000242,-11.503614432644535981
0.399000000000000243,-11.430014332121896103
0.400000000000000244,-11.356461037499013145
0.401000000000000245,-11.282966634797062966
0.402000000000000246,-11.209542914075438347
0.403000000000000247,-11.136201372444450186
0.404000000000000248,-11.062953217192724509
0.405000000000000249,-10.989809369019756247
0.406000000000000250,-10.916780465364325892
0.407000000000000250,-10.843876863820181455
0.408000000000000251,-10.771108645630439682
0.409000000000000252,-10.698485619252869228
0.410000000000000253,-10.626017323988296681
0.411000000000000254,-10.553713033664962495
0.412000000000000255,-10.481581760371872392
0.413000000000000256,-10.409632258234642777
0.414000000000000257,-10.337873027227441725
0.415000000000000258,-10.266312317015312772
0.416000000000000258,-10.194958130821138553
0.417000000000000259,-10.123818229311940087
0.418000000000000260,-10.052900134499573426
0.419000000000000261,-9.982211133650990220
0.420000000000000262,-9.911758283203639053
0.421000000000000263,-9.841548412681827784
0.422000000000000264,-9.771588128609991486
0.423000000000000265,-9.701883818419210215
0.424000000000000266,-9.632441654343496751
0.425000000000000266,-9.563267597302546719
0.426000000000000267,-9.494367400767885101
0.427000000000000268,-9.425746614609591845
0.428000000000000269,-9.357410588920918926
0.429000000000000270,-9.289364477818338628
0.430000000000000271,-9.221613243214699551
0.431000000000000272,-9.154161658563417348
0.432000000000000273,-9.087014312571653818
0.433000000000000274,-9.020175612880787952
0.434000000000000274,-8.953649789712370577
0.435000000000000275,-8.887440899478193046
0.436000000000000276,-8.821552828352988485
0.437000000000000277,-8.755989295808495498
0.438000000000000278,-8.690753858107813201
0.439000000000000279,-8.625849911758979971
0.440000000000000280,-8.561280696926832690
0.441000000000000281,-8.497049300802387961
0.442000000000000282,-8.433158660928983252
0.443000000000000282,-8.369611568484565112
0.444000000000000283,-8.306410671519618205
0.445000000000000284,-8.243558478150202262
0.446000000000000285,-8.181057359705768306
0.447000000000000286,-8.118909553831510806
0.448000000000000287,-8.057117167544811664
0.449000000000000288,-7.995682180245867521
0.450000000000000289,-7.934606446682181513
0.451000000000000290,-7.873891699866947036
0.452000000000000290,-7.813539553951312833
0.453000000000000291,-7.753551507050545410
0.454000000000000292,-7.693928944024240657
0.455000000000000293,-7.634673139210619297
0.456000000000000294,-7.575785259115185966
0.457000000000000295,-7.517266365053886901
0.458000000000000296,-7.459117415751036262
0.459000000000000297,-7.401339269892309503
0.460000000000000298,-7.343932688633062256
0.461000000000000298,-7.286898338062347769
0.462000000000000299,-7.230236791622992598
0.463000000000000300,-7.173948532488056529
0.464000000000000301,-7.118033955894146558
0.465000000000000302,-7.062493371431995293
0.466000000000000303,-7.007327005294675004
0.467000000000000304,-6.952535002483974935
0.468000000000000305,-6.898117428975396592
0.469000000000000306,-6.844074273842172040
0.470000000000000306,-6.790405451338958009
0.471000000000000307,-6.737110802945482035
0.472000000000000308,-6.684190099370859173
0.473000000000000309,-6.631643042518969189
0.474000000000000310,-6.579469267415449352
0.475000000000000311,-6.527668344096802855
0.476000000000000312,-6.476239779462281021
0.477000000000000313,-6.425183019088843928
0.478000000000000314,-6.374497449009945527
0.479000000000000314,-6.324182397458582017
0.480000000000000315,-6.274237136575148810
0.481000000000000316,-6.224660884080668311
0.482000000000000317,-6.175452804915907201
0.483000000000000318,-6.126612012846928579
0.484000000000000319,-6.078137572037595859
0.485000000000000320,-6.030028498589605768
0.486000000000000321,-5.982283762050547793
0.487000000000000322,-5.934902286890500811
0.488000000000000322,-5.887882953947709552
0.489000000000000323,-5.841224601843903130
0.490000000000000324,-5.794926028369685511
0.491000000000000325,-5.748985991840614318
0.492000000000000326,-5.703403212424313473
0.493000000000000327,-5.658176373439347984
0.494000000000000328,-5.613304122626136206
0.495000000000000329,-5.568785073390543516
0.496000000000000330,-5.524617806020548194
0.497000000000000330,-5.480800868876541720
0.498000000000000331,-5.437332779555623219
0.499000000000000332,-5.394212026030516860
0.500000000000000333,-5.351437067763408884
0.501000000000000334,-5.309006336795263792
0.502000000000000335,-5.266918238811021169
0.503000000000000336,-5.225171154181171396
0.504000000000000337,-5.183763438980068194
0.505000000000000338,-5.142693425981454070
0.506000000000000338,-5.101959425631649836
0.507000000000000339,-5.061559727000748410
0.508000000000000340,-5.021492598712280930
0.509000000000000341,-4.981756289851778874
0.510000000000000342,-4.942349030854550129
0.511000000000000343,-4.903269034373136215
0.512000000000000344,-4.864514496124789034
0.513000000000000345,-4.826083595719383723
0.514000000000000346,-4.787974497468104218
0.515000000000000346,-4.750185351173292325
0.516000000000000347,-4.712714292899791602
0.517000000000000348,-4.675559445728219465
0.518000000000000349,-4.638718920490353170
0.519000000000000350,-4.602190816487185643
0.520000000000000351,-4.565973222189783520
0.521000000000000352,-4.530064215923440329
0.522000000000000353,-4.494461866535325534
0.523000000000000353,-4.459164234046011366
0.524000000000000354,-4.424169370285214953
0.525000000000000355,-4.389475319511968898
0.526000000000000356,-4.355080119019612006
0.527000000000000357,-4.320981799725876371
0.528000000000000358,-4.287178386748297321
0.529000000000000359,-4.253667899965348553
0.530000000000000360,-4.220448354563457016
0.531000000000000361,-4.187517761570270558
0.532000000000000361,-4.154874128374396847
0.533000000000000362,-4.122515459231886226
0.534000000000000363,-4.090439755759748053
0.535000000000000364,-4.058645017416699474
0.536000000000000365,-4.027129241971449503
0.537000000000000366,-3.995890425958763981
0.538000000000000367,-3.964926565123481517
0.539000000000000368,-3.934235654852836550
0.540000000000000369,-3.903815690597204568
0.541000000000000369,-3.873664668279578116
0.542000000000000370,-3.843780584693968994
0.543000000000000371,-3.814161437892934714
0.544000000000000372,-3.784805227564502328
0.545000000000000373,-3.755709955398653044
0.546000000000000374,-3.726873625443579918
0.547000000000000375,-3.698294244451934443
0.548000000000000376,-3.669969822217300504
0.549000000000000377,-3.641898371901012954
0.550000000000000377,-3.614077910349559719
0.551000000000000378,-3.586506458402775710
0.552000000000000379,-3.559182041192973323
0.553000000000000380,-3.532102688435226234
0.554000000000000381,-3.505266434708942391
0.555000000000000382,-3.478671319730989975
0.556000000000000383,-3.452315388620406544
0.557000000000000384,-3.426196692155033308
0.558000000000000385,-3.400313287020080733
0.559000000000000385,-3.374663236048918602
0.560000000000000386,-3.349244608456150907
0.561000000000000387,-3.324055480063206947
0.562000000000000388,-3.299093933516557886
0.563000000000000389,-3.274358058498736401
0.564000000000000390,-3.249845951932285093
0.565000000000000391,-3.225555718176813969
0.566000000000000392,-3.201485469219274016
0.567000000000000393,-3.177633324857621400
0.568000000000000393,-3.153997412877981077
0.569000000000000394,-3.130575869225463492
0.570000000000000395,-3.107366838168778678
0.571000000000000396,-3.084368472458745458
0.572000000000000397,-3.061578933480865405
0.573000000000000398,-3.038996391402049024
0.574000000000000399,-3.016619025311661595
0.575000000000000400,-2.994445023356957503
0.576000000000000401,-2.972472582873073144
0.577000000000000401,-2.950699910507682766
0.578000000000000402,-2.929125222340406953
0.579000000000000403,-2.907746743997102534
0.580000000000000404,-2.886562710759188910
0.581000000000000405,-2.865571367668036107
0.582000000000000406,-2.844770969624594414
0.583000000000000407,-2.824159781484337550
0.584000000000000408,-2.803736078147628596
0.585000000000000409,-2.783498144645615291
0.586000000000000409,-2.763444276221747931
0.587000000000000410,-2.743572778409036239
0.588000000000000411,-2.723881967103103818
0.589000000000000412,-2.704370168631191618
0.590000000000000413,-2.685035719817136179
0.591000000000000414,-2.665876968042475870
0.592000000000000415,-2.646892271303747268
0.593000000000000416,-2.628079998266041439
0.594000000000000417,-2.609438528312939987
0.595000000000000417,-2.590966251592925484
0.596000000000000418,-2.572661569062265841
0.597000000000000419,-2.554522892524602629
0.598000000000000420,-2.536548644667144803
0.599000000000000421,-2.518737259093719594
0.600000000000000422,-2.501087180354624628
0.601000000000000423,-2.483596863973440261
0.602000000000000424,-2.466264776470837639
0.603000000000000425,-2.449089395385468659
0.604000000000000425,-2.432069209292007539
0.605000000000000426,-2.415202717816413713
0.606000000000000427,-2.398488431648509778
0.607000000000000428,-2.381924872551863803
0.608000000000000429,-2.365510573371184755
0.609000000000000430,-2.349244078037120431
