# Au-001-PEG_BSAI17
# h[nm],U(h)[kJ/mol]
0.149999999999999994,73.694984033587644490
0.150999999999999995,71.742845102984034611
0.151999999999999996,70.002478745977512631
0.152999999999999997,68.311607238602576331
0.153999999999999998,66.617057908146733780
0.154999999999999999,64.914646409051584897
0.156000000000000000,63.217502139528662042
0.157000000000000001,61.540890935257742456
0.158000000000000002,59.896155241503791444
0.159000000000000002,58.289338029086309234
0.160000000000000003,56.721925001943510836
0.161000000000000004,55.192298665163981752
0.162000000000000005,53.697196541707299389
0.163000000000000006,52.232870883840504916
0.164000000000000007,50.795868942955607395
0.165000000000000008,49.383463312876401119
0.166000000000000009,47.993807370362489451
0.167000000000000010,46.625900566072459696
0.168000000000000010,45.279440139926180109
0.169000000000000011,43.954620296389414591
0.170000000000000012,42.651922872946371967
0.171000000000000013,41.371928077990887118
0.172000000000000014,40.115161242168554168
0.173000000000000015,38.881982013482357274
0.174000000000000016,37.672515806106900982
0.175000000000000017,36.486623126701786646
0.176000000000000018,35.323900123062550449
0.177000000000000018,34.183702823946063631
0.178000000000000019,33.065187628085581650
0.179000000000000020,31.967361299175600209
0.180000000000000021,30.889134758426486371
0.181000000000000022,29.829376137355826160
0.182000000000000023,28.786959722981229959
0.183000000000000024,27.760808507198163397
0.184000000000000025,26.749928991402647682
0.185000000000000026,25.753437673585615642
0.186000000000000026,24.770579254715880069
0.187000000000000027,23.800737053426441747
0.188000000000000028,22.843436429564253132
0.189000000000000029,21.898342208613851056
0.190000000000000030,20.965251192079726650
0.191000000000000031,20.044080854715069506
0.192000000000000032,19.134855287396682400
0.193000000000000033,18.237689361497064766
0.194000000000000034,17.352771981230812770
0.195000000000000034,16.480349166457635590
0.196000000000000035,15.620707579143125798
0.197000000000000036,14.774158979203207309
0.198000000000000037,13.941025974926597897
0.199000000000000038,13.121629323072710349
0.200000000000000039,12.316276936214300974
0.201000000000000040,11.525254670987987282
0.202000000000000041,10.748818900853958525
0.203000000000000042,9.987190820350660303
0.204000000000000042,9.240552383823542826
0.205000000000000043,8.509043749086533381
0.206000000000000044,7.792762074145407780
0.207000000000000045,7.091761501608459639
0.208000000000000046,6.406054159361242561
0.209000000000000047,5.735612006168146593
0.210000000000000048,5.080369355850892887
0.211000000000000049,4.440225922458686192
0.212000000000000050,3.815050240382583446
0.213000000000000050,3.204683326808548394
0.214000000000000051,2.608942468498312017
0.215000000000000052,2.027625030014176488
0.216000000000000053,1.460512195652291068
0.217000000000000054,0.907372572112844389
0.218000000000000055,0.367965593003706015
0.219000000000000056,-0.157955320582675529
0.220000000000000057,-0.670639877123684225
0.221000000000000058,-1.170338332181080521
0.222000000000000058,-1.657299219566758186
0.223000000000000059,-2.131767400950470570
0.224000000000000060,-2.593982431520338583
0.225000000000000061,-3.044177233294983242
0.226000000000000062,-3.482577062775519039
0.227000000000000063,-3.909398755736411601
0.228000000000000064,-4.324850228995961388
0.229000000000000065,-4.729130216889027238
0.230000000000000066,-5.122428218787508314
0.231000000000000066,-5.504924633288786673
0.232000000000000067,-5.876791054523751612
0.233000000000000068,-6.238190706340525971
0.234000000000000069,-6.589278990815353509
0.235000000000000070,-6.930204128553914877
0.236000000000000071,-7.261107869506057355
0.237000000000000072,-7.582126254465036297
0.238000000000000073,-7.893390409002135399
0.239000000000000073,-8.195027353252198665
0.240000000000000074,-8.487160812675677235
0.241000000000000075,-8.769912016639224817
0.242000000000000076,-9.043400473353329971
0.243000000000000077,-9.307744711356132683
0.244000000000000078,-9.563062979317598078
0.245000000000000079,-9.809473897442579471
0.246000000000000080,-10.047097055162868884
0.247000000000000081,-10.276053551119838758
0.248000000000000081,-10.496466472643557921
0.249000000000000082,-10.708461313030102957
0.250000000000000111,-10.912166325904674835
0.251000000000000112,-11.107712816834785841
0.252000000000000113,-11.295235373129241196
0.253000000000000114,-11.474872033425643991
0.254000000000000115,-11.646764399240504773
0.255000000000000115,-11.811057691132877068
0.256000000000000116,-11.967900752523881636
0.257000000000000117,-12.117446004525236347
0.258000000000000118,-12.259849355365947332
0.259000000000000119,-12.395270068175998190
0.260000000000000120,-12.523870590993988472
0.261000000000000121,-12.645816352918789249
0.262000000000000122,-12.761275530330808081
0.263000000000000123,-12.870418787070510902
0.264000000000000123,-12.973418992387715676
0.265000000000000124,-13.070450920368887893
0.266000000000000125,-13.161690934417162424
0.267000000000000126,-13.247316660204953465
0.268000000000000127,-13.327506650346810702
0.269000000000000128,-13.402440043853641072
0.270000000000000129,-13.472296223232850920
0.271000000000000130,-13.537254471895446173
0.272000000000000131,-13.597493634322884049
0.273000000000000131,-13.653191781236809987
0.274000000000000132,-13.704525881805619036
0.275000000000000133,-13.751671484714941940
0.276000000000000134,-13.794802409726532488
0.277000000000000135,-13.834090451152594170
0.278000000000000136,-13.869705094482402075
0.279000000000000137,-13.901813247215113023
0.280000000000000138,-13.930578984778202667
0.281000000000000139,-13.956163312245848829
0.282000000000000139,-13.978723942415607340
0.283000000000000140,-13.998415090655791815
0.284000000000000141,-14.015387286799855460
0.285000000000000142,-14.029787204238118647
0.286000000000000143,-14.041757506241186348
0.287000000000000144,-14.051436709443066775
0.288000000000000145,-14.058959064316047360
0.289000000000000146,-14.064454452381728089
0.290000000000000147,-14.068048299825443692
0.291000000000000147,-14.069861507111735222
0.292000000000000148,-14.070010394138336096
0.293000000000000149,-14.068606660413133014
0.294000000000000150,-14.065757359694027073
0.295000000000000151,-14.061564888493439440
0.296000000000000152,-14.056126987818274188
0.297000000000000153,-14.049536757491498662
0.298000000000000154,-14.041882682382246017
0.299000000000000155,-14.033248669858101820
0.300000000000000155,-14.023714097764619524
0.301000000000000156,-14.013353872232949371
0.302000000000000157,-14.002238494616912945
0.303000000000000158,-13.990434136864612569
0.304000000000000159,-13.978002724637054399
0.305000000000000160,-13.965002027496570491
0.306000000000000161,-13.951485755500964814
0.307000000000000162,-13.937503661554682566
0.308000000000000163,-13.923101648885610970
0.309000000000000163,-13.908321883035643651
0.310000000000000164,-13.893202907773599009
0.311000000000000165,-13.877779764361179105
0.312000000000000166,-13.862084113625666504
0.313000000000000167,-13.846144360316831268
0.314000000000000168,-13.829985779249728495
0.315000000000000169,-13.813630642760179157
0.316000000000000170,-13.797098349024576436
0.317000000000000171,-13.780405550820802318
0.318000000000000171,-13.763566284332114265
0.319000000000000172,-13.746592097621151751
0.320000000000000173,-13.729492178425250160
0.321000000000000174,-13.712273480949175308
0.322000000000000175,-13.694940851354852285
0.323000000000000176,-13.677497151671108355
0.324000000000000177,-13.659943381869151580
0.325000000000000178,-13.642278799871537132
0.326000000000000179,-13.624501039283794412
0.327000000000000179,-13.606606224658392534
0.328000000000000180,-13.588589084120737738
0.329000000000000181,-13.570443059205828717
0.330000000000000182,-13.552160411772353754
0.331000000000000183,-13.533732327878857049
0.332000000000000184,-13.515149018522489399
0.333000000000000185,-13.496399817157413992
0.334000000000000186,-13.477473273924115205
0.335000000000000187,-13.458357246535516794
0.336000000000000187,-13.439038987778923584
0.337000000000000188,-13.419505229604965280
0.338000000000000189,-13.399742263787013385
0.339000000000000190,-13.379736019144996106
0.340000000000000191,-13.359472135337711052
0.341000000000000192,-13.338936033237583700
0.342000000000000193,-13.318112981909953518
0.343000000000000194,-13.296988162227581398
0.344000000000000195,-13.275546727157893301
0.345000000000000195,-13.253773858767761595
0.346000000000000196,-13.231654821996233551
0.347000000000000197,-13.209175015251593877
0.348000000000000198,-13.186320017893763179
0.349000000000000199,-13.163075634667743330
0.350000000000000200,-13.139427937157602599
0.351000000000000201,-13.115363302334012374
0.352000000000000202,-13.090868448271276492
0.353000000000000203,-13.065930467112456981
0.354000000000000203,-13.040536855363274782
0.355000000000000204,-13.014675541597165775
0.356000000000000205,-12.988334911655508463
0.357000000000000206,-12.961503831427958033
0.358000000000000207,-12.934171667298375752
0.359000000000000208,-12.906328304342867597
0.360000000000000209,-12.877964162366037471
0.361000000000000210,-12.849070209861855218
0.362000000000000210,-12.819637975985136435
0.363000000000000211,-12.789659560619144330
0.364000000000000212,-12.759127642624097376
0.365000000000000213,-12.728035486350503191
0.366000000000000214,-12.696376946500135929
0.367000000000000215,-12.664146471416369621
0.368000000000000216,-12.631339104884219182
0.369000000000000217,-12.597950486518842084
0.370000000000000218,-12.563976850819994269
0.371000000000000218,-12.529415024967978098
0.372000000000000219,-12.494262425435012531
0.373000000000000220,-12.458517053484296611
0.374000000000000221,-12.422177489626861302
0.375000000000000222,-12.385242887104578102
0.376000000000000223,-12.347712964465831220
0.377000000000000224,-12.309587997298084616
0.378000000000000225,-12.270868809179802383
0.379000000000000226,-12.231556761912003140
0.380000000000000226,-12.191653745087830174
0.381000000000000227,-12.151162165056167197
0.382000000000000228,-12.110084933333713053
0.383000000000000229,-12.068425454517528905
0.384000000000000230,-12.026187613748060556
0.385000000000000231,-11.983375763770951039
0.386000000000000232,-11.939994711643517888
0.387000000000000233,-11.896049705130087304
0.388000000000000234,-11.851546418828331042
0.389000000000000234,-11.806490940066909801
0.390000000000000235,-11.760889754612627200
0.391000000000000236,-11.714749732223824097
0.392000000000000237,-11.668078112084494080
0.393000000000000238,-11.620882488152261658
0.394000000000000239,-11.573170794451225873
0.395000000000000240,-11.524951290339341625
0.396000000000000241,-11.476232545778131566
0.397000000000000242,-11.427023426630983138
0.398000000000000242,-11.377333080014814470
0.399000000000000243,-11.327170919728278164
0.400000000000000244,-11.276546611778197615
0.401000000000000245,-11.225470060024687058
0.402000000000000246,-11.173951391963806046
0.403000000000000247,-11.122000944665424882
0.404000000000000248,-11.069629250882659477
0.405000000000000249,-11.016847025348058153
0.406000000000000250,-10.963665151270383546
0.407000000000000250,-10.910094667044880623
0.408000000000000251,-10.856146753188710363
0.409000000000000252,-10.801832719512258763
0.410000000000000253,-10.747163992535874399
0.411000000000000254,-10.692152103160868393
0.412000000000000255,-10.636808674602423963
0.413000000000000256,-10.581145410591414446
0.414000000000000257,-10.525174083851066342
0.415000000000000258,-10.468906524853863971
0.416000000000000258,-10.412354610863033599
0.417000000000000259,-10.355530255262490158
0.418000000000000260,-10.298445397178289440
0.419000000000000261,-10.241111991393955449
0.420000000000000262,-10.183541998561597808
0.421000000000000263,-10.125747375709980957
0.422000000000000264,-10.067740067050186425
0.423000000000000265,-10.009531995079107958
0.424000000000000266,-9.951135051980402935
0.425000000000000266,-9.892561091322090050
0.426000000000000267,-9.833821920049580001
0.427000000000000268,-9.774929290772549351
0.428000000000000269,-9.715894894343584554
0.429000000000000270,-9.656730352726331290
0.430000000000000271,-9.597447212150344242
0.431000000000000272,-9.538056936549789810
0.432000000000000273,-9.478570901282632022
0.433000000000000274,-9.419000387126832408
0.434000000000000274,-9.359356574549778429
0.435000000000000275,-9.299650538246988063
0.436000000000000276,-9.239893241945901892
0.437000000000000277,-9.180095533470355562
0.438000000000000278,-9.120268140061345008
0.439000000000000279,-9.060421663949277615
0.440000000000000280,-9.000566578172987775
0.441000000000000281,-8.940713222640596314
0.442000000000000282,-8.880871800427254215
0.443000000000000282,-8.821052374304533927
0.444000000000000283,-8.761264863496483812
0.445000000000000284,-8.701519040656977566
0.446000000000000285,-8.641824529063097060
0.447000000000000286,-8.582190800019350974
0.448000000000000287,-8.522627170467179880
0.449000000000000288,-8.463142800794575038
0.450000000000000289,-8.403746692840295296
0.451000000000000290,-8.344447688087408110
0.452000000000000290,-8.285254466040719024
0.453000000000000291,-8.226175542782746319
0.454000000000000292,-8.167219269702986395
0.455000000000000293,-8.108393832395030643
0.456000000000000294,-8.049707249716396618
0.457000000000000295,-7.991167373005795938
0.458000000000000296,-7.932781885452624415
0.459000000000000297,-7.874558301613667766
0.460000000000000298,-7.816503967071755099
0.461000000000000298,-7.758626058231584466
0.462000000000000299,-7.700931582247593887
0.463000000000000300,-7.643427377079052398
0.464000000000000301,-7.586120111667613131
0.465000000000000302,-7.529016286232542043
0.466000000000000303,-7.472122232678975351
0.467000000000000304,-7.415444115114622647
0.468000000000000305,-7.358987930470445527
0.469000000000000306,-7.302759509220851264
0.470000000000000306,-7.246764516199180939
0.471000000000000307,-7.191008451504011134
0.472000000000000308,-7.135496651492454490
0.473000000000000309,-7.080234289856053742
0.474000000000000310,-7.025226378775525582
0.475000000000000311,-6.970477770150310448
0.476000000000000312,-6.915993156899284955
0.477000000000000313,-6.861777074328735182
0.478000000000000314,-6.807833901564118051
0.479000000000000314,-6.754167863042050968
0.480000000000000315,-6.700783030059002776
0.481000000000000316,-6.647683322373490356
0.482000000000000317,-6.594872509858335619
0.483000000000000318,-6.542354214200001294
0.484000000000000319,-6.490131910641747659
0.485000000000000320,-6.438208929767741395
0.486000000000000321,-6.386588459325151845
0.487000000000000322,-6.335273546081429785
0.488000000000000322,-6.284267097713970962
0.489000000000000323,-6.233571884729636636
0.490000000000000324,-6.183190542411447055
0.491000000000000325,-6.133125572790023128
0.492000000000000326,-6.083379346637300067
0.493000000000000327,-6.033954105480308527
0.494000000000000328,-5.984851963632637606
0.495000000000000329,-5.936074910241523561
0.496000000000000330,-5.887624811348381115
0.497000000000000330,-5.839503411960834001
0.498000000000000331,-5.791712338134208160
0.499000000000000332,-5.744253099060744994
0.500000000000000333,-5.697127089164593094
0.501000000000000334,-5.650335590200922908
0.502000000000000335,-5.603879773357482108
0.503000000000000336,-5.557760701357000066
0.504000000000000337,-5.511979330558892443
0.505000000000000338,-5.466536513058786184
0.506000000000000338,-5.421432998784494472
0.507000000000000339,-5.376669437587056066
0.508000000000000340,-5.332246381325537854
0.509000000000000341,-5.288164285944457532
0.510000000000000342,-5.244423513542519899
0.511000000000000343,-5.201024334431670226
0.512000000000000344,-5.157966929185290539
0.513000000000000345,-5.115251390674623089
0.514000000000000346,-5.072877726092384520
0.515000000000000346,-5.030845858962706529
0.516000000000000347,-4.989155631136460656
0.517000000000000348,-4.947806804771301969
0.518000000000000349,-4.906799064295422674
0.519000000000000350,-4.866132018354543121
0.520000000000000351,-4.825805201741241390
0.521000000000000352,-4.785818077306111640
0.522000000000000353,-4.746170037850085954
0.523000000000000353,-4.706860407997319307
0.524000000000000354,-4.667888446048236162
0.525000000000000355,-4.629253345812077036
0.526000000000000356,-4.590954238418610167
0.527000000000000357,-4.552990194108567756
0.528000000000000358,-4.515360224002326284
0.529000000000000359,-4.478063281846615951
0.530000000000000360,-4.441098265738801842
0.531000000000000361,-4.404464019828521870
0.532000000000000361,-4.368159335996361747
0.533000000000000362,-4.332182955509359168
0.534000000000000363,-4.296533570653115142
0.535000000000000364,-4.261209826340285112
0.536000000000000365,-4.226210321695343275
0.537000000000000366,-4.191533611615460231
0.538000000000000367,-4.157178208307310996
0.539000000000000368,-4.123142582799856015
0.540000000000000369,-4.089425166432842040
0.541000000000000369,-4.056024352321149884
0.542000000000000370,-4.022938496794798091
0.543000000000000371,-3.990165920814679801
0.544000000000000372,-3.957704911363998601
0.545000000000000373,-3.925553722815438906
0.546000000000000374,-3.893710578274065970
0.547000000000000375,-3.862173670896031918
0.548000000000000376,-3.830941165183184616
0.549000000000000377,-3.800011198253589129
0.550000000000000377,-3.769381881088079034
0.551000000000000378,-3.739051299752976121
0.552000000000000379,-3.709017516599045994
0.553000000000000380,-3.679278571436848555
0.554000000000000381,-3.649832482688586843
0.555000000000000382,-3.620677248516682933
0.556000000000000383,-3.591810847929095551
0.557000000000000384,-3.563231241861736898
0.558000000000000385,-3.534936374237966472
0.559000000000000385,-3.506924173005526058
0.560000000000000386,-3.479192551150967372
0.561000000000000387,-3.451739407691869044
0.562000000000000388,-3.424562628646986351
0.563000000000000389,-3.397660087984589516
0.564000000000000390,-3.371029648549183300
0.565000000000000391,-3.344669162966847686
0.566000000000000392,-3.318576474529409293
0.567000000000000393,-3.292749418057717925
0.568000000000000393,-3.267185820744211266
0.569000000000000394,-3.241883502975046127
0.570000000000000395,-3.216840279132069380
0.571000000000000396,-3.192053958374780454
0.572000000000000397,-3.167522345402672634
0.573000000000000398,-3.143243241198079740
0.574000000000000399,-3.119214443749892318
0.575000000000000400,-3.095433748758320114
0.576000000000000401,-3.071898950321001465
0.577000000000000401,-3.048607841600756707
0.578000000000000402,-3.025558215475159241
0.579000000000000403,-3.002747865168274188
0.580000000000000404,-2.980174584864800469
0.581000000000000405,-2.957836170306876955
0.582000000000000406,-2.935730419373826727
0.583000000000000407,-2.913855132645097878
0.584000000000000408,-2.892208113946703296
0.585000000000000409,-2.870787170881381023
0.586000000000000409,-2.849590115342756746
0.587000000000000410,-2.828614764013813065
0.588000000000000411,-2.807858938849864039
0.589000000000000412,-2.787320467546367642
0.590000000000000413,-2.766997183991779519
0.591000000000000414,-2.746886928705767783
0.592000000000000415,-2.726987549263010902
0.593000000000000416,-2.707296900702856668
0.594000000000000417,-2.687812845925076299
0.595000000000000417,-2.668533256072054716
0.596000000000000418,-2.649456010897513814
0.597000000000000419,-2.630578999122221262
0.598000000000000420,-2.611900118776751434
0.599000000000000421,-2.593417277531691933
0.600000000000000422,-2.575128393015446271
0.601000000000000423,-2.557031393119938656
0.602000000000000424,-2.539124216294438519
0.603000000000000425,-2.521404811827736570
0.604000000000000425,-2.503871140118949956
0.605000000000000426,-2.486521172937142588
0.606000000000000427,-2.469352893670064830
0.607000000000000428,-2.452364297562126261
0.608000000000000429,-2.435553391941997603
0.609000000000000430,-2.418918196439892476
