# Au-001-PEG_ASN-AC
# h[nm],U(h)[kJ/mol]
0.149999999999999994,130.304264622639010440
0.150999999999999995,127.950024128331577344
0.151999999999999996,125.464206394326268423
0.152999999999999997,122.935829922478092158
0.153999999999999998,120.407606997136554128
0.154999999999999999,117.898475616802485888
0.156000000000000000,115.415989783820464254
0.157000000000000001,112.962780300020682489
0.158000000000000002,110.539676214065906379
0.159000000000000002,108.147039126893645289
0.160000000000000003,105.785210041914098156
0.161000000000000004,103.454567153037402250
0.162000000000000005,101.155453021808824587
0.163000000000000006,98.888091420473600124
0.164000000000000007,96.652538681663145326
0.165000000000000008,94.448676503268998772
0.166000000000000009,92.276236835956950699
0.167000000000000010,90.134844833161395172
0.168000000000000010,88.024066918738654408
0.169000000000000011,85.943454395064975415
0.170000000000000012,83.892576817001881295
0.171000000000000013,81.871042691610838915
0.172000000000000014,79.878507581832622009
0.173000000000000015,77.914671350400155347
0.174000000000000016,75.979267183424127552
0.175000000000000017,74.072045345266531058
0.176000000000000018,72.192754509045030886
0.177000000000000018,70.341123133879833063
0.178000000000000019,68.516842845520415040
0.179000000000000020,66.719555215112066548
0.180000000000000021,64.948842787020794276
0.181000000000000022,63.204224722317086105
0.182000000000000023,61.485157022353917000
0.183000000000000024,59.791036985469148135
0.184000000000000025,58.121211327998977936
0.185000000000000026,56.474987260983162685
0.186000000000000026,54.851645745013385636
0.187000000000000027,53.250456134836497313
0.188000000000000028,51.670691459579686011
0.189000000000000029,50.111643651554068413
0.190000000000000030,48.572638125557091371
0.191000000000000031,47.053047212068804583
0.192000000000000032,45.552302054053235736
0.193000000000000033,44.069902682203199618
0.194000000000000034,42.605426082910042851
0.195000000000000034,41.158532163832717288
0.196000000000000035,39.728967601674852972
0.197000000000000036,38.316567624583129259
0.198000000000000037,36.921255837134218325
0.199000000000000038,35.543042239438889851
0.200000000000000039,34.182019624135314473
0.201000000000000040,32.838358556933471277
0.202000000000000041,31.512301159051865795
0.203000000000000042,30.204153914592644981
0.204000000000000042,28.914279723884355633
0.205000000000000043,27.643089416314825968
0.206000000000000044,26.391032924331341292
0.207000000000000045,25.158590305175369650
0.208000000000000046,23.946262779494499995
0.209000000000000047,22.754563937080568792
0.210000000000000048,21.584011240338220716
0.211000000000000049,20.435117936304262543
0.212000000000000050,19.308385468604583934
0.213000000000000050,18.204296462057971695
0.214000000000000051,17.123308335008630365
0.215000000000000052,16.065847578122252060
0.216000000000000053,15.032304723461441753
0.217000000000000054,14.023030014256956832
0.218000000000000055,13.038329773951556234
0.219000000000000056,12.078463462811919626
0.220000000000000057,11.143641401639781563
0.221000000000000058,10.234023134814002276
0.222000000000000058,9.349716398963789032
0.223000000000000059,8.490776658927833509
0.224000000000000060,7.657207169177415729
0.225000000000000061,6.848959516468231534
0.226000000000000062,6.065934598020506385
0.227000000000000063,5.307983988897421845
0.228000000000000064,4.574911652350152735
0.229000000000000065,3.866475947615218622
0.230000000000000066,3.182391890893550901
0.231000000000000066,2.522333626911656523
0.232000000000000067,1.885937070484765998
0.233000000000000068,1.272802679788256786
0.234000000000000069,0.682498325529949712
0.235000000000000070,0.114562222839147410
0.236000000000000071,-0.431494104605138928
0.237000000000000072,-0.956182855943927712
0.238000000000000073,-1.460037005006884936
0.239000000000000073,-1.943607394984197878
0.240000000000000074,-2.407459895580775999
0.241000000000000075,-2.852172639795768738
0.242000000000000076,-3.278333355047236441
0.243000000000000077,-3.686536801063975410
0.244000000000000078,-4.077382324804359470
0.245000000000000079,-4.451471540643654023
0.246000000000000080,-4.809406142200632672
0.247000000000000081,-5.151785850454033699
0.248000000000000081,-5.479206501227744219
0.249000000000000082,-5.792258273699967930
0.250000000000000111,-6.091524060311982680
0.251000000000000112,-6.377577977310844304
0.252000000000000113,-6.650984014154262880
0.253000000000000114,-6.912294819123775191
0.254000000000000115,-7.162050617733645375
0.255000000000000115,-7.400778259873684206
0.256000000000000116,-7.628990391082001388
0.257000000000000117,-7.847184742897804988
0.258000000000000118,-8.055843536887721257
0.259000000000000119,-8.255432996665209799
0.260000000000000120,-8.446402962022961702
0.261000000000000121,-8.629186599165072025
0.262000000000000122,-8.804200200954447553
0.263000000000000123,-8.971843071071912590
0.264000000000000123,-9.132497486013432919
0.265000000000000124,-9.286528728922188947
0.266000000000000125,-9.434285189360002377
0.267000000000000126,-9.576098523260188955
0.268000000000000127,-9.712283867468867626
0.269000000000000128,-9.843140103467778346
0.270000000000000129,-9.968950165075915137
0.271000000000000130,-10.089981385145950554
0.272000000000000131,-10.206485876500559939
0.273000000000000131,-10.318700942591142677
0.274000000000000132,-10.426849513603807296
0.275000000000000133,-10.531140603982956705
0.276000000000000134,-10.631769787588916998
0.277000000000000135,-10.728919686950581180
0.278000000000000136,-10.822760473316733965
0.279000000000000137,-10.913450374447403846
0.280000000000000138,-11.001136187319245252
0.281000000000000139,-11.085953793145552737
0.282000000000000139,-11.168028672330281736
0.283000000000000140,-11.247476417187119324
0.284000000000000141,-11.324403240457190378
0.285000000000000142,-11.398906477853433472
0.286000000000000143,-11.471075083044407705
0.287000000000000144,-11.540990113666044437
0.288000000000000145,-11.608725207116489031
0.289000000000000146,-11.674347045045498916
0.290000000000000147,-11.737915805597978647
0.291000000000000147,-11.799485602609037116
0.292000000000000148,-11.859104911077395172
0.293000000000000149,-11.916816978363979018
0.294000000000000150,-11.972660220674116616
0.295000000000000151,-12.026668604484981984
0.296000000000000152,-12.078872012674683134
0.297000000000000153,-12.129296595196864317
0.298000000000000154,-12.177965104223991588
0.299000000000000155,-12.224897213755410164
0.300000000000000155,-12.270109823751642608
0.301000000000000156,-12.313617348915695260
0.302000000000000157,-12.355431992295430987
0.303000000000000158,-12.395564003928081220
0.304000000000000159,-12.434021924790139124
0.305000000000000160,-12.470812816352397689
0.306000000000000161,-12.505942476072082314
0.307000000000000162,-12.539415639181520135
0.308000000000000163,-12.571236167156127905
0.309000000000000163,-12.601407223264022406
0.310000000000000164,-12.629931435615787905
0.311000000000000165,-12.656811048145204524
0.312000000000000166,-12.682048059961939401
0.313000000000000167,-12.705644353523723566
0.314000000000000168,-12.727601812080095556
0.315000000000000169,-12.747922426841942212
0.316000000000000170,-12.766608394331068865
0.317000000000000171,-12.783662204362155279
0.318000000000000171,-12.799086719105826404
0.319000000000000172,-12.812885243676856106
0.320000000000000173,-12.825061588684860681
0.321000000000000174,-12.835620125177300110
0.322000000000000175,-12.844565832396316551
0.323000000000000176,-12.851904338761187319
0.324000000000000177,-12.857641956478115475
0.325000000000000178,-12.861785710168117447
0.326000000000000179,-12.864343359892496110
0.327000000000000179,-12.865323418943393818
0.328000000000000180,-12.864735166754808660
0.329000000000000181,-12.862588657277120419
0.330000000000000182,-12.858894723145155581
0.331000000000000183,-12.853664975957709515
0.332000000000000184,-12.846911802972925898
0.333000000000000185,-12.838648360511680124
0.334000000000000186,-12.828888564348115864
0.335000000000000187,-12.817647077353857554
0.336000000000000187,-12.804939294650045767
0.337000000000000188,-12.790781326508811944
0.338000000000000189,-12.775189979233905646
0.339000000000000190,-12.758182734238264544
0.340000000000000191,-12.739777725524426444
0.341000000000000192,-12.719993715762905495
0.342000000000000193,-12.698850071151992935
0.343000000000000194,-12.676366735232276639
0.344000000000000195,-12.652564201818204737
0.345000000000000195,-12.627463487199621639
0.346000000000000196,-12.601086101755777591
0.347000000000000197,-12.573454021115486157
0.348000000000000198,-12.544589656987781723
0.349000000000000199,-12.514515827778691204
0.350000000000000200,-12.483255729101767173
0.351000000000000201,-12.450832904281515567
0.352000000000000202,-12.417271214941598245
0.353000000000000203,-12.382594811762260179
0.354000000000000203,-12.346828105484423332
0.355000000000000204,-12.309995738231235052
0.356000000000000205,-12.272122555211584682
0.357000000000000206,-12.233233576864252612
0.358000000000000207,-12.193353971495167087
0.359000000000000208,-12.152509028455511952
0.360000000000000209,-12.110724131902802725
0.361000000000000210,-12.068024735182486751
0.362000000000000210,-12.024436335862990433
0.363000000000000211,-11.979984451452928340
0.364000000000000212,-11.934694595825090957
0.365000000000000213,-11.888592256368124112
0.366000000000000214,-11.841702871883237336
0.367000000000000215,-11.794051811239921079
0.368000000000000216,-11.745664352801837182
0.369000000000000217,-11.696565664630707460
0.370000000000000218,-11.646780785473877629
0.371000000000000218,-11.596334606538292178
0.372000000000000219,-11.545251854051674201
0.373000000000000220,-11.493557072609442926
0.374000000000000221,-11.441274609303878407
0.375000000000000222,-11.388428598630387256
0.376000000000000223,-11.335042948164089083
0.377000000000000224,-11.281141324998333886
0.378000000000000225,-11.226747142935472823
0.379000000000000226,-11.171883550418995057
0.380000000000000226,-11.116573419195095340
0.381000000000000227,-11.060839333690458020
0.382000000000000228,-11.004703581092673659
0.383000000000000229,-10.948188142118379318
0.384000000000000230,-10.891314682453854701
0.385000000000000231,-10.834104544852262819
0.386000000000000232,-10.776578741870897815
0.387000000000000233,-10.718757949231699556
0.388000000000000234,-10.660662499787745716
0.389000000000000234,-10.602312378078320165
0.390000000000000235,-10.543727215454637758
0.391000000000000236,-10.484926285758543685
0.392000000000000237,-10.425928501535993931
0.393000000000000238,-10.366752410767512416
0.394000000000000239,-10.307416194097253737
0.395000000000000240,-10.247937662542920378
0.396000000000000241,-10.188334255668513251
0.397000000000000242,-10.128623040201947703
0.398000000000000242,-10.068820709080121389
0.399000000000000243,-10.008943580903700621
0.400000000000000244,-9.949007599784398082
0.401000000000000245,-9.889028335567797257
0.402000000000000246,-9.829020984414752249
0.403000000000000247,-9.769000369724881949
0.404000000000000248,-9.708980943386006146
0.405000000000000249,-9.648976787333497285
0.406000000000000250,-9.589001615403947909
0.407000000000000250,-9.529068775467965935
0.408000000000000251,-9.469191251827073330
0.409000000000000252,-9.409381667860218457
0.410000000000000253,-9.349652288905620168
0.411000000000000254,-9.290015025364203538
0.412000000000000255,-9.230481436011027441
0.413000000000000256,-9.171062731501823606
0.414000000000000257,-9.111769778061631797
0.415000000000000258,-9.052613101343517599
0.416000000000000258,-8.993602890445201226
0.417000000000000259,-8.934749002072136292
0.418000000000000260,-8.876060964835778222
0.419000000000000261,-8.817547983676295331
0.420000000000000262,-8.759218944399169260
0.421000000000000263,-8.701082418315801092
0.422000000000000264,-8.643146666978150705
0.423000000000000265,-8.585419646998268206
0.424000000000000266,-8.527909014943686472
0.425000000000000266,-8.470622132299947538
0.426000000000000267,-8.413566070492043636
0.427000000000000268,-8.356747615956795272
0.428000000000000269,-8.300173275258524441
0.429000000000000270,-8.243849280240773680
0.430000000000000271,-8.187781593207008157
0.431000000000000272,-8.131975912123690975
0.432000000000000273,-8.076437675839359898
0.433000000000000274,-8.021172069313651676
0.434000000000000274,-7.966184028850425314
0.435000000000000275,-7.911478247329577940
0.436000000000000276,-7.857059179432345886
0.437000000000000277,-7.802931046854975072
0.438000000000000278,-7.749097843506312699
0.439000000000000279,-7.695563340684687503
0.440000000000000280,-7.642331092229987632
0.441000000000000281,-7.589404439646908251
0.442000000000000282,-7.536786517195771751
0.443000000000000282,-7.484480256947209753
0.444000000000000283,-7.432488393797636483
0.445000000000000284,-7.380813470442328494
0.446000000000000285,-7.329457842303133575
0.447000000000000286,-7.278423682408410755
0.448000000000000287,-7.227712986222340596
0.449000000000000288,-7.177327576421620670
0.450000000000000289,-7.127269107617149935
0.451000000000000290,-7.077539071018880357
0.452000000000000290,-7.028138799041957263
0.453000000000000291,-6.979069469852481333
0.454000000000000292,-6.930332111851429389
0.455000000000000293,-6.881927608095262272
0.456000000000000294,-6.833856700652107818
0.457000000000000295,-6.786119994892322538
0.458000000000000296,-6.738717963712470116
0.459000000000000297,-6.691650951691885396
0.460000000000000298,-6.644919179181028035
0.461000000000000298,-6.598522746321042298
0.462000000000000299,-6.552461636993939464
0.463000000000000300,-6.506735722702964964
0.464000000000000301,-6.461344766382859817
0.465000000000000302,-6.416288426139717949
0.466000000000000303,-6.371566258920267067
0.467000000000000304,-6.327177724110518042
0.468000000000000305,-6.283122187063738373
0.469000000000000306,-6.239398922557824356
0.470000000000000306,-6.196007118182254914
0.471000000000000307,-6.152945877654666162
0.472000000000000308,-6.110214224067522792
0.473000000000000309,-6.067811103064997269
0.474000000000000310,-6.025735385950554246
0.475000000000000311,-5.983985872725567035
0.476000000000000312,-5.942561295059570980
0.477000000000000313,-5.901460319192460169
0.478000000000000314,-5.860681548769350435
0.479000000000000314,-5.820223527608666458
0.480000000000000315,-5.780084742403964526
0.481000000000000316,-5.740263625360351618
0.482000000000000317,-5.700758556765996410
0.483000000000000318,-5.661567867499590179
0.484000000000000319,-5.622689841474411310
0.485000000000000320,-5.584122718019855824
0.486000000000000321,-5.545864694201153355
0.487000000000000322,-5.507913927078114114
0.488000000000000322,-5.470268535903694662
0.489000000000000323,-5.432926604263343506
0.490000000000000324,-5.395886182155856581
0.491000000000000325,-5.359145288016710751
0.492000000000000326,-5.322701910684671134
0.493000000000000327,-5.286554011312713186
0.494000000000000328,-5.250699525223987862
0.495000000000000329,-5.215136363713904544
0.496000000000000330,-5.179862415799115993
0.497000000000000330,-5.144875549914450730
0.498000000000000331,-5.110173615558563753
0.499000000000000332,-5.075754444889438055
0.500000000000000333,-5.041615854270472319
0.501000000000000334,-5.007755645768162900
0.502000000000000335,-4.974171608602357075
0.503000000000000336,-4.940861520549916008
0.504000000000000337,-4.907823149302751986
0.505000000000000338,-4.875054253781174296
0.506000000000000338,-4.842552585403423038
0.507000000000000339,-4.810315889312334114
0.508000000000000340,-4.778341905560001379
0.509000000000000341,-4.746628370251407603
0.510000000000000342,-4.715173016647822735
0.511000000000000343,-4.683973576230934022
0.512000000000000344,-4.653027779728525104
0.513000000000000345,-4.622333358102619805
0.514000000000000346,-4.591888043500945926
0.515000000000000346,-4.561689570172529073
0.516000000000000347,-4.531735675348279813
0.517000000000000348,-4.502024100087487213
0.518000000000000349,-4.472552590090860036
0.519000000000000350,-4.443318896481128100
0.520000000000000351,-4.414320776551861059
0.521000000000000352,-4.385555994485377695
0.522000000000000353,-4.357022322040479345
0.523000000000000353,-4.328717539210782839
0.524000000000000354,-4.300639434854472753
0.525000000000000355,-4.272785807296097360
0.526000000000000356,-4.245154464901248481
0.527000000000000357,-4.217743226624842023
0.528000000000000358,-4.190549922533604033
0.529000000000000359,-4.163572394303622914
0.530000000000000360,-4.136808495693498955
0.531000000000000361,-4.110256092993889609
0.532000000000000361,-4.083913065454030544
0.533000000000000362,-4.057777305685930536
0.534000000000000363,-4.031846720046868171
0.535000000000000364,-4.006119229000800530
0.536000000000000365,-3.980592767459325110
0.537000000000000366,-3.955265285102805173
0.538000000000000367,-3.930134746682171887
0.539000000000000368,-3.905199132302150211
0.540000000000000369,-3.880456437686253146
0.541000000000000369,-3.855904674424320611
0.542000000000000370,-3.831541870203004407
0.543000000000000371,-3.807366069019759269
0.544000000000000372,-3.783375331380933737
0.545000000000000373,-3.759567734484391188
0.546000000000000374,-3.735941372387181936
0.547000000000000375,-3.712494356158769104
0.548000000000000376,-3.689224814020318099
0.549000000000000377,-3.666130891470439135
0.550000000000000377,-3.643210751397897518
0.551000000000000378,-3.620462574181726012
0.552000000000000379,-3.597884557779173598
0.553000000000000380,-3.575474917801921837
0.554000000000000381,-3.553231887580948101
0.555000000000000382,-3.531153718220536142
0.556000000000000383,-3.509238678641677378
0.557000000000000384,-3.487485055615428653
0.558000000000000385,-3.465891153786436973
0.559000000000000385,-3.444455295687131269
0.560000000000000386,-3.423175821742837854
0.561000000000000387,-3.402051090268240152
0.562000000000000388,-3.381079477455480209
0.563000000000000389,-3.360259377354260835
0.564000000000000390,-3.339589201844236133
0.565000000000000391,-3.319067380600043471
0.566000000000000392,-3.298692361049258004
0.567000000000000393,-3.278462608323583716
0.568000000000000393,-3.258376605203532339
0.569000000000000394,-3.238432852056920552
0.570000000000000395,-3.218629866771458126
0.571000000000000396,-3.198966184681603764
0.572000000000000397,-3.179440358490104757
0.573000000000000398,-3.160050958184299041
0.574000000000000399,-3.140796570947577582
0.575000000000000400,-3.121675801066119416
0.576000000000000401,-3.102687269831201355
0.577000000000000401,-3.083829615437312821
0.578000000000000402,-3.065101492876230349
0.579000000000000403,-3.046501573827304465
0.580000000000000404,-3.028028546544186295
0.581000000000000405,-3.009681115738128465
0.582000000000000406,-2.991458002458108556
0.583000000000000407,-2.973357943967918082
0.584000000000000408,-2.955379693620440840
0.585000000000000409,-2.937522020729250727
0.586000000000000409,-2.919783710437720003
0.587000000000000410,-2.902163563585820949
0.588000000000000411,-2.884660396574725727
0.589000000000000412,-2.867273041229416730
0.590000000000000413,-2.850000344659404661
0.591000000000000414,-2.832841169117733315
0.592000000000000415,-2.815794391858402523
0.593000000000000416,-2.798858904992319374
0.594000000000000417,-2.782033615341914956
0.595000000000000417,-2.765317444294621119
0.596000000000000418,-2.748709327655159740
0.597000000000000419,-2.732208215496990000
0.598000000000000420,-2.715813072012782659
0.599000000000000421,-2.699522875364248176
0.600000000000000422,-2.683336617531252077
0.601000000000000423,-2.667253304160426275
0.602000000000000424,-2.651271954413321641
0.603000000000000425,-2.635391600814212421
0.604000000000000425,-2.619611289097627083
0.605000000000000426,-2.603930078055701536
0.606000000000000427,-2.588347039385479498
0.607000000000000428,-2.572861257536090740
0.608000000000000429,-2.557471829556132725
0.609000000000000430,-2.542177864941038479
0.610000000000000431,-2.526978485480770864
