# AuFCC100-Ablate0_BUTENE2-AC
# h[nm],U(h)[kJ/mol]
0.149999999999999994,141.430337227742342066
0.150999999999999995,139.459274634452810915
0.151999999999999996,135.359699400353605370
0.152999999999999997,130.853760301359102414
0.153999999999999998,126.629674961955203116
0.154999999999999999,122.852517097316948025
0.156000000000000000,119.457749792513254761
0.157000000000000001,116.309690690386716483
0.158000000000000002,113.278748619325114078
0.159000000000000002,110.272012385950418434
0.160000000000000003,107.238851839732120652
0.161000000000000004,104.164653960485935613
0.162000000000000005,101.060280794725983355
0.163000000000000006,97.951331413567586992
0.164000000000000007,94.869140829684070582
0.165000000000000008,91.844188408571781679
0.166000000000000009,88.901898047515089729
0.167000000000000010,86.060477366561158874
0.168000000000000010,83.330320692758292012
0.169000000000000011,80.714497860588167555
0.170000000000000012,78.209908885248367483
0.171000000000000013,75.808767300807886613
0.172000000000000014,73.500161382884613204
0.173000000000000015,71.271521334509642998
0.174000000000000016,69.109886662598199791
0.175000000000000017,67.002919954514581491
0.176000000000000018,64.939651706089335903
0.177000000000000018,62.910967433948350447
0.178000000000000019,60.909865119172877712
0.179000000000000020,58.931520202992579982
0.180000000000000021,56.973198841005476822
0.181000000000000022,55.034059599956471232
0.182000000000000023,53.114880626027471067
0.183000000000000024,51.217744605914184319
0.184000000000000025,49.345708395575293537
0.185000000000000026,47.502478593017698927
0.186000000000000026,45.692108981055824302
0.187000000000000027,43.918730916481258930
0.188000000000000028,42.186323533656519658
0.189000000000000029,40.498527120338167151
0.190000000000000030,38.858500210037121292
0.191000000000000031,37.268818777790073682
0.192000000000000032,35.731414360141023678
0.193000000000000033,34.247546868017174404
0.194000000000000034,32.817807241200263491
0.195000000000000034,31.442144824729115982
0.196000000000000035,30.119914355441483877
0.197000000000000036,28.849937663007029442
0.198000000000000037,27.630575554846000585
0.199000000000000038,26.459805817863873756
0.200000000000000039,25.335303790317013295
0.201000000000000040,24.254522500925180140
0.202000000000000041,23.214769913551876357
0.203000000000000042,22.213281334902159614
0.204000000000000042,21.247285525855325261
0.205000000000000043,20.314063495070900700
0.206000000000000044,19.410999341022165510
0.207000000000000045,18.535622843337758781
0.208000000000000046,17.685643786350425444
0.209000000000000047,16.858978228929601073
0.210000000000000048,16.053767118149586679
0.211000000000000049,15.268387784114796801
0.212000000000000050,14.501458953830816512
0.213000000000000050,13.751839988127418479
0.214000000000000051,13.018625082080101052
0.215000000000000052,12.301133180786733234
0.216000000000000053,11.598894353137556124
0.217000000000000054,10.911633340443051665
0.218000000000000055,10.239250958158969240
0.219000000000000056,9.581803980773450746
0.220000000000000057,8.939484085091837784
0.221000000000000058,8.312596368172348704
0.222000000000000058,7.701537895137382073
0.223000000000000059,7.106776670775033722
0.224000000000000060,6.528831368675170665
0.225000000000000061,5.968252093746091447
0.226000000000000062,5.425602399197073211
0.227000000000000063,4.901442728079535627
0.228000000000000064,4.396315402690010643
0.229000000000000065,3.910731242808727082
0.230000000000000066,3.445157856000462537
0.231000000000000066,3.000009610035303087
0.232000000000000067,2.575639268804553517
0.233000000000000068,2.172331248738750276
0.234000000000000069,1.790296432456946363
0.235000000000000070,1.429668459920309553
0.236000000000000071,1.090501404434161659
0.237000000000000072,0.772768731128916642
0.238000000000000073,0.476363428733022676
0.239000000000000073,0.201099201212430467
0.240000000000000074,-0.053287396123642194
0.241000000000000075,-0.287133991458851434
0.242000000000000076,-0.500848715986112802
0.243000000000000077,-0.694905918761813401
0.244000000000000078,-0.869841383313403327
0.245000000000000079,-1.026247147240377355
0.246000000000000080,-1.164766020148672476
0.247000000000000081,-1.286085888819794798
0.248000000000000081,-1.390933891705358416
0.249000000000000082,-1.480070537801463360
0.250000000000000111,-1.554283837823586811
0.251000000000000112,-1.614383508480156326
0.252000000000000113,-1.661195303626364916
0.253000000000000114,-1.695555519244713594
0.254000000000000115,-1.718305712611711611
0.255000000000000115,-1.730287669719035915
0.256000000000000116,-1.732338649064451230
0.257000000000000117,-1.725286924340430073
0.258000000000000118,-1.709947643347176527
0.259000000000000119,-1.687119015654804599
0.260000000000000120,-1.657578837141373995
0.261000000000000121,-1.622081355538810943
0.262000000000000122,-1.581354477523082114
0.263000000000000123,-1.536097314677566716
0.264000000000000123,-1.486978062827771563
0.265000000000000124,-1.434632206774371088
0.266000000000000125,-1.379661040324227761
0.267000000000000126,-1.322630489714008650
0.268000000000000127,-1.264070227020210213
0.269000000000000128,-1.204473058930161988
0.270000000000000129,-1.144294575290569771
0.271000000000000130,-1.083953041131211048
0.272000000000000131,-1.023829515361502684
0.273000000000000131,-0.964268179034538542
0.274000000000000132,-0.905576855948563519
0.275000000000000133,-0.848027708388951140
0.276000000000000134,-0.791858090986690022
0.277000000000000135,-0.737271545965149322
0.278000000000000136,-0.684438923447842518
0.279000000000000137,-0.633499610991522633
0.280000000000000138,-0.584562857076811770
0.281000000000000139,-0.537709173918348382
0.282000000000000139,-0.492991805637436387
0.283000000000000140,-0.450438248559653309
0.284000000000000141,-0.410051811148590517
0.285000000000000142,-0.371813201855379805
0.286000000000000143,-0.335682133943339456
0.287000000000000144,-0.301598937130703404
0.288000000000000145,-0.269486166676021266
0.289000000000000146,-0.239250201303265519
0.290000000000000147,-0.210782822123750158
0.291000000000000147,-0.183962765453632437
0.292000000000000148,-0.158657243146865717
0.293000000000000149,-0.134723424759785104
0.294000000000000150,-0.112009876533016597
0.295000000000000151,-0.090357952817577358
0.296000000000000152,-0.069603136181995956
0.297000000000000153,-0.049576323016603988
0.298000000000000154,-0.030105051997333977
0.299000000000000155,-0.011014673285479093
0.300000000000000155,0.007870543179300065
0.301000000000000156,0.026726361487360233
0.302000000000000157,0.045727596447659176
0.303000000000000158,0.065047193551730470
0.304000000000000159,0.084855372255411440
0.305000000000000160,0.105318832298965367
0.306000000000000161,0.126600022492995679
0.307000000000000162,0.148856471133429480
0.308000000000000163,0.172240176971708070
0.309000000000000163,0.196897059454928136
0.310000000000000164,0.222966466764540044
0.311000000000000165,0.250580740019303527
0.312000000000000166,0.279864831867458919
0.313000000000000167,0.310935977573494449
0.314000000000000168,0.343903416604773970
0.315000000000000169,0.378868162641589845
0.316000000000000170,0.415922819869558424
0.317000000000000171,0.455151443364481878
0.318000000000000171,0.496629441345844302
0.319000000000000172,0.540423517054305358
0.320000000000000173,0.586591648000336918
0.321000000000000174,0.635183100334303363
0.322000000000000175,0.686238476101296513
0.323000000000000176,0.739789791166601374
0.324000000000000177,0.795860581628501818
0.325000000000000178,0.854466036573168219
0.326000000000000179,0.915613155070937879
0.327000000000000179,0.979300925363962849
0.328000000000000180,1.045520524250435290
0.329000000000000181,1.114255534729899910
0.330000000000000182,1.185482180038214706
0.331000000000000183,1.259169572265959269
0.332000000000000184,1.335279973823533251
0.333000000000000185,1.413769070086262625
0.334000000000000186,1.494586251624899553
0.335000000000000187,1.577674904499847930
0.336000000000000187,1.662972707170694120
0.337000000000000188,1.750411932646435131
0.338000000000000189,1.839919754574982580
0.339000000000000190,1.931418556043603463
0.340000000000000191,2.024826239934254257
0.341000000000000192,2.120056539748484514
0.342000000000000193,2.217019329887301105
0.343000000000000194,2.315620934439128753
0.344000000000000195,2.415764433596718774
0.345000000000000195,2.517349966888535739
0.346000000000000196,2.620275032473931009
0.347000000000000197,2.724434781812797191
0.348000000000000198,2.829722309079656828
0.349000000000000199,2.936028934749772112
0.350000000000000200,3.043244482839611464
0.351000000000000201,3.151257551337495411
0.352000000000000202,3.259955775410457335
0.353000000000000203,3.369226083022161422
0.354000000000000203,3.478954942643021297
0.355000000000000204,3.589028602777432297
0.356000000000000205,3.699333323074994517
0.357000000000000206,3.809755596832240521
0.358000000000000207,3.920182364728707736
0.359000000000000208,4.030501219676489555
0.360000000000000209,4.140600602695692523
0.361000000000000210,4.250369989759311906
0.362000000000000210,4.359700069580212833
0.363000000000000211,4.468482912340120627
0.364000000000000212,4.576612129385845051
0.365000000000000213,4.683983023941511448
0.366000000000000214,4.790492732907239315
0.367000000000000215,4.896040359834801237
0.368000000000000216,5.000527099189137736
0.369000000000000217,5.103856352021493237
0.370000000000000218,5.205933833195130589
0.371000000000000218,5.306667670318566010
0.372000000000000219,5.405968494553647474
0.373000000000000220,5.503749523477035943
0.374000000000000221,5.599926636183399253
0.375000000000000222,5.694418440827595518
0.376000000000000223,5.787146334810419290
0.377000000000000224,5.878034557819252548
0.378000000000000225,5.967010237940214346
0.379000000000000226,6.054003431063180507
0.380000000000000226,6.138947153804505064
0.381000000000000227,6.221777410175244327
0.382000000000000228,6.302433212224583414
0.383000000000000229,6.380856594889456446
0.384000000000000230,6.456992625282109266
0.385000000000000231,6.530789406647033779
0.386000000000000232,6.602198077218323746
0.387000000000000233,6.671172804207165186
0.388000000000000234,6.737670773147582004
0.389000000000000234,6.801652172826251785
0.390000000000000235,6.863080176019896506
0.391000000000000236,6.921920916260374312
0.392000000000000237,6.978143460844789203
0.393000000000000238,7.031719780303808065
0.394000000000000239,7.082624714537759658
0.395000000000000240,7.130835935825814431
0.396000000000000241,7.176333908909107606
0.397000000000000242,7.219101848344083194
0.398000000000000242,7.259125673317564420
0.399000000000000243,7.296393960110068910
0.400000000000000244,7.330897892389057979
0.401000000000000245,7.362631209508144536
0.402000000000000246,7.391590152983665618
0.403000000000000247,7.417773411314274590
0.404000000000000248,7.441182063303962479
0.405000000000000249,7.461819520043643017
0.406000000000000250,7.479691465700848418
0.407000000000000250,7.494805797261832936
0.408000000000000251,7.507172563364949092
0.409000000000000252,7.516803902358638823
0.410000000000000253,7.523713979712385758
0.411000000000000254,7.527918924903272746
0.412000000000000255,7.529436767895935745
0.413000000000000256,7.528287375328240216
0.414000000000000257,7.524492386510121200
0.415000000000000258,7.518075149337865248
0.416000000000000258,7.509060656221298480
0.417000000000000259,7.497475480116358781
0.418000000000000260,7.483347710750950732
0.419000000000000261,7.466706891127202539
0.420000000000000262,7.447583954378741211
0.421000000000000263,7.426011161057189724
0.422000000000000264,7.402022036917733416
0.423000000000000265,7.375651311269455945
0.424000000000000266,7.346934855951860577
0.425000000000000266,7.315909624995268423
0.426000000000000267,7.282613595018747610
0.427000000000000268,7.247085706415438366
0.428000000000000269,7.209365805371713343
0.429000000000000270,7.169494586762878541
0.430000000000000271,7.127513537964813573
0.431000000000000272,7.083464883617731189
0.432000000000000273,7.037391531374947995
0.433000000000000274,6.989337018666658352
0.434000000000000274,6.939345460505535357
0.435000000000000275,6.887461498358528722
0.436000000000000276,6.833730250106169635
0.437000000000000277,6.778197261108246607
0.438000000000000278,6.720908456392308494
0.439000000000000279,6.661910093978919534
0.440000000000000280,6.601248719355353956
0.441000000000000281,6.538971121107420181
0.442000000000000282,6.475124287716663041
0.443000000000000282,6.409755365528674531
0.444000000000000283,6.342911617895947707
0.445000000000000284,6.274640385497241901
0.446000000000000285,6.204989047833533888
0.447000000000000286,6.134004985899140117
0.448000000000000287,6.061735546024997312
0.449000000000000288,5.988228004889790235
0.450000000000000289,5.913529535693035299
0.451000000000000290,5.837687175483237567
0.452000000000000290,5.760747793632849501
0.453000000000000291,5.682758061450681630
0.454000000000000292,5.603764422921446275
0.455000000000000293,5.523813066561006124
0.456000000000000294,5.442949898375140982
0.457000000000000295,5.361220515908710738
0.458000000000000296,5.278670183371247937
0.459000000000000297,5.195343807824539972
0.460000000000000298,5.111285916416693276
0.461000000000000298,5.026540634647092887
0.462000000000000299,4.941151665645530322
0.463000000000000300,4.855162270448787787
0.464000000000000301,4.768615249257152300
0.465000000000000302,4.681552923653216070
0.466000000000000303,4.594017119764575163
0.467000000000000304,4.506049152352217035
0.468000000000000305,4.417689809805685819
0.469000000000000306,4.328979340026045008
0.470000000000000306,4.239957437177576338
0.471000000000000307,4.150663229288704237
0.472000000000000308,4.061135266682804001
0.473000000000000309,3.971411511219206769
0.474000000000000310,3.881529326324929308
0.475000000000000311,3.791525467797124183
0.476000000000000312,3.701436075357080746
0.477000000000000313,3.611296664935490064
0.478000000000000314,3.521142121669858405
0.479000000000000314,3.431006693594186086
0.480000000000000315,3.340923986001568036
0.481000000000000316,3.250926956460285400
0.482000000000000317,3.161047910464132915
0.483000000000000318,3.071318497697901773
0.484000000000000319,2.981769708899013160
0.485000000000000320,2.892431873296593903
0.486000000000000321,2.803334656609321129
0.487000000000000322,2.714507059583715520
0.488000000000000322,2.625977417054652374
0.489000000000000323,2.537773397510249662
0.490000000000000324,2.449922003143277571
0.491000000000000325,2.362449570371764285
0.492000000000000326,2.275381770811480742
0.493000000000000327,2.188743612683480499
0.494000000000000328,2.102559442639911680
0.495000000000000329,2.016852947991779388
0.496000000000000330,1.931647159322537943
0.497000000000000330,1.846964453471650058
0.498000000000000331,1.762826556872617134
0.499000000000000332,1.679254549230325466
0.500000000000000333,1.596268867522584234
0.501000000000000334,1.513889310311417047
0.502000000000000335,1.432135042349651055
0.503000000000000336,1.351024599468919840
0.504000000000000337,1.270575893735179873
0.505000000000000338,1.190806218858533994
0.506000000000000338,1.111732255844148920
0.507000000000000339,1.033370078871473474
0.508000000000000340,0.955735161389358212
0.509000000000000341,0.878842382414859125
0.510000000000000342,0.802706033023845800
0.511000000000000343,0.727339823021869503
0.512000000000000344,0.652756887784028739
0.513000000000000345,0.578969795252922581
0.514000000000000346,0.505990553083899841
0.515000000000000346,0.433830615927414065
0.516000000000000347,0.362500892838272026
0.517000000000000348,0.292011754802087187
0.518000000000000349,0.222373042369346630
0.519000000000000350,0.153594073388024277
0.520000000000000351,0.085683650825636531
0.521000000000000352,0.018650070672223983
0.522000000000000353,-0.047498870084149956
0.523000000000000353,-0.112755865417617729
0.524000000000000354,-0.177114092168063481
0.525000000000000355,-0.240567201895868443
0.526000000000000356,-0.303109312694940236
0.527000000000000357,-0.364735000971234125
0.528000000000000358,-0.425439293193685231
0.529000000000000359,-0.485217657623842058
0.530000000000000360,-0.544065996030900889
0.531000000000000361,-0.601980635398006947
0.532000000000000361,-0.658958319625871036
0.533000000000000362,-0.714996201239210150
0.534000000000000363,-0.770091833101593570
0.535000000000000364,-0.824243160143852682
0.536000000000000365,-0.877448511111045049
0.537000000000000366,-0.929706590332836091
0.538000000000000367,-0.981016469521859724
0.539000000000000368,-1.031377579604481953
0.540000000000000369,-1.080789702588190959
0.541000000000000369,-1.129252963469614901
0.542000000000000370,-1.176767822187001711
0.543000000000000371,-1.223335065620886342
0.544000000000000372,-1.268955799646342752
0.545000000000000373,-1.313631441240188380
0.546000000000000374,-1.357363710646314336
0.547000000000000375,-1.400154623602050341
0.548000000000000376,-1.442006483628482716
0.549000000000000377,-1.482921874387315375
0.550000000000000377,-1.522903652106921246
0.551000000000000378,-1.561954938079807009
0.552000000000000379,-1.600079111233898121
0.553000000000000380,-1.637279800779624539
0.554000000000000381,-1.673560878934841512
0.555000000000000382,-1.708926453729443296
0.556000000000000383,-1.743380861891319800
0.557000000000000384,-1.776928661815339483
0.558000000000000385,-1.809574626616761162
0.559000000000000385,-1.841323737270518679
0.560000000000000386,-1.872181175837557943
0.561000000000000387,-1.902152318779447793
0.562000000000000388,-1.931242730362244142
0.563000000000000389,-1.959458156150647223
0.564000000000000390,-1.986804516593177583
0.565000000000000391,-2.013287900699259669
0.566000000000000392,-2.038914559808795879
0.567000000000000393,-2.063690901454855009
0.568000000000000393,-2.087623483319934081
0.569000000000000394,-2.110719007286274262
0.570000000000000395,-2.132984313580536195
0.571000000000000396,-2.154426375013057005
0.572000000000000397,-2.175052291311993624
0.573000000000000398,-2.194869283552392858
0.574000000000000399,-2.213884688680244572
0.575000000000000400,-2.232105954131600178
0.576000000000000401,-2.249540632546570329
0.577000000000000401,-2.266196376578206717
0.578000000000000402,-2.282080933795978872
0.579000000000000403,-2.297202141683682086
0.580000000000000404,-2.311567922731483371
0.581000000000000405,-2.325186279621727081
0.582000000000000406,-2.338065290508204885
0.583000000000000407,-2.350213104388349628
0.584000000000000408,-2.361637936568041329
0.585000000000000409,-2.372348064218342323
0.586000000000000409,-2.382351822023752952
0.587000000000000410,-2.391657597921366118
0.588000000000000411,-2.400273828930238107
0.589000000000000412,-2.408208997070454771
0.590000000000000413,-2.415471625371068409
0.591000000000000414,-2.422070273966310694
0.592000000000000415,-2.428013536279288509
0.593000000000000416,-2.433310035292377993
0.594000000000000417,-2.437968419903590256
0.595000000000000417,-2.441997361368051234
0.596000000000000418,-2.445405549823742142
0.597000000000000419,-2.448201690900740246
0.598000000000000420,-2.450394502412938103
0.599000000000000421,-2.451992711131507185
0.600000000000000422,-2.453005049639094715
0.601000000000000423,-2.453440253263834414
0.602000000000000424,-2.453307057092311450
0.603000000000000425,-2.452614193060479231
0.604000000000000425,-2.451370387121519112
0.605000000000000426,-2.449584356489792558
0.606000000000000427,-2.447264806959805306
0.607000000000000428,-2.444420430299218072
0.608000000000000429,-2.441059901714960123
0.609000000000000430,-2.437191877391346573
0.610000000000000431,-2.432824992099306805
0.611000000000000432,-2.427967856875588026
0.612000000000000433,-2.422629056771028466
0.613000000000000433,-2.416817148666812631
0.614000000000000434,-2.410540659157708543
0.615000000000000435,-2.403808082501244670
0.616000000000000436,-2.396627878631834907
0.617000000000000437,-2.389008471238818654
0.618000000000000438,-2.380958245907351944
