# AuFCC100-Ablate0_GLY-JS
# h[nm],U(h)[kJ/mol]
0.200000000000000011,117.067757743443010554
0.201000000000000012,109.049185267918829823
0.202000000000000013,104.407904772047714914
0.203000000000000014,101.265481543336960613
0.204000000000000015,98.590312568678953653
0.205000000000000016,95.877868783620598947
0.206000000000000016,92.936079287889214129
0.207000000000000017,89.744831934492154346
0.208000000000000018,86.366975919499353154
0.209000000000000019,82.894488909986961289
0.210000000000000020,79.418128277925958969
0.211000000000000021,76.012318413844710108
0.212000000000000022,72.729536744646026136
0.213000000000000023,69.600281357219813572
0.214000000000000024,66.636009215635539249
0.215000000000000024,63.833359510033936601
0.216000000000000025,61.178622664160954514
0.217000000000000026,58.651857885351070365
0.218000000000000027,56.230357661574565498
0.219000000000000028,53.891348523504760237
0.220000000000000029,51.613934875825840720
0.221000000000000030,49.380359598692365353
0.222000000000000031,47.176687995646759077
0.223000000000000032,44.993032402019274230
0.224000000000000032,42.823431773307213177
0.225000000000000033,40.665489688514405486
0.226000000000000034,38.519859398805827766
0.227000000000000035,36.389648443505521413
0.228000000000000036,34.279799593848309769
0.229000000000000037,32.196490441802573912
0.230000000000000038,30.146581331405549520
0.231000000000000039,28.137130725104782414
0.232000000000000040,26.174988497414727107
0.233000000000000040,24.266470919672777029
0.234000000000000041,22.417116041904453283
0.235000000000000042,20.631514559676617182
0.236000000000000043,18.913208838881271134
0.237000000000000044,17.264651333562994751
0.238000000000000045,15.687212964643270752
0.239000000000000046,14.181231948423473455
0.240000000000000047,12.746093916657171619
0.241000000000000048,11.380334823895081442
0.242000000000000048,10.081758985769647907
0.243000000000000049,8.847565548580453409
0.244000000000000050,7.674477689680505144
0.245000000000000051,6.558869839763859844
0.246000000000000052,5.496889165989589543
0.247000000000000053,4.484568433997772274
0.248000000000000054,3.517928161483951932
0.249000000000000055,2.593066677514344498
0.250000000000000056,1.706237307171035500
0.251000000000000056,0.853912411586514764
0.252000000000000057,0.032834433146313381
0.253000000000000058,-0.759945569120590081
0.254000000000000059,-1.527041150603634545
0.255000000000000060,-2.270714545516276495
0.256000000000000061,-2.992870501824746565
0.257000000000000062,-3.695058745728436289
0.258000000000000063,-4.378483900001492124
0.259000000000000064,-5.044021681598411355
0.260000000000000064,-5.692240233841327601
0.261000000000000065,-6.323425500938041566
0.262000000000000066,-6.937609621942994131
0.263000000000000067,-7.534601402686432081
0.264000000000000068,-8.114018013475373436
0.265000000000000069,-8.675317153972409656
0.266000000000000070,-9.217829021645531640
0.267000000000000071,-9.740787514167630334
0.268000000000000071,-10.243360187224684665
0.269000000000000072,-10.724676575907929887
0.270000000000000073,-11.183854569129669798
0.271000000000000074,-11.620024601558867516
0.272000000000000075,-12.032351495942609887
0.273000000000000076,-12.420053850112390492
0.274000000000000077,-12.782420917417216089
0.275000000000000078,-13.118826976873695145
0.276000000000000079,-13.428743230197961012
0.277000000000000079,-13.711747297398781953
0.278000000000000080,-13.967530411145276048
0.279000000000000081,-14.195902433108779306
0.280000000000000082,-14.396794833373075306
0.281000000000000083,-14.570261787287032362
0.282000000000000084,-14.716479553274893988
0.283000000000000085,-14.835744300594541301
0.284000000000000086,-14.928468558297783630
0.285000000000000087,-14.995176456137636833
0.286000000000000087,-15.036497925296085754
0.287000000000000088,-15.053162021957234629
0.288000000000000089,-15.045989530279626933
0.289000000000000090,-15.015884993553418880
0.290000000000000091,-14.963828313554781602
0.291000000000000092,-14.890866048598160987
0.292000000000000093,-14.798102530767476281
0.293000000000000094,-14.686690912488554517
0.294000000000000095,-14.557824242164254969
0.295000000000000095,-14.412726658185334827
0.296000000000000096,-14.252644780384324363
0.297000000000000097,-14.078839368025516166
0.298000000000000098,-13.892577303809520828
0.299000000000000099,-13.695123954189451609
0.300000000000000100,-13.487735947599929887
0.301000000000000101,-13.271654404032608099
0.302000000000000102,-13.048098641781482598
0.303000000000000103,-12.818260380143039256
0.304000000000000103,-12.583298450400707935
0.305000000000000104,-12.344334021547897606
0.306000000000000105,-12.102446341902890481
0.307000000000000106,-11.858668993027640326
0.308000000000000107,-11.613986648164843274
0.309000000000000108,-11.369332323730549916
0.310000000000000109,-11.125585109218416591
0.311000000000000110,-10.883568358160779610
0.312000000000000111,-10.644048320520477446
0.313000000000000111,-10.407733195028402662
0.314000000000000112,-10.175272578503568255
0.315000000000000113,-9.947257288064786707
0.316000000000000114,-9.724219531337798372
0.317000000000000115,-9.506633399246615213
0.318000000000000116,-9.294915655726905257
0.319000000000000117,-9.089426798683607700
0.320000000000000118,-8.890472366708440433
0.321000000000000119,-8.698304466450270667
0.322000000000000119,-8.513123496069422202
0.323000000000000120,-8.335080040882395735
0.324000000000000121,-8.164276918096298630
0.325000000000000122,-8.000771348422706097
0.326000000000000123,-7.844577233330710442
0.327000000000000124,-7.695667517731993534
0.328000000000000125,-7.553976618972848556
0.329000000000000126,-7.419402904123498566
0.330000000000000127,-7.291811198693336493
0.331000000000000127,-7.171035311050341754
0.332000000000000128,-7.056880557972791124
0.333000000000000129,-6.949126277904670523
0.334000000000000130,-6.847528319613569003
0.335000000000000131,-6.751821495056032241
0.336000000000000132,-6.661721986333219547
0.337000000000000133,-6.576929697665879537
0.338000000000000134,-6.497130544326760848
0.339000000000000135,-6.421998671438565509
0.340000000000000135,-6.351198596472402258
0.341000000000000136,-6.284387270164748074
0.342000000000000137,-6.221216051407782999
0.343000000000000138,-6.161332592457945623
0.344000000000000139,-6.104382631550231864
0.345000000000000140,-6.050011690701104783
0.346000000000000141,-5.997866677130319069
0.347000000000000142,-5.947597387333368957
0.348000000000000143,-5.898857913391312380
0.349000000000000143,-5.851307951614564296
0.350000000000000144,-5.804614014084009455
0.351000000000000145,-5.758450544076489486
0.352000000000000146,-5.712500936744962843
0.353000000000000147,-5.666458466767478441
0.354000000000000148,-5.620027124985554678
0.355000000000000149,-5.572922366322838883
0.356000000000000150,-5.524871771511820739
0.357000000000000151,-5.475615625360548577
0.358000000000000151,-5.424907414465488742
0.359000000000000152,-5.372514247422243372
0.360000000000000153,-5.318217200704948411
0.361000000000000154,-5.261811593479074567
0.362000000000000155,-5.203107194683545877
0.363000000000000156,-5.141928365767644671
0.364000000000000157,-5.078114142497886618
0.365000000000000158,-5.011518259262350838
0.366000000000000159,-4.942009119294644037
0.367000000000000159,-4.869469714220185708
0.368000000000000160,-4.793797496294238236
0.369000000000000161,-4.714904206655099905
0.370000000000000162,-4.632715662859541617
0.371000000000000163,-4.547171508901346471
0.372000000000000164,-4.458224930838521338
0.373000000000000165,-4.365842341073038924
0.374000000000000166,-4.270003034237711326
0.375000000000000167,-4.170698817550844595
0.376000000000000167,-4.067933618400648044
0.377000000000000168,-3.961723071818644915
0.378000000000000169,-3.852094090396140924
0.379000000000000170,-3.739084419090148881
0.380000000000000171,-3.622742177255821705
0.381000000000000172,-3.503125390132562522
0.382000000000000173,-3.380301511900162925
0.383000000000000174,-3.254346942311231228
0.384000000000000175,-3.125346538796011764
0.385000000000000175,-2.993393125827111589
0.386000000000000176,-2.858587003223979739
0.387000000000000177,-2.721035454971292289
0.388000000000000178,-2.580852260021579525
0.389000000000000179,-2.438157206450777714
0.390000000000000180,-2.293075610236509299
0.391000000000000181,-2.145737839832084326
0.392000000000000182,-1.996278847616224095
0.393000000000000183,-1.844837709207116871
0.394000000000000183,-1.691557171542553473
0.395000000000000184,-1.536583210543154721
0.396000000000000185,-1.380064599094475541
0.397000000000000186,-1.222152486006281125
0.398000000000000187,-1.062999986532416674
0.399000000000000188,-0.902761784963497904
0.400000000000000189,-0.741593749737128105
0.401000000000000190,-0.579652561445128889
0.402000000000000191,-0.417095354056842837
0.403000000000000191,-0.254079369618668616
0.404000000000000192,-0.090761626635861917
0.405000000000000193,0.072701397709428628
0.406000000000000194,0.236154071398361198
0.407000000000000195,0.399441897413774116
0.408000000000000196,0.562411789559544184
0.409000000000000197,0.724912334283248416
0.410000000000000198,0.886794038561470876
0.411000000000000199,1.047909563941483047
0.412000000000000199,1.208113946864676880
0.413000000000000200,1.367264805426077423
0.414000000000000201,1.525222532751335347
0.415000000000000202,1.681850477196926708
0.416000000000000203,1.837015109601157103
0.417000000000000204,1.990586177834323234
0.418000000000000205,2.142436848913657155
0.419000000000000206,2.292443838965225744
0.420000000000000207,2.440487531329273541
0.421000000000000207,2.586452083117380063
0.422000000000000208,2.730225520541480932
0.423000000000000209,2.871699823343179858
0.424000000000000210,3.010770998660153186
0.425000000000000211,3.147339144672440359
0.426000000000000212,3.281308504376538426
0.427000000000000213,3.412587509839019706
0.428000000000000214,3.541088817283826184
0.429000000000000214,3.666729333369205257
0.430000000000000215,3.789430233010482763
0.431000000000000216,3.909116969104454942
0.432000000000000217,4.025719274510118240
0.433000000000000218,4.139171156637983628
0.434000000000000219,4.249410884997565141
0.435000000000000220,4.356380972048993883
0.436000000000000221,4.460028147700548118
0.437000000000000222,4.560303327789127614
0.438000000000000222,4.657161576875359366
0.439000000000000223,4.750562065679281076
0.440000000000000224,4.840468023476542925
0.441000000000000225,4.926846685768259348
0.442000000000000226,5.009669237530812502
0.443000000000000227,5.088910752345005228
0.444000000000000228,5.164550127696094783
0.445000000000000229,5.236570016728982147
0.446000000000000230,5.304956756734664047
0.447000000000000230,5.369700294636425397
0.448000000000000231,5.430794109735820108
0.449000000000000232,5.488235133970439605
0.450000000000000233,5.542023669927325535
0.451000000000000234,5.592163306847251825
0.452000000000000235,5.638660834847175174
0.453000000000000236,5.681526157579561698
0.454000000000000237,5.720772203539014278
0.455000000000000238,5.756414836218630704
0.456000000000000238,5.788472763309918889
0.457000000000000239,5.816967445132438463
0.458000000000000240,5.841923002470824855
0.459000000000000241,5.863366123989401935
0.460000000000000242,5.881325973386323014
0.461000000000000243,5.895834096441861405
0.462000000000000244,5.906924328107618472
0.463000000000000245,5.914632699776221969
0.464000000000000246,5.918997346863653419
0.465000000000000246,5.920058416829276027
0.466000000000000247,5.917857977751731724
0.467000000000000248,5.912439927572029852
0.468000000000000249,5.903849904108517954
0.469000000000000250,5.892135195942012516
0.470000000000000251,5.877344654263105816
0.471000000000000252,5.859528605767570397
0.472000000000000253,5.838738766679776759
0.473000000000000254,5.815028157978494150
0.474000000000000254,5.788451021893767034
0.475000000000000255,5.759062739738143755
0.476000000000000256,5.726919751130595593
0.477000000000000257,5.692079474666152272
0.478000000000000258,5.654600230079640966
0.479000000000000259,5.614541161947364856
0.480000000000000260,5.571962164965772679
0.481000000000000261,5.526923810842251150
0.482000000000000262,5.479487276828743703
0.483000000000000262,5.429714275925242362
0.484000000000000263,5.377666988776097057
0.485000000000000264,5.323407997278861714
0.486000000000000265,5.267000219921490256
0.487000000000000266,5.208506848860810834
0.488000000000000267,5.147991288751919470
0.489000000000000268,5.085517097334943060
0.490000000000000269,5.021147927783227161
0.491000000000000270,4.954947472813842957
0.492000000000000270,4.886979410559101566
0.493000000000000271,4.817307352195141945
0.494000000000000272,4.745994791321610506
0.495000000000000273,4.673105055083826009
0.496000000000000274,4.598701257027537181
0.497000000000000275,4.522846251673772855
0.498000000000000276,4.445602590799829557
0.499000000000000277,4.367032481410928924
0.500000000000000222,4.287197745385006975
0.501000000000000334,4.206159780772328993
0.502000000000000224,4.123979524729641355
0.503000000000000336,4.040717418067705680
0.504000000000000226,3.956433371389930009
0.505000000000000338,3.871186732798303609
0.506000000000000227,3.785036257142663008
0.507000000000000339,3.698040076787488140
0.508000000000000229,3.610255673870632620
0.509000000000000341,3.521739854026529226
0.510000000000000231,3.432548721547122650
0.511000000000000343,3.342737655951720122
0.512000000000000233,3.252361289937925726
0.513000000000000345,3.161473488683967936
0.514000000000000234,3.070127330473700678
0.515000000000000346,2.978375088613968380
0.516000000000000236,2.886268214615022032
0.517000000000000348,2.793857322603167326
0.518000000000000238,2.701192174936050350
0.519000000000000350,2.608321668989422193
0.520000000000000240,2.515293825085683110
0.521000000000000352,2.422155775533030742
0.522000000000000242,2.328953754745433979
0.523000000000000353,2.235733090412316493
0.524000000000000243,2.142538195688488134
0.525000000000000355,2.049412562373420954
0.526000000000000245,1.956398755050608784
0.527000000000000357,1.863538406156568072
0.528000000000000247,1.770872211950637265
0.529000000000000359,1.678439929355705074
0.530000000000000249,1.586280373641367980
0.531000000000000361,1.494431416920427580
0.532000000000000250,1.402929987430828529
0.533000000000000362,1.311812069574460837
0.534000000000000252,1.221112704685964445
0.535000000000000364,1.130865992503311546
0.536000000000000254,1.041105093314397489
0.537000000000000366,0.951862230752161920
0.538000000000000256,0.863168695213114234
0.539000000000000368,0.775054847872935992
0.540000000000000258,0.687550125274730695
0.541000000000000369,0.600683044464466298
0.542000000000000259,0.514481208650279909
0.543000000000000371,0.428971313361050210
0.544000000000000261,0.344179153081587363
0.545000000000000373,0.260129628341283947
0.546000000000000263,0.176846753234264575
0.547000000000000375,0.094353663348672165
0.548000000000000265,0.012672624084558260
0.549000000000000377,-0.068174960661349732
0.550000000000000266,-0.148168539463492566
0.551000000000000378,-0.227288404008507167
0.552000000000000268,-0.305515679428219944
0.553000000000000380,-0.382832314343911240
0.554000000000000270,-0.459221070639824702
0.555000000000000382,-0.534665512984229485
0.556000000000000272,-0.609149998115005031
0.557000000000000384,-0.682659663907012160
0.558000000000000274,-0.755180418237472062
0.559000000000000385,-0.826698927665478700
0.560000000000000275,-0.897202605940935149
0.561000000000000387,-0.966679602358241907
0.562000000000000277,-1.035118789968915598
0.563000000000000389,-1.102509753667711090
0.564000000000000279,-1.168842778165445351
0.565000000000000391,-1.234108835862201881
0.566000000000000281,-1.298299574633246856
0.567000000000000393,-1.361407305540470514
0.568000000000000282,-1.423424990480855801
0.569000000000000394,-1.484346229783915172
0.570000000000000284,-1.544165249768694403
0.571000000000000396,-1.602876890271657029
0.572000000000000286,-1.660476592155155418
0.573000000000000398,-1.716960384806871076
0.574000000000000288,-1.772324873639403275
0.575000000000000400,-1.826567227599521503
0.576000000000000290,-1.879685166695458820
0.577000000000000401,-1.931676949551144329
0.578000000000000291,-1.982541360995013990
0.579000000000000403,-2.032277699691509731
0.580000000000000293,-2.080885765822343636
0.581000000000000405,-2.128365848824968598
0.582000000000000295,-2.174718715194542185
0.583000000000000407,-2.219945596356370565
0.584000000000000297,-2.264048176614384289
0.585000000000000409,-2.307028581182037019
0.586000000000000298,-2.348889364300666305
0.587000000000000410,-2.389633497451022048
0.588000000000000300,-2.429264357662531459
0.589000000000000412,-2.467785715925403967
0.590000000000000302,-2.505201725709665705
0.591000000000000414,-2.541516911595627981
0.592000000000000304,-2.576736158019510281
0.593000000000000416,-2.610864698138058326
0.594000000000000306,-2.643908102815538452
0.595000000000000417,-2.675872269736508713
0.596000000000000307,-2.706763412647135603
0.597000000000000419,-2.736588050728151256
0.598000000000000309,-2.765352998101885174
0.599000000000000421,-2.793065353475780999
0.600000000000000311,-2.819732489924700936
0.601000000000000423,-2.845362044814003344
0.602000000000000313,-2.869961909865101468
0.603000000000000425,-2.893540221365495491
0.604000000000000314,-2.916105350524344608
0.605000000000000426,-2.937665893975331066
0.606000000000000316,-2.958230664427670575
0.607000000000000428,-2.977808681466460605
0.608000000000000318,-2.996409162503233414
0.609000000000000430,-3.014041513877383061
0.610000000000000320,-3.030715322109080123
0.611000000000000432,-3.046440345304211483
0.612000000000000322,-3.061226504711579643
0.613000000000000433,-3.075083876432656904
0.614000000000000323,-3.088022683283985437
0.615000000000000435,-3.100053286812201492
0.616000000000000325,-3.111186179461513657
0.617000000000000437,-3.121431976893575211
0.618000000000000327,-3.130801410459238987
0.619000000000000439,-3.139305319821923401
0.620000000000000329,-3.146954645732045641
0.621000000000000441,-3.153760422951900289
0.622000000000000330,-3.159733773330385631
0.623000000000000442,-3.164885899026800953
0.624000000000000332,-3.169228075882826179
0.625000000000000444,-3.172771646941948021
0.626000000000000334,-3.175528016115223284
0.627000000000000446,-3.177508641992437433
0.628000000000000336,-3.178725031797572598
0.629000000000000448,-3.179188735487443296
0.630000000000000338,-3.178911339992255503
0.631000000000000449,-3.177904463596952667
0.632000000000000339,-3.176179750461985751
0.633000000000000451,-3.173748865282151055
0.634000000000000341,-3.170623488082187968
0.635000000000000453,-3.166815309147709367
0.636000000000000343,-3.162336024089930753
0.637000000000000455,-3.157197329042845890
0.638000000000000345,-3.151410915991198713
0.639000000000000457,-3.144988468227783329
0.640000000000000346,-3.137941655938492502
0.641000000000000458,-3.130282131913472377
0.642000000000000348,-3.122021527382816242
0.643000000000000460,-3.113171447975094708
0.644000000000000350,-3.103743469797139554
0.645000000000000462,-3.093749135633291569
0.646000000000000352,-3.083199951262543426
0.647000000000000464,-3.072107381891778122
0.648000000000000353,-3.060482848703454550
0.649000000000000465,-3.048337725515903429
0.650000000000000355,-3.035683335554693052
0.651000000000000467,-3.022530948333053136
0.652000000000000357,-3.008891776639937454
0.653000000000000469,-2.994776973633583417
0.654000000000000359,-2.980197630039247425
0.655000000000000471,-2.965164771448983050
0.656000000000000361,-2.949689355721947681
0.657000000000000473,-2.933782270483363597
0.658000000000000362,-2.917454330720463673
0.659000000000000474,-2.900716276473603195
0.660000000000000364,-2.883578770620855991
0.661000000000000476,-2.866052396754297682
0.662000000000000366,-2.848147657146338219
0.663000000000000478,-2.829874970804236334
0.664000000000000368,-2.811244671611261126
0.665000000000000480,-2.792267006552638264
