# AuFCC100-Ablate0_CS-7021-AC
# h[nm],U(h)[kJ/mol]
0.200000000000000011,133.907381406191916540
0.201000000000000012,124.937353948678037341
0.202000000000000013,119.592183893834317132
0.203000000000000014,115.870805999853956791
0.204000000000000015,112.670191157506650370
0.205000000000000016,109.447636113288155002
0.206000000000000016,105.993690287089563640
0.207000000000000017,102.283177776044638563
0.208000000000000018,98.380570413477556713
0.209000000000000019,94.382538458219784161
0.210000000000000020,90.385384811451118026
0.211000000000000021,86.468668404141268979
0.212000000000000022,82.688958299615180181
0.213000000000000023,79.079573467479505666
0.214000000000000024,75.653538001598406026
0.215000000000000024,72.407957379059666891
0.216000000000000025,69.328703736151410908
0.217000000000000026,66.394766504367552784
0.218000000000000027,63.581938574252504282
0.219000000000000028,60.865711698099048022
0.220000000000000029,58.223380821144964159
0.221000000000000030,55.635429437975517430
0.222000000000000031,53.086304337973999168
0.223000000000000032,50.564700754727894605
0.224000000000000032,48.063476845385068259
0.225000000000000033,45.579305781670399256
0.226000000000000034,43.112158750376067928
0.227000000000000035,40.664695627836870528
0.228000000000000036,38.241623780975892544
0.229000000000000037,35.849070409907554335
0.230000000000000038,33.494000641139379582
0.231000000000000039,31.183702430053880761
0.232000000000000040,28.925350244249905529
0.233000000000000040,26.725652350318341632
0.234000000000000041,24.590581116140828755
0.235000000000000042,22.525181834830029004
0.236000000000000043,20.533452933118642392
0.237000000000000044,18.618288813538185877
0.238000000000000045,16.781475782352753612
0.239000000000000046,15.023731344485616646
0.240000000000000047,13.344777439424138521
0.241000000000000048,11.743438811276153189
0.242000000000000048,10.217758539363687831
0.243000000000000049,8.765123712929474564
0.244000000000000050,7.382395244403741508
0.245000000000000051,6.066036826908308477
0.246000000000000052,4.812239014314319441
0.247000000000000053,3.617035309086970241
0.248000000000000054,2.476407966843617192
0.249000000000000055,1.386381957133278275
0.250000000000000056,0.343106153439719896
0.251000000000000056,-0.657078637691715706
0.252000000000000057,-1.617584754466291797
0.253000000000000058,-2.541535453474343509
0.254000000000000059,-3.431734690256167397
0.255000000000000060,-4.290648011240691062
0.256000000000000061,-5.120393517324686172
0.257000000000000062,-5.922741769070023032
0.258000000000000063,-6.699123458799832065
0.259000000000000064,-7.450643667960697769
0.260000000000000064,-8.178101551794011215
0.261000000000000065,-8.882014341113134037
0.262000000000000066,-9.562644617027563854
0.263000000000000067,-10.220029893712750280
0.264000000000000068,-10.854013632428655356
0.265000000000000069,-11.464276903230613769
0.266000000000000070,-12.050370006100527220
0.267000000000000071,-12.611743458031074994
0.268000000000000071,-13.147777844895950139
0.269000000000000072,-13.657812125170005757
0.270000000000000073,-14.141170055546353979
0.271000000000000074,-14.597184485398850384
0.272000000000000075,-15.025219337315661505
0.273000000000000076,-15.424689154278212300
0.274000000000000077,-15.795076150384563363
0.275000000000000078,-16.135944751378467288
0.276000000000000079,-16.446953653840228782
0.277000000000000079,-16.727865468017803607
0.278000000000000080,-16.978554039293200617
0.279000000000000081,-17.199009567614048422
0.280000000000000082,-17.389341663327250842
0.281000000000000083,-17.549780492205577787
0.282000000000000084,-17.680676172538664304
0.283000000000000085,-17.782496593443944732
0.284000000000000086,-17.855823826501371343
0.285000000000000087,-17.901349302874486114
0.286000000000000087,-17.919867925668384601
0.287000000000000088,-17.912271282786377924
0.288000000000000089,-17.879540119345342930
0.289000000000000090,-17.822736221129588330
0.290000000000000091,-17.742993851905733749
0.291000000000000092,-17.641510877961543713
0.292000000000000093,-17.519539703209474624
0.293000000000000094,-17.378378127827055266
0.294000000000000095,-17.219360232876205430
0.295000000000000095,-17.043847382812856495
0.296000000000000096,-16.853219427404496855
0.297000000000000097,-16.648866174429663545
0.298000000000000098,-16.432179194735113015
0.299000000000000099,-16.204544011849655760
0.300000000000000100,-15.967332719456598156
0.301000000000000101,-15.721897061654782846
0.302000000000000102,-15.469562003123673577
0.303000000000000103,-15.211619809068508857
0.304000000000000103,-14.949324648169710628
0.305000000000000104,-14.683887725696433080
0.306000000000000105,-14.416472948462871528
0.307000000000000106,-14.148193118393251666
0.308000000000000107,-13.880106647104316409
0.309000000000000108,-13.613214780087389499
0.310000000000000109,-13.348459315754482191
0.311000000000000110,-13.086720801776277057
0.312000000000000111,-12.828817188755815337
0.313000000000000111,-12.575502919321525752
0.314000000000000112,-12.327468429155475249
0.315000000000000113,-12.085340035267439163
0.316000000000000114,-11.849680185952793821
0.317000000000000115,-11.620988046301089724
0.318000000000000116,-11.399700392824737349
0.319000000000000117,-11.186192790724945212
0.320000000000000118,-10.980781027477164002
0.321000000000000119,-10.783722776776382801
0.322000000000000119,-10.595219467408231395
0.323000000000000120,-10.415418332282349922
0.324000000000000121,-10.244414613658651803
0.325000000000000122,-10.082253901494564019
0.326000000000000123,-9.928934582823735866
0.327000000000000124,-9.784410381126511069
0.328000000000000125,-9.648592965755842243
0.329000000000000126,-9.521354612621932390
0.330000000000000127,-9.402530898504895873
0.331000000000000127,-9.291923412544484506
0.332000000000000128,-9.189302469637899762
0.333000000000000129,-9.094409811654193376
0.334000000000000130,-9.006961283536139007
0.335000000000000131,-8.926649472503251914
0.336000000000000132,-8.853146299684214071
0.337000000000000133,-8.786105554590523781
0.338000000000000134,-8.725165363889745507
0.339000000000000135,-8.669950586943897974
0.340000000000000135,-8.620075131542378699
0.341000000000000136,-8.575144184178153495
0.342000000000000137,-8.534756350088480659
0.343000000000000138,-8.498505699106193134
0.344000000000000139,-8.465983714144048378
0.345000000000000140,-8.436781139862636891
0.346000000000000141,-8.410489729751343901
0.347000000000000142,-8.386703890483465429
0.348000000000000143,-8.365022222990550205
0.349000000000000143,-8.345048960238475644
0.350000000000000144,-8.326395302180667812
0.351000000000000145,-8.308680648812188707
0.352000000000000146,-8.291533732655327782
0.353000000000000147,-8.274593652372626451
0.354000000000000148,-8.257510809530495877
0.355000000000000149,-8.239947750825855621
0.356000000000000150,-8.221579918342754922
0.357000000000000151,-8.202096310626405540
0.358000000000000151,-8.181200057551402338
0.359000000000000152,-8.158608912120032031
0.360000000000000153,-8.134055662458186120
0.361000000000000154,-8.107288467381593478
0.362000000000000155,-8.078071118986279942
0.363000000000000156,-8.046183235775824727
0.364000000000000157,-8.011420389875429038
0.365000000000000158,-7.973594171902279371
0.366000000000000159,-7.932532197061938462
0.367000000000000159,-7.888078056026449403
0.368000000000000160,-7.840091214120358920
0.369000000000000161,-7.788446862298387785
0.370000000000000162,-7.733035723344746870
0.371000000000000163,-7.673763816659517900
0.372000000000000164,-7.610552184923629504
0.373000000000000165,-7.543336585852713938
0.374000000000000166,-7.472067152160856374
0.375000000000000167,-7.396708022760731360
0.376000000000000167,-7.317236948126968343
0.377000000000000168,-7.233644872645325741
0.378000000000000169,-7.145935496663132547
0.379000000000000170,-7.054124820846605637
0.380000000000000171,-6.958240675338629444
0.381000000000000172,-6.858322236097831315
0.382000000000000173,-6.754419530685730422
0.383000000000000174,-6.646592935655344370
0.384000000000000175,-6.534912667580710988
0.385000000000000175,-6.419458269654486848
0.386000000000000176,-6.300318095669208418
0.387000000000000177,-6.177588793087791963
0.388000000000000178,-6.051374786801167360
0.389000000000000179,-5.921787765064712161
0.390000000000000180,-5.788946169002097797
0.391000000000000181,-5.652974686963978534
0.392000000000000182,-5.514003754931377621
0.393000000000000183,-5.372169064058030408
0.394000000000000183,-5.227611076354493846
0.395000000000000184,-5.080474549427743014
0.396000000000000185,-4.930908071104428636
0.397000000000000186,-4.779063604684007593
0.398000000000000187,-4.625096045488942487
0.399000000000000188,-4.469162789303664951
0.400000000000000189,-4.311423313222301879
0.401000000000000190,-4.152038769355947068
0.402000000000000191,-3.991171591785735107
0.403000000000000191,-3.828985117085218270
0.404000000000000192,-3.665643218677587356
0.405000000000000193,-3.501309955237502436
0.406000000000000194,-3.336149233295194083
0.407000000000000195,-3.170324484151580968
0.408000000000000196,-3.003998355166777934
0.409000000000000197,-2.837332415441655264
0.410000000000000198,-2.670486875871804777
0.411000000000000199,-2.503620323515841406
0.412000000000000199,-2.336889470185362860
0.413000000000000200,-2.170448915132037193
0.414000000000000201,-2.004450921677489283
0.415000000000000202,-1.839045207604721455
0.416000000000000203,-1.674378749105321917
0.417000000000000204,-1.510595598053649846
0.418000000000000205,-1.347836712359501643
0.419000000000000206,-1.186239799132092987
0.420000000000000207,-1.025939170371678699
0.421000000000000207,-0.867065610891379124
0.422000000000000208,-0.709746258158063470
0.423000000000000209,-0.554104493731079839
0.424000000000000210,-0.400259845967484040
0.425000000000000211,-0.248327903654800064
0.426000000000000212,-0.098420240225775057
0.427000000000000213,0.049355651795729372
0.428000000000000214,0.194896416472270018
0.429000000000000214,0.338102880611470868
0.430000000000000215,0.478880090764871369
0.431000000000000216,0.617137341426696073
0.432000000000000217,0.752788194792350374
0.433000000000000218,0.885750492434808856
0.434000000000000219,1.015946359255340381
0.435000000000000220,1.143302200062227270
0.436000000000000221,1.267748689127661921
0.437000000000000222,1.389220753068970193
0.438000000000000222,1.507657547395629738
0.439000000000000223,1.623002427058297226
0.440000000000000224,1.735202911330661069
0.441000000000000225,1.844210643348588974
0.442000000000000226,1.949981344624524437
0.443000000000000227,2.052474764848716493
0.444000000000000228,2.151654627281183618
0.445000000000000229,2.247488570031436872
0.446000000000000230,2.339948083514990618
0.447000000000000230,2.429008444368347064
0.448000000000000231,2.514648646095767326
0.449000000000000232,2.596851326713387031
0.450000000000000233,2.675602693647994634
0.451000000000000234,2.750892446139433289
0.452000000000000235,2.822713695387547350
0.453000000000000236,2.891062882676127987
0.454000000000000237,2.955939695697925362
0.455000000000000238,3.017346983296878449
0.456000000000000238,3.075290668834944618
0.457000000000000239,3.129779662383276762
0.458000000000000240,3.180825771928796009
0.459000000000000241,3.228443613779757637
0.460000000000000242,3.272650522345394997
0.461000000000000243,3.313466459457354851
0.462000000000000244,3.350913923392604410
0.463000000000000245,3.385017857750101999
0.464000000000000246,3.415805560325931189
0.465000000000000246,3.443306592124359522
0.466000000000000247,3.467552686635107850
0.467000000000000248,3.488577659500202266
0.468000000000000249,3.506417318686735118
0.469000000000000250,3.521109375275430775
0.470000000000000251,3.532693354968255761
0.471000000000000252,3.541210510412122314
0.472000000000000253,3.546703734429355936
0.473000000000000254,3.549217474239951375
0.474000000000000254,3.548797646754563662
0.475000000000000255,3.545491555011717644
0.476000000000000256,3.539347805827298910
0.477000000000000257,3.530416228719023941
0.478000000000000258,3.518747796163602892
0.479000000000000259,3.504394545239512215
0.480000000000000260,3.487409500703281484
0.481000000000000261,3.467846599543038533
0.482000000000000262,3.445760617048317265
0.483000000000000262,3.421207094431325313
0.484000000000000263,3.394242268030416732
0.485000000000000264,3.364923000123151375
0.486000000000000265,3.333306711372063802
0.487000000000000266,3.299451314923248724
0.488000000000000267,3.263415152174272915
0.489000000000000268,3.225256930224505769
0.490000000000000269,3.185035661018389863
0.491000000000000270,3.142810602188712110
0.492000000000000270,3.098641199604587726
0.493000000000000271,3.052587031625908942
0.494000000000000272,3.004707755063896535
0.495000000000000273,2.955063052844462579
0.496000000000000274,2.903712583369544742
0.497000000000000275,2.850715931568962525
0.498000000000000276,2.796132561633431379
0.499000000000000277,2.740021771417881613
0.500000000000000222,2.682442648501843330
0.501000000000000334,2.623454027892750950
0.502000000000000224,2.563114451355822609
0.503000000000000336,2.501482128353200274
0.504000000000000226,2.438614898573596701
0.505000000000000338,2.374570196032232960
0.506000000000000227,2.309405014720193883
0.507000000000000339,2.243175875780729189
0.508000000000000229,2.175938796189672786
0.509000000000000341,2.107749258915531332
0.510000000000000231,2.038662184534936195
0.511000000000000343,1.968731904277422728
0.512000000000000233,1.898012134473856971
0.513000000000000345,1.826555952381268666
0.514000000000000234,1.754415773357309360
0.515000000000000346,1.681643329356202754
0.516000000000000236,1.608289648718571829
0.517000000000000348,1.534405037226231006
0.518000000000000238,1.460039060393858223
0.519000000000000350,1.385240526968043895
0.520000000000000240,1.310057473605316769
0.521000000000000352,1.234537150699395180
0.522000000000000242,1.158726009329022144
0.523000000000000353,1.082669689296478222
0.524000000000000243,1.006413008228250749
0.525000000000000355,0.929999951707994432
0.526000000000000245,0.853473664413282207
0.527000000000000357,0.776876442226597019
0.528000000000000247,0.700249725292287795
0.529000000000000359,0.623634091990372230
0.530000000000000249,0.547069253799126853
0.531000000000000361,0.470594051017952375
0.532000000000000250,0.394246449322921078
0.533000000000000362,0.318063537126898555
0.534000000000000252,0.242081523717564639
0.535000000000000364,0.166335738145406614
0.536000000000000254,0.090860628836039403
0.537000000000000366,0.015689763899565213
0.538000000000000256,-0.059144167888188950
0.539000000000000368,-0.133609355458724183
0.540000000000000258,-0.207674863202816029
0.541000000000000369,-0.281310628126723972
0.542000000000000259,-0.354487456436248127
0.543000000000000371,-0.427177019573249050
0.544000000000000261,-0.499351849727565522
0.545000000000000373,-0.570985334847629145
0.546000000000000263,-0.642051713172066996
0.547000000000000375,-0.712526067304846022
0.548000000000000265,-0.782384317854923461
0.549000000000000377,-0.851603216662352835
0.550000000000000266,-0.920160339630798574
0.551000000000000378,-0.988034079187359637
0.552000000000000268,-1.055203636388948762
0.553000000000000380,-1.121649012694924785
0.554000000000000270,-1.187351001424463037
0.555000000000000382,-1.252291178917377845
0.556000000000000272,-1.316451895415949647
0.557000000000000384,-1.379816265685432253
0.558000000000000274,-1.442368159390080118
0.559000000000000385,-1.504092191241272136
0.560000000000000275,-1.564973710933649897
0.561000000000000387,-1.624998792885097298
0.562000000000000277,-1.684154225795359228
0.563000000000000389,-1.742427502038405462
0.564000000000000279,-1.799806806902384704
0.565000000000000391,-1.856281007691378715
0.566000000000000281,-1.911839642701946618
0.567000000000000393,-1.966472910087833537
0.568000000000000282,-2.020171656625005863
0.569000000000000394,-2.072927366389516468
0.570000000000000284,-2.124732149359462419
0.571000000000000396,-2.175578729952940993
0.572000000000000286,-2.225460435512359059
0.573000000000000398,-2.274371184746067254
0.574000000000000288,-2.322305476137158209
0.575000000000000400,-2.369258376329539395
0.576000000000000290,-2.415225508500312479
0.577000000000000401,-2.460203040727939605
0.578000000000000291,-2.504187674364497518
0.579000000000000403,-2.547176632420709019
0.580000000000000293,-2.589167647971483355
0.581000000000000405,-2.630158952589975563
0.582000000000000295,-2.670149264817114343
0.583000000000000407,-2.709137778674125308
0.584000000000000297,-2.747124152224263316
0.585000000000000409,-2.784108496190696780
0.586000000000000298,-2.820091362636215848
0.587000000000000410,-2.855073733710994155
0.588000000000000300,-2.889057010473639941
0.589000000000000412,-2.922043001791126748
0.590000000000000302,-2.954033913322327898
0.591000000000000414,-2.985032336590188962
0.592000000000000304,-3.015041238146830782
0.593000000000000416,-3.044063948835953770
0.594000000000000306,-3.072104153156506534
0.595000000000000417,-3.099165878731506396
0.596000000000000307,-3.125253485885362892
0.597000000000000419,-3.150371657333263631
0.598000000000000309,-3.174525387985640545
0.599000000000000421,-3.197719974870570248
0.600000000000000311,-3.219961007176958212
0.601000000000000423,-3.241254356420955496
0.602000000000000313,-3.261606166737838208
0.603000000000000425,-3.281022845301752255
0.604000000000000314,-3.299511052874973593
0.605000000000000426,-3.317077694488760109
0.606000000000000316,-3.333729910257228646
0.607000000000000428,-3.349475066325816819
0.608000000000000318,-3.364320745955672098
0.609000000000000430,-3.378274740745060178
0.610000000000000320,-3.391345041988832243
0.611000000000000432,-3.403539832176904589
0.612000000000000322,-3.414867476632389209
0.613000000000000433,-3.425336515290081874
0.614000000000000323,-3.434955654615789999
0.615000000000000435,-3.443733759666849359
0.616000000000000325,-3.451679846294063658
0.617000000000000437,-3.458803073485356983
0.618000000000000327,-3.465112735850999659
0.619000000000000439,-3.470618256250490141
0.620000000000000329,-3.475329178560895294
0.621000000000000441,-3.479255160586372853
0.622000000000000330,-3.482405967108618050
0.623000000000000442,-3.484791463077752560
0.624000000000000332,-3.486421606943129525
0.625000000000000444,-3.487306444123614568
0.626000000000000334,-3.487456100616513233
0.627000000000000446,-3.486880776744539556
0.628000000000000336,-3.485590741040019758
0.629000000000000448,-3.483596324265448629
0.630000000000000338,-3.480907913569473155
0.631000000000000449,-3.477535946777404519
0.632000000000000339,-3.473490906815184243
0.633000000000000451,-3.468783316265681371
0.634000000000000341,-3.463423732056294391
0.635000000000000453,-3.457422740276653972
0.636000000000000343,-3.450790951125135564
0.637000000000000455,-3.443538993983078278
0.638000000000000345,-3.435677512615258333
0.639000000000000457,-3.427217160495410475
0.640000000000000346,-3.418168596255386937
0.641000000000000458,-3.408542479256567503
0.642000000000000348,-3.398349465282115567
0.643000000000000460,-3.387600202348615142
0.644000000000000350,-3.376305326635665516
0.645000000000000462,-3.364475458531862806
0.646000000000000352,-3.352121198795755763
0.647000000000000464,-3.339253124830160679
0.648000000000000353,-3.325881787068388995
0.649000000000000465,-3.312017705470658768
0.650000000000000355,-3.297671366129377724
0.651000000000000467,-3.282853217981395400
0.652000000000000357,-3.267573669625983168
0.653000000000000469,-3.251843086246539283
0.654000000000000359,-3.235671786634850999
0.655000000000000471,-3.219070040315901160
0.656000000000000361,-3.202048064771876312
0.657000000000000473,-3.184616022763578247
0.658000000000000362,-3.166784019747765466
0.659000000000000474,-3.148562101388657997
0.660000000000000364,-3.129960251162104079
0.661000000000000476,-3.110988388050680786
0.662000000000000366,-3.091656364328227991
0.663000000000000478,-3.071973963432053090
0.664000000000000368,-3.051950897921352546
