# AuFCC100-Ablate0_GUANINEKETO
# h[nm],U(h)[kJ/mol]
0.200000000000000011,138.683914244263803539
0.201000000000000012,130.556029775451577279
0.202000000000000013,125.667412592960502593
0.203000000000000014,122.239046867280535480
0.204000000000000015,119.274449787411384705
0.205000000000000016,116.272354551929950617
0.206000000000000016,113.031255505092389058
0.207000000000000017,109.519419439745362865
0.208000000000000018,105.790950004929641182
0.209000000000000019,101.933742190961680762
0.210000000000000020,98.039090390573846889
0.211000000000000021,94.185632784510119109
0.212000000000000022,90.432470465689533512
0.213000000000000023,86.817879085531288297
0.214000000000000024,83.361177391257882618
0.215000000000000024,80.066140429826361924
0.216000000000000025,76.924928825418277256
0.217000000000000026,73.921912596083600988
0.218000000000000027,71.037046134380702256
0.219000000000000028,68.248636006995951675
0.220000000000000029,65.535461807313552640
0.221000000000000030,62.878282181635903214
0.222000000000000031,60.260797860289699202
0.223000000000000032,57.670161621765451798
0.224000000000000032,55.097129199051224191
0.225000000000000033,52.535940590837221009
0.226000000000000034,49.984011820441033080
0.227000000000000035,47.441505447926417105
0.228000000000000036,44.910835772050475612
0.229000000000000037,42.396152721243218764
0.230000000000000038,39.902837550021082791
0.231000000000000039,37.437033948324447863
0.232000000000000040,35.005230150950879420
0.233000000000000040,32.613901084647203277
0.234000000000000041,30.269214412506990186
0.235000000000000042,27.976800385081418199
0.236000000000000043,25.741582520853722116
0.237000000000000044,23.567664147635888128
0.238000000000000045,21.458264580109258191
0.239000000000000046,19.415698039456650292
0.240000000000000047,17.441388207586271619
0.241000000000000048,15.535911437329579243
0.242000000000000048,13.699062015284846794
0.243000000000000049,11.929933416378052158
0.244000000000000050,10.227010134592678270
0.245000000000000051,8.588265371952056526
0.246000000000000052,7.011260578686621336
0.247000000000000053,5.493243532402255269
0.248000000000000054,4.031242302087497009
0.249000000000000055,2.622153049804932579
0.250000000000000056,1.262820170188130753
0.251000000000000056,-0.049892249026468161
0.252000000000000057,-1.319038244414298067
0.253000000000000058,-2.547537317420586866
0.254000000000000059,-3.738131250401536931
0.255000000000000060,-4.893350114262426054
0.256000000000000061,-6.015486999164961546
0.257000000000000062,-7.106580861259911508
0.258000000000000063,-8.168406780425195635
0.259000000000000064,-9.202472861039760588
0.260000000000000064,-10.210022974611351998
0.261000000000000065,-11.192044534637846098
0.262000000000000066,-12.149280505855264423
0.263000000000000067,-13.082244877869854349
0.264000000000000068,-13.991240873407875256
0.265000000000000069,-14.876381210805373456
0.266000000000000070,-15.737609796094497838
0.267000000000000071,-16.574724279736493315
0.268000000000000071,-17.387398974686739450
0.269000000000000072,-18.175207694400317138
0.270000000000000073,-18.937646130249497389
0.271000000000000074,-19.674153446566180037
0.272000000000000075,-20.384132827330240900
0.273000000000000076,-21.066970760795822315
0.274000000000000077,-21.722054896673235191
0.275000000000000078,-22.348790354602822816
0.276000000000000079,-22.946614402445760561
0.277000000000000079,-23.515009458357013727
0.278000000000000080,-24.053514401763731456
0.279000000000000081,-24.561734205390699515
0.280000000000000082,-25.039347923538393559
0.281000000000000083,-25.486115091162474755
0.282000000000000084,-25.901880604179012835
0.283000000000000085,-26.286578164104337674
0.284000000000000086,-26.640232379912539784
0.285000000000000087,-26.962959627142559782
0.286000000000000087,-27.254967769092935725
0.287000000000000088,-27.516554847676417239
0.288000000000000089,-27.748106852433785718
0.289000000000000090,-27.950094675573172509
0.290000000000000091,-28.123070358940122304
0.291000000000000092,-28.267662735753908976
0.292000000000000093,-28.384572565961725843
0.293000000000000094,-28.474567259350060056
0.294000000000000095,-28.538475275272094933
0.295000000000000095,-28.577180282150912660
0.296000000000000096,-28.591615153929389237
0.297000000000000097,-28.582755874474308655
0.298000000000000098,-28.551615414704151874
0.299000000000000099,-28.499237640983771769
0.300000000000000100,-28.426691307186967350
0.301000000000000101,-28.335064176832482019
0.302000000000000102,-28.225457315900030153
0.303000000000000103,-28.098979591371595177
0.304000000000000103,-27.956742405251606698
0.305000000000000104,-27.799854688822399851
0.306000000000000105,-27.629418177205291585
0.307000000000000106,-27.446522979933540398
0.308000000000000107,-27.252243459209154253
0.309000000000000108,-27.047634423809761017
0.310000000000000109,-26.833727643234219329
0.311000000000000110,-26.611528683618853819
0.312000000000000111,-26.382014064212665261
0.313000000000000111,-26.146128730758306347
0.314000000000000112,-25.904783839973390513
0.315000000000000113,-25.658854847449653391
0.316000000000000114,-25.409179889672127928
0.317000000000000115,-25.156558449488507279
0.318000000000000116,-24.901750293216554866
0.319000000000000117,-24.645474666647942286
0.320000000000000118,-24.388409736472500100
0.321000000000000119,-24.131192263093929284
0.322000000000000119,-23.874417490418601062
0.323000000000000120,-23.618639237959182964
0.324000000000000121,-23.364370180489164142
0.325000000000000122,-23.112082300498876464
0.326000000000000123,-22.862207498824862029
0.327000000000000124,-22.615138349038961252
0.328000000000000125,-22.371228981481483089
0.329000000000000126,-22.130796083189441248
0.330000000000000127,-21.894120000398263670
0.331000000000000127,-21.661445930774313240
0.332000000000000128,-21.432985193053333717
0.333000000000000129,-21.208916562313046228
0.334000000000000130,-20.989387659684787479
0.335000000000000131,-20.774516385906046878
0.336000000000000132,-20.564392388723263139
0.337000000000000133,-20.359078554770032810
0.338000000000000134,-20.158612517161976996
0.339000000000000135,-19.963008170664569008
0.340000000000000135,-19.772257186896755599
0.341000000000000136,-19.586330522631410389
0.342000000000000137,-19.405179914837781041
0.343000000000000138,-19.228739356680286221
0.344000000000000139,-19.056926549239129542
0.345000000000000140,-18.889644324251012364
0.346000000000000141,-18.726782033678276207
0.347000000000000142,-18.568216902405122681
0.348000000000000143,-18.413815340825575362
0.349000000000000143,-18.263434214530992250
0.350000000000000144,-18.116922068724555572
0.351000000000000145,-17.974120305385206109
0.352000000000000146,-17.834864311575351792
0.353000000000000147,-17.698984537634078862
0.354000000000000148,-17.566307524321960187
0.355000000000000149,-17.436656878284544803
0.356000000000000150,-17.309854195480177452
0.357000000000000151,-17.185719932474349037
0.358000000000000151,-17.064074225737954293
0.359000000000000152,-16.944737659301502219
0.360000000000000153,-16.827531981312169762
0.361000000000000154,-16.712280770216509040
0.362000000000000155,-16.598810051449142122
0.363000000000000156,-16.486948865648507478
0.364000000000000157,-16.376529789544331805
0.365000000000000158,-16.267389410770555003
0.366000000000000159,-16.159368757950716144
0.367000000000000159,-16.052313687483270144
0.368000000000000160,-15.946075228521355172
0.369000000000000161,-15.840509887696475388
0.370000000000000162,-15.735479915179562127
0.371000000000000163,-15.630853533706323688
0.372000000000000164,-15.526505132217062410
0.373000000000000165,-15.422315425776654152
0.374000000000000166,-15.318171583446408945
0.375000000000000167,-15.213967325778810391
0.376000000000000167,-15.109602993598818088
0.377000000000000168,-15.004985589720888584
0.378000000000000169,-14.900028795232037382
0.379000000000000170,-14.794652961946505698
0.380000000000000171,-14.688785082608726285
0.381000000000000172,-14.582358740388556839
0.382000000000000173,-14.475314039176254255
0.383000000000000174,-14.367597516145803382
0.384000000000000175,-14.259162038012666684
0.385000000000000175,-14.149966682368704696
0.386000000000000176,-14.039976605430751988
0.387000000000000177,-13.929162897492039619
0.388000000000000178,-13.817502427317510438
0.389000000000000179,-13.704977676674422682
0.390000000000000180,-13.591576566140116000
0.391000000000000181,-13.477292273278360213
0.392000000000000182,-13.362123044225615587
0.393000000000000183,-13.246071999678312281
0.394000000000000183,-13.129146936222308995
0.395000000000000184,-13.011360123896443142
0.396000000000000185,-12.892728100833057425
0.397000000000000186,-12.773271465770653421
0.398000000000000187,-12.653014669186388730
0.399000000000000188,-12.531985803750036013
0.400000000000000189,-12.410216394756039548
0.401000000000000190,-12.287741191145997277
0.402000000000000191,-12.164597957691665187
0.403000000000000191,-12.040827268866509669
0.404000000000000192,-11.916472304894094592
0.405000000000000193,-11.791578650422717800
0.406000000000000194,-11.666194096238053035
0.407000000000000195,-11.540368444389983438
0.408000000000000196,-11.414153317074749339
0.409000000000000197,-11.287601969580702388
0.410000000000000198,-11.160769107574212811
0.411000000000000199,-11.033710708971714354
0.412000000000000199,-10.906483850615241948
0.413000000000000200,-10.779146539941327987
0.414000000000000201,-10.651757551806793956
0.415000000000000202,-10.524376270610353856
0.416000000000000203,-10.397062537825739525
0.417000000000000204,-10.269876505039485792
0.418000000000000205,-10.142878492566161697
0.419000000000000206,-10.016128853694082679
0.420000000000000207,-9.889687844595872690
0.421000000000000207,-9.763615499921833418
0.422000000000000208,-9.637971514077005253
0.423000000000000209,-9.512815128168888634
0.424000000000000210,-9.388205022598212324
0.425000000000000211,-9.264199215252528319
0.426000000000000212,-9.140854965250820641
0.427000000000000213,-9.018228682175841726
0.428000000000000214,-8.896375840721692185
0.429000000000000214,-8.775350900674183663
0.430000000000000215,-8.655207232134028317
0.431000000000000216,-8.535997045885014956
0.432000000000000217,-8.417771328802658104
0.433000000000000218,-8.300579784192906985
0.434000000000000219,-8.184470776945268256
0.435000000000000220,-8.069491283379928603
0.436000000000000221,-7.955686845664438067
0.437000000000000222,-7.843101530672226041
0.438000000000000222,-7.731777893152158576
0.439000000000000223,-7.621756943076229973
0.440000000000000224,-7.513078117030211445
0.441000000000000225,-7.405779253511049376
0.442000000000000226,-7.299896571993729211
0.443000000000000227,-7.195464655629426609
0.444000000000000228,-7.092516437437100585
0.445000000000000229,-6.991083189850277435
0.446000000000000230,-6.891194517481601167
0.447000000000000230,-6.792878352968320321
0.448000000000000231,-6.696160955762971767
0.449000000000000232,-6.601066913734753072
0.450000000000000233,-6.507619147448677310
0.451000000000000234,-6.415838916991248198
0.452000000000000235,-6.325745831213429149
0.453000000000000236,-6.237357859263564563
0.454000000000000237,-6.150691344285592166
0.455000000000000238,-6.065761019159662482
0.456000000000000238,-5.982580024165488730
0.457000000000000239,-5.901159926450776361
0.458000000000000240,-5.821510741190346394
0.459000000000000241,-5.743640954323824488
0.460000000000000242,-5.667557546763299925
0.461000000000000243,-5.593266019964634239
0.462000000000000244,-5.520770422759704310
0.463000000000000245,-5.450073379349297475
0.464000000000000246,-5.381176118360064820
0.465000000000000246,-5.314078502871476317
0.466000000000000247,-5.248779061322144557
0.467000000000000248,-5.185275019207774783
0.468000000000000249,-5.123562331486302135
0.469000000000000250,-5.063635715608628907
0.470000000000000251,-5.005488685096603163
0.471000000000000252,-4.949113583592714249
0.472000000000000253,-4.894501619309414409
0.473000000000000254,-4.841642899808316969
0.474000000000000254,-4.790526467043079606
0.475000000000000255,-4.741140332602259200
0.476000000000000256,-4.693471513091461489
0.477000000000000257,-4.647506065596960667
0.478000000000000258,-4.603229123175495374
0.479000000000000259,-4.560624930317880299
0.480000000000000260,-4.519676878336657211
0.481000000000000261,-4.480367540630426859
0.482000000000000262,-4.442678707780354230
0.483000000000000262,-4.406591422436479277
0.484000000000000263,-4.372086013954087136
0.485000000000000264,-4.339142132742578539
0.486000000000000265,-4.307738784291801792
0.487000000000000266,-4.277854362842694158
0.488000000000000267,-4.249466684671400429
0.489000000000000268,-4.222553020958321746
0.490000000000000269,-4.197090130215051396
0.491000000000000270,-4.173054290244694542
0.492000000000000270,-4.150421329612457910
0.493000000000000271,-4.129166658605653240
0.494000000000000272,-4.109265299663571014
0.495000000000000273,-4.090691917259855259
0.496000000000000274,-4.073420847221237651
0.497000000000000275,-4.057426125468227340
0.498000000000000276,-4.042681516165041344
0.499000000000000277,-4.029160539267083507
0.500000000000000222,-4.016836497456142574
0.501000000000000334,-4.005682502454430249
0.502000000000000224,-3.995671500710171298
0.503000000000000336,-3.986776298448350353
0.504000000000000226,-3.978969586081762433
0.505000000000000338,-3.972223961978226470
0.506000000000000227,-3.966511955581277338
0.507000000000000339,-3.961806049882262926
0.508000000000000229,-3.958078703243072205
0.509000000000000341,-3.955302370569437009
0.510000000000000231,-3.953449523835684154
0.511000000000000343,-3.952492671962546389
0.512000000000000233,-3.952404380050514643
0.513000000000000345,-3.953157287971904132
0.514000000000000234,-3.954724128325513455
0.515000000000000346,-3.957077743758254940
0.516000000000000236,-3.960191103658976974
0.517000000000000348,-3.964037320230108463
0.518000000000000238,-3.968589663943270729
0.519000000000000350,-3.973821578385619890
0.520000000000000240,-3.979706694503966080
0.521000000000000352,-3.986218844254383775
0.522000000000000242,-3.993332073665047943
0.523000000000000353,-4.001020655320942865
0.524000000000000243,-4.009259100278717902
0.525000000000000355,-4.018022169420995660
0.526000000000000245,-4.027284884259108466
0.527000000000000357,-4.037022537193931448
0.528000000000000247,-4.047210701244383202
0.529000000000000359,-4.057825239253594063
0.530000000000000249,-4.068842312582777510
0.531000000000000361,-4.080238389303063151
0.532000000000000250,-4.091990251895651909
0.533000000000000362,-4.104075004470846721
0.534000000000000252,-4.116470079516326486
0.535000000000000364,-4.129153244185699734
0.536000000000000254,-4.142102606137612497
0.537000000000000366,-4.155296618936515252
0.538000000000000256,-4.168714087025671589
0.539000000000000368,-4.182334170283303898
0.540000000000000258,-4.196136388172588383
0.541000000000000369,-4.210100623496369820
0.542000000000000259,-4.224207125767213356
0.543000000000000371,-4.238436514203625549
0.544000000000000261,-4.252769780363019336
0.545000000000000373,-4.267188290422039287
0.546000000000000263,-4.281673787114724128
0.547000000000000375,-4.296208391339039423
0.548000000000000265,-4.310774603442000696
0.549000000000000377,-4.325355304193744033
0.550000000000000266,-4.339933755460580578
0.551000000000000378,-4.354493600587175273
0.552000000000000268,-4.369018864497665966
0.553000000000000380,-4.383493953525562148
0.554000000000000270,-4.397903654982036059
0.555000000000000382,-4.412233136472168304
0.556000000000000272,-4.426467944968505819
0.557000000000000384,-4.440594005651098186
0.558000000000000274,-4.454597620523267132
0.559000000000000385,-4.468465466811839981
0.560000000000000275,-4.482184595160774165
0.561000000000000387,-4.495742427626749027
0.562000000000000277,-4.509126755485110216
0.563000000000000389,-4.522325736854649669
0.564000000000000279,-4.535327894149138395
0.565000000000000391,-4.548122111363812614
0.566000000000000281,-4.560697631204367219
0.567000000000000393,-4.573044052066366660
0.568000000000000282,-4.585151324872344780
0.569000000000000394,-4.597009749774011667
0.570000000000000284,-4.608609972726605442
0.571000000000000396,-4.619942981942521953
0.572000000000000286,-4.631000104230888148
0.573000000000000398,-4.641773001229735129
0.574000000000000288,-4.652253665537290139
0.575000000000000400,-4.662434416748729049
0.576000000000000290,-4.672307897404364141
0.577000000000000401,-4.681867068855484426
0.578000000000000291,-4.691105207053458237
0.579000000000000403,-4.700015898267874803
0.580000000000000293,-4.708593034739145367
0.581000000000000405,-4.716830810271028795
0.582000000000000295,-4.724723715768062604
0.583000000000000407,-4.732266534723168050
0.584000000000000297,-4.739454338660053168
0.585000000000000409,-4.746282482535405300
0.586000000000000298,-4.752746600105188790
0.587000000000000410,-4.758842599259715200
0.588000000000000300,-4.764566657331572586
0.589000000000000412,-4.769915216380719691
0.590000000000000302,-4.774884978460606000
0.591000000000000414,-4.779472900869345509
0.592000000000000304,-4.783676191389525378
0.593000000000000416,-4.787492303520318515
0.594000000000000306,-4.790918931705379968
0.595000000000000417,-4.793954006559866698
0.596000000000000307,-4.796595690099726639
0.597000000000000419,-4.798842370976426963
0.598000000000000309,-4.800692659720114719
0.599000000000000421,-4.802145383993909888
0.600000000000000311,-4.803199583862270750
0.601000000000000423,-4.803854507075902447
0.602000000000000313,-4.804109604375780052
0.603000000000000425,-4.803964524818693960
0.604000000000000314,-4.803419111126607355
0.605000000000000426,-4.802473395061992889
0.606000000000000316,-4.801127592831326396
0.607000000000000428,-4.799382100518554850
0.608000000000000318,-4.797237489550712830
0.609000000000000430,-4.794694502197211605
0.610000000000000320,-4.791754047104676673
0.611000000000000432,-4.788417194868921811
0.612000000000000322,-4.784685173645587319
0.613000000000000433,-4.780559364800882172
0.614000000000000323,-4.776041298603852958
0.615000000000000435,-4.771132649961415950
0.616000000000000325,-4.765835234197346892
0.617000000000000437,-4.760151002876479076
0.618000000000000327,-4.754082039675038729
0.619000000000000439,-4.747630556298167548
0.620000000000000329,-4.740798888445609371
0.621000000000000441,-4.733589491826287521
0.622000000000000330,-4.726004938222722274
0.623000000000000442,-4.718047911605882661
0.624000000000000332,-4.709721204301194675
0.625000000000000444,-4.701027713206359593
0.626000000000000334,-4.691970436061443372
0.627000000000000446,-4.682552467771788685
0.628000000000000336,-4.672776996784206993
0.629000000000000448,-4.662647301516793519
0.630000000000000338,-4.652166746842733680
0.631000000000000449,-4.641338780628395888
0.632000000000000339,-4.630166930325982477
0.633000000000000451,-4.618654799620853346
0.634000000000000341,-4.606806065133783434
0.635000000000000453,-4.594624473178254398
0.636000000000000343,-4.582113836572750287
0.637000000000000455,-4.569278031508291704
0.638000000000000345,-4.556120994471013930
0.639000000000000457,-4.542646719219873397
0.640000000000000346,-4.528859253819410569
0.641000000000000458,-4.514762697727407570
0.642000000000000348,-4.500361198937388174
0.643000000000000460,-4.485658951175716780
0.644000000000000350,-4.470660191153219998
0.645000000000000462,-4.455369195870964916
0.646000000000000352,-4.439790279980104337
0.647000000000000464,-4.423927793195399083
0.648000000000000353,-4.407786117762261924
0.649000000000000465,-4.391369665976791126
0.650000000000000355,-4.374682877758765187
0.651000000000000467,-4.357730218276904210
0.652000000000000357,-4.340516175626367712
0.653000000000000469,-4.323045258557722370
0.654000000000000359,-4.305321994257378826
0.655000000000000471,-4.287350926178691957
0.656000000000000361,-4.269136611923553204
0.657000000000000473,-4.250683621173841686
0.658000000000000362,-4.231996533672419680
0.659000000000000474,-4.213079937253010776
