# AuFCC100-Ablate0_OXOLANE-AC
# h[nm],U(h)[kJ/mol]
0.149999999999999994,150.809280016189831031
0.150999999999999995,148.201765691228104060
0.151999999999999996,144.020073215788585230
0.152999999999999997,139.484768035340550796
0.153999999999999998,135.114799838614771943
0.154999999999999999,131.060221062937500847
0.156000000000000000,127.299232667102870664
0.157000000000000001,123.748586139831061814
0.158000000000000002,120.320304499237451523
0.159000000000000002,116.946476091512252538
0.160000000000000003,113.586151165397424734
0.161000000000000004,110.223125665857963895
0.162000000000000005,106.859895873282084722
0.163000000000000006,103.510780948195858286
0.164000000000000007,100.195757708208674330
0.165000000000000008,96.935662761622410244
0.166000000000000009,93.748901392140169264
0.167000000000000010,90.649528302480433695
0.168000000000000010,87.646442065803256583
0.169000000000000011,84.743402047122884824
0.170000000000000012,81.939593559089502151
0.171000000000000013,79.230508438639176916
0.172000000000000014,76.608958256869215120
0.173000000000000015,74.066086799580361344
0.174000000000000016,71.592292409575733814
0.175000000000000017,69.178007146972731789
0.176000000000000018,66.814308057696464971
0.177000000000000018,64.493356651454178063
0.178000000000000019,62.208676966036442479
0.179000000000000020,59.955291502107080248
0.180000000000000021,57.729739019559566771
0.181000000000000022,55.529999761186864760
0.182000000000000023,53.355353032210494746
0.183000000000000024,51.206189972312472491
0.184000000000000025,49.083801408403871847
0.185000000000000026,46.990157325624196005
0.186000000000000026,44.927691071181222071
0.187000000000000027,42.899098138167410355
0.188000000000000028,40.907156409951738851
0.189000000000000029,38.954572162253739975
0.190000000000000030,37.043853954321726007
0.191000000000000031,35.177214793606538024
0.192000000000000032,33.356501607720531410
0.193000000000000033,31.583150066543623780
0.194000000000000034,29.858162121325740657
0.195000000000000034,28.182103218580966342
0.196000000000000035,26.555115956777900266
0.197000000000000036,24.976946938165287548
0.198000000000000037,23.446983685430446087
0.199000000000000038,21.964298706998270916
0.200000000000000039,20.527698074517445548
0.201000000000000040,19.135772195448879529
0.202000000000000041,17.786946801536611673
0.203000000000000042,16.479532513629774115
0.204000000000000042,15.211771672129870581
0.205000000000000043,13.981881431009449912
0.206000000000000044,12.788092395548989799
0.207000000000000045,11.628682335769175538
0.208000000000000046,10.502004727046379884
0.209000000000000047,9.406512056198883087
0.210000000000000048,8.340773986203149803
0.211000000000000049,7.303490597304571175
0.212000000000000050,6.293501018879514852
0.213000000000000050,5.309787837641152919
0.214000000000000051,4.351477716508522775
0.215000000000000052,3.417838687608041770
0.216000000000000053,2.508274595335886481
0.217000000000000054,1.622317163946422891
0.218000000000000055,0.759616151343423973
0.219000000000000056,-0.080071970980997165
0.220000000000000057,-0.896896400446678732
0.221000000000000058,-1.690925070332077507
0.222000000000000058,-2.462158059838488011
0.223000000000000059,-3.210541044418131040
0.224000000000000060,-3.935978522615237729
0.225000000000000061,-4.638346594411705937
0.226000000000000062,-5.317505103660802313
0.227000000000000063,-5.973308993017068858
0.228000000000000064,-6.605618753360593232
0.229000000000000065,-7.214309880742867165
0.230000000000000066,-7.799281282128585069
0.231000000000000066,-8.360462596561252013
0.232000000000000067,-8.897820420799614993
0.233000000000000068,-9.411363447991451636
0.234000000000000069,-9.901146544652464243
0.235000000000000070,-10.367273805228684580
0.236000000000000071,-10.809900634996379765
0.237000000000000072,-11.229234921174761297
0.238000000000000073,-11.625537359085544864
0.239000000000000073,-11.999121005191053513
0.240000000000000074,-12.350350132086012067
0.241000000000000075,-12.679638462204819049
0.242000000000000076,-12.987446857336589545
0.243000000000000077,-13.274280540201653267
0.244000000000000078,-13.540685922514603234
0.245000000000000079,-13.787247111306379921
0.246000000000000080,-14.014582161957241269
0.247000000000000081,-14.223339142544102032
0.248000000000000081,-14.414192069857653777
0.249000000000000082,-14.587836772911620287
0.250000000000000111,-14.744986735051204718
0.251000000000000112,-14.886368960957469199
0.252000000000000113,-15.012719910019558966
0.253000000000000114,-15.124781532769366876
0.254000000000000115,-15.223297442404618351
0.255000000000000115,-15.309009248906999545
0.256000000000000116,-15.382653078934612978
0.257000000000000117,-15.444956300558484230
0.258000000000000118,-15.496634468045254351
0.259000000000000119,-15.538388498278598249
0.260000000000000120,-15.570902087070905395
0.261000000000000121,-15.594839370548726265
0.262000000000000122,-15.610842834003983981
0.263000000000000123,-15.619531468083817316
0.264000000000000123,-15.621499169941420959
0.265000000000000124,-15.617313384979329527
0.266000000000000125,-15.607513983077314634
0.267000000000000126,-15.592612361695561418
0.268000000000000127,-15.573090766970263843
0.269000000000000128,-15.549401822857515043
0.270000000000000129,-15.521968257519068501
0.271000000000000130,-15.491182815466434164
0.272000000000000131,-15.457408343472039292
0.273000000000000131,-15.420978037903816826
0.274000000000000132,-15.382195840928895691
0.275000000000000133,-15.341336972948104389
0.276000000000000134,-15.298648588652657310
0.277000000000000135,-15.254350544225250275
0.278000000000000136,-15.208636263426489776
0.279000000000000137,-15.161673690603365117
0.280000000000000138,-15.113606319017822699
0.281000000000000139,-15.064554283310304328
0.282000000000000139,-15.014615505375962456
0.283000000000000140,-14.963866883431094834
0.284000000000000141,-14.912365514576077175
0.285000000000000142,-14.860149941711785715
0.286000000000000143,-14.807241416231855524
0.287000000000000144,-14.753645168487043549
0.288000000000000145,-14.699351678596295656
0.289000000000000146,-14.644337940754832417
0.290000000000000147,-14.588568714760867806
0.291000000000000147,-14.531997759043472129
0.292000000000000148,-14.474569040023581579
0.293000000000000149,-14.416217913173515086
0.294000000000000150,-14.356872271656413886
0.295000000000000151,-14.296453658924139773
0.296000000000000152,-14.234878342127377238
0.297000000000000153,-14.172058343645625555
0.298000000000000154,-14.107902428474773160
0.299000000000000155,-14.042317045617092930
0.300000000000000155,-13.975207222000708640
0.301000000000000156,-13.906477407814083591
0.302000000000000157,-13.836032272475273786
0.303000000000000158,-13.763777450765413590
0.304000000000000159,-13.689620238942870500
0.305000000000000160,-13.613470240916864640
0.306000000000000161,-13.535239964800741319
0.307000000000000162,-13.454845370383116787
0.308000000000000163,-13.372206368252752995
0.309000000000000163,-13.287247271490139511
0.310000000000000164,-13.199897200996247193
0.311000000000000165,-13.110090445667774262
0.312000000000000166,-13.017766778749816581
0.313000000000000167,-12.922871731801180317
0.314000000000000168,-12.825356827796394299
0.315000000000000169,-12.725179774962564139
0.316000000000000170,-12.622304623009394930
0.317000000000000171,-12.516701883457621136
0.318000000000000171,-12.408348615806476190
0.319000000000000172,-12.297228481304863124
0.320000000000000173,-12.183331766104670280
0.321000000000000174,-12.066655375578983822
0.322000000000000175,-11.947202801584007048
0.323000000000000176,-11.824984064431395936
0.324000000000000177,-11.700015631318727571
0.325000000000000178,-11.572320312940394871
0.326000000000000179,-11.441927139970642813
0.327000000000000179,-11.308871221073879099
0.328000000000000180,-11.173193584057376171
0.329000000000000181,-11.034941001737639255
0.330000000000000182,-10.894165804043177914
0.331000000000000183,-10.750925677827627425
0.332000000000000184,-10.605283455813296456
0.333000000000000185,-10.457306896031784760
0.334000000000000186,-10.307068453071988046
0.335000000000000187,-10.154645042388953158
0.336000000000000187,-10.000117798869576191
0.337000000000000188,-9.843571830792813060
0.338000000000000189,-9.685095970264052667
0.339000000000000190,-9.524782521145242598
0.340000000000000191,-9.362727005444366313
0.341000000000000192,-9.199027909071427089
0.342000000000000193,-9.033786427810863273
0.343000000000000194,-8.867106214305936263
0.344000000000000195,-8.699093126795407471
0.345000000000000195,-8.529854980290668465
0.346000000000000196,-8.359501300829105475
0.347000000000000197,-8.188143083389581633
0.348000000000000198,-8.015892554007297832
0.349000000000000199,-7.842862936577745359
0.350000000000000200,-7.669168224794638888
0.351000000000000201,-7.494922959622256187
0.352000000000000202,-7.320242012661161368
0.353000000000000203,-7.145240375725757431
0.354000000000000203,-6.970032956913430944
0.355000000000000204,-6.794734383408676415
0.356000000000000205,-6.619458811230344963
0.357000000000000206,-6.444319742096991988
0.358000000000000207,-6.269429847553769974
0.359000000000000208,-6.094900800474716718
0.360000000000000209,-5.920843114025940324
0.361000000000000210,-5.747365988149052640
0.362000000000000210,-5.574577163599117036
0.363000000000000211,-5.402582783548441014
0.364000000000000212,-5.231487262745726063
0.365000000000000213,-5.061393164199830430
0.366000000000000214,-4.892401083338943302
0.367000000000000215,-4.724609539578343842
0.368000000000000216,-4.558114875214275052
0.369000000000000217,-4.393011161546527710
0.370000000000000218,-4.229390112119213008
0.371000000000000218,-4.067341002956771590
0.372000000000000219,-3.906950599661487278
0.373000000000000220,-3.748303091228609052
0.374000000000000221,-3.591480030426659198
0.375000000000000222,-3.436560280582237059
0.376000000000000223,-3.283619968602110362
0.377000000000000224,-3.132732444059128873
0.378000000000000225,-2.983968244163593742
0.379000000000000226,-2.837395064437135961
0.380000000000000226,-2.693077734902930231
0.381000000000000227,-2.551078201602875239
0.382000000000000228,-2.411455513250558180
0.383000000000000229,-2.274265812827174216
0.384000000000000230,-2.139562333926447124
0.385000000000000231,-2.007395401654731959
0.386000000000000232,-1.877812437892095287
0.387000000000000233,-1.750857970721156676
0.388000000000000234,-1.626573647831369929
0.389000000000000234,-1.504998253708117684
0.390000000000000235,-1.386167730417476651
0.391000000000000236,-1.270115201800290361
0.392000000000000237,-1.156871000891036338
0.393000000000000238,-1.046462700380435207
0.394000000000000239,-0.938915145943328922
0.395000000000000240,-0.834250492256943588
0.396000000000000241,-0.732488241538053031
0.397000000000000242,-0.633645284431268441
0.398000000000000242,-0.537735943084592827
0.399000000000000243,-0.444772016252358515
0.400000000000000244,-0.354762826269562737
0.401000000000000245,-0.267715267746479690
0.402000000000000246,-0.183633857835903913
0.403000000000000247,-0.102520787930371518
0.404000000000000248,-0.024375976650959374
0.405000000000000249,0.050802876006331862
0.406000000000000250,0.123020233496026379
0.407000000000000250,0.192282666645342076
0.408000000000000251,0.258598796793575669
0.409000000000000252,0.321979238264442968
0.410000000000000253,0.382436540282993731
0.411000000000000254,0.439985128443852236
0.412000000000000255,0.494641245833494725
0.413000000000000256,0.546422893904557339
0.414000000000000257,0.595349773196199972
0.415000000000000258,0.641443223989915046
0.416000000000000258,0.684726166986296736
0.417000000000000259,0.725223044083943447
0.418000000000000260,0.762959759337690557
0.419000000000000261,0.797963620169448662
0.420000000000000262,0.830263278900875812
0.421000000000000263,0.859888674673443654
0.422000000000000264,0.886870975817708462
0.423000000000000265,0.911242522729962090
0.424000000000000266,0.933036771310773339
0.425000000000000266,0.952288237016763794
0.426000000000000267,0.969032439573383364
0.427000000000000268,0.983305848393236426
0.428000000000000269,0.995145828741472505
0.429000000000000270,1.004590588686616437
0.430000000000000271,1.011679126872185197
0.431000000000000272,1.016451181141780236
0.432000000000000273,1.018947178047382440
0.433000000000000274,1.019208183268040413
0.434000000000000274,1.017275852963486660
0.435000000000000275,1.013192386084852625
0.436000000000000276,1.007000477662176374
0.437000000000000277,0.998743273086143191
0.438000000000000278,0.988464323399368516
0.439000000000000279,0.976207541610317642
0.440000000000000280,0.962017160041039432
0.441000000000000281,0.945937688718005765
0.442000000000000282,0.928013874813271022
0.443000000000000282,0.908290663141822052
0.444000000000000283,0.886813157718859713
0.445000000000000284,0.863626584379533435
0.446000000000000285,0.838776254461978565
0.447000000000000286,0.812307529553006225
0.448000000000000287,0.784265787294622929
0.449000000000000288,0.754696388248116912
0.450000000000000289,0.723644643811269139
0.451000000000000290,0.691155785183176663
0.452000000000000290,0.657274933369986769
0.453000000000000291,0.622047070223909815
0.454000000000000292,0.585517010506883651
0.455000000000000293,0.547729374969384564
0.456000000000000294,0.508728564434049679
0.457000000000000295,0.468558734873051719
0.458000000000000296,0.427263773467279062
0.459000000000000297,0.384887275635007353
0.460000000000000298,0.341472523016725926
0.461000000000000298,0.297062462402725713
0.462000000000000299,0.251699685588960609
0.463000000000000300,0.205426410146752308
0.464000000000000301,0.158284461091100143
0.465000000000000302,0.110315253432235513
0.466000000000000303,0.061559775594418428
0.467000000000000304,0.012058573686054740
0.468000000000000305,-0.038148263395457918
0.469000000000000306,-0.089021118040714511
0.470000000000000306,-0.140520857203942529
0.471000000000000307,-0.192608844894402997
0.472000000000000308,-0.245246953900644271
0.473000000000000309,-0.298397576764910410
0.474000000000000310,-0.352023636024989428
0.475000000000000311,-0.406088593741125159
0.476000000000000312,-0.460556460325080130
0.477000000000000313,-0.515391802689200818
0.478000000000000314,-0.570559751732617193
0.479000000000000314,-0.626026009182167775
0.480000000000000315,-0.681756853805301488
0.481000000000000316,-0.737719147012304788
0.482000000000000317,-0.793880337864990571
0.483000000000000318,-0.850208467508965171
0.484000000000000319,-0.906672173046417784
0.485000000000000320,-0.963240690866244420
0.486000000000000321,-1.019883859448221575
0.487000000000000322,-1.076572121657667580
0.488000000000000322,-1.133276526547013052
0.489000000000000323,-1.189968730680309950
0.490000000000000324,-1.246620998996765151
0.491000000000000325,-1.303206205228937264
0.492000000000000326,-1.359697831891190756
0.493000000000000327,-1.416069969853674282
0.494000000000000328,-1.472297317516946036
0.495000000000000329,-1.528355179602069125
0.496000000000000330,-1.584219465570777308
0.497000000000000330,-1.639866687690108904
0.498000000000000331,-1.695273958755596055
0.499000000000000332,-1.750418989486796750
0.500000000000000333,-1.805280085608936158
0.501000000000000334,-1.859836144633827626
0.502000000000000335,-1.914066652353251685
0.503000000000000336,-1.967951679057517778
0.504000000000000337,-2.021471875491874570
0.505000000000000338,-2.074608468562900487
0.506000000000000338,-2.127343256806978555
0.507000000000000339,-2.179658605632584845
0.508000000000000340,-2.231537442347813816
0.509000000000000341,-2.282963250984363590
0.510000000000000342,-2.333920066928926396
0.511000000000000343,-2.384392471372631217
0.512000000000000344,-2.434365585588952108
0.513000000000000345,-2.483825065050153214
0.514000000000000346,-2.532757093392280279
0.515000000000000346,-2.581148376238124875
0.516000000000000347,-2.628986134887647985
0.517000000000000348,-2.676258099884905484
0.518000000000000349,-2.722952504470314672
0.519000000000000350,-2.769058077926814132
0.520000000000000351,-2.814564038828356818
0.521000000000000352,-2.859460088198694905
0.522000000000000353,-2.903736402588369625
0.523000000000000353,-2.947383627077563961
0.524000000000000354,-2.990392868212054189
0.525000000000000355,-3.032755686879561541
0.526000000000000356,-3.074464091133245258
0.527000000000000357,-3.115510528969133386
0.528000000000000358,-3.155887881063985212
0.529000000000000359,-3.195589453479615649
0.530000000000000360,-3.234608970339962752
0.531000000000000361,-3.272940566486548075
0.532000000000000361,-3.310578780118016429
0.533000000000000362,-3.347518545419067237
0.534000000000000363,-3.383755185184104786
0.535000000000000364,-3.419284403440515430
0.536000000000000365,-3.454102278076419452
0.537000000000000366,-3.488205253477538292
0.538000000000000367,-3.521590133177601611
0.539000000000000368,-3.554254072526567221
0.540000000000000369,-3.586194571380750595
0.541000000000000369,-3.617409466818756414
0.542000000000000370,-3.647896925886979780
0.543000000000000371,-3.677655438378253372
0.544000000000000372,-3.706683809647082661
0.545000000000000373,-3.734981153464682624
0.546000000000000374,-3.762546884917019163
0.547000000000000375,-3.789380713348717400
0.548000000000000376,-3.815482635355762486
0.549000000000000377,-3.840852927829575769
0.550000000000000377,-3.865492141055096198
0.551000000000000378,-3.889401091865200222
0.552000000000000379,-3.912580856853792088
0.553000000000000380,-3.935032765649701503
0.554000000000000381,-3.956758394253388822
0.555000000000000382,-3.977759558438429544
0.556000000000000383,-3.998038307219495380
0.557000000000000384,-4.017596916388580297
0.558000000000000385,-4.036437882120986309
0.559000000000000385,-4.054563914652598910
0.560000000000000386,-4.071977932029723135
0.561000000000000387,-4.088683053932846256
0.562000000000000388,-4.104682595575398274
0.563000000000000389,-4.119980061678669259
0.564000000000000390,-4.134579140523772622
0.565000000000000391,-4.148483698081629534
0.566000000000000392,-4.161697772221754299
0.567000000000000393,-4.174225567000538817
0.568000000000000393,-4.186071447029725334
0.569000000000000394,-4.197239931925627054
0.570000000000000395,-4.207735690839602860
0.571000000000000396,-4.217563537070157409
0.572000000000000397,-4.226728422757135561
0.573000000000000398,-4.235235433658205650
0.574000000000000399,-4.243089784007884724
0.575000000000000400,-4.250296811459324253
0.576000000000000401,-4.256861972108880288
0.577000000000000401,-4.262790835603615491
0.578000000000000402,-4.268089080331653129
0.579000000000000403,-4.272762488695372340
0.580000000000000404,-4.276816942467343452
0.581000000000000405,-4.280258418228823913
0.582000000000000406,-4.283092982890657652
0.583000000000000407,-4.285326789296272310
0.584000000000000408,-4.286966071906610942
0.585000000000000409,-4.288017142566529216
0.586000000000000409,-4.288486386352394319
0.587000000000000410,-4.288380257500504555
0.588000000000000411,-4.287705275415772732
0.589000000000000412,-4.286468020760396236
0.590000000000000413,-4.284675131621822786
0.591000000000000414,-4.282333299759644163
0.592000000000000415,-4.279449266930771323
0.593000000000000416,-4.276029821292334887
0.594000000000000417,-4.272081793881715051
0.595000000000000417,-4.267612055173082730
0.596000000000000418,-4.262627511709719208
0.597000000000000419,-4.257135102811590244
0.598000000000000420,-4.251141797357306018
0.599000000000000421,-4.244654590639897584
0.600000000000000422,-4.237680501295597146
0.601000000000000423,-4.230226568304900070
0.602000000000000424,-4.222299848065147465
0.603000000000000425,-4.213907411533892144
0.604000000000000425,-4.205056341442140244
0.605000000000000426,-4.195753729576823687
0.606000000000000427,-4.186006674131599326
0.607000000000000428,-4.175822277125112336
0.608000000000000429,-4.165207641886048862
0.609000000000000430,-4.154169870603935166
0.610000000000000431,-4.142716061945034944
0.611000000000000432,-4.130853308732319817
