# AuFCC100-Ablate0_1HINDOLE-AC
# h[nm],U(h)[kJ/mol]
0.149999999999999994,123.073336513497679334
0.150999999999999995,118.422514778276237735
0.151999999999999996,113.765347701601669428
0.152999999999999997,109.154176417544775290
0.153999999999999998,104.640968021590808235
0.154999999999999999,100.257975358565545321
0.156000000000000000,96.016279617603387919
0.157000000000000001,91.911289823582464464
0.158000000000000002,87.929663449353441251
0.159000000000000002,84.055188646864564816
0.160000000000000003,80.272830695530146272
0.161000000000000004,76.570967855299286953
0.162000000000000005,72.942185571226659135
0.163000000000000006,69.383084303720409025
0.164000000000000007,65.893517129885495365
0.165000000000000008,62.475584212648278992
0.166000000000000009,59.132612943983851039
0.167000000000000010,55.868264794639287629
0.168000000000000010,52.685840338679270189
0.169000000000000011,49.587803707149646470
0.170000000000000012,46.575514785871924062
0.171000000000000013,43.649138463436052859
0.172000000000000014,40.807691616121644529
0.173000000000000015,38.049187087642472704
0.174000000000000016,35.370837047701193967
0.175000000000000017,32.769283766592820939
0.176000000000000018,30.240832556101111095
0.177000000000000018,27.781668405034984914
0.178000000000000019,25.388044060717124495
0.179000000000000020,23.056432636583693352
0.180000000000000021,20.783642122422971710
0.181000000000000022,18.566892434237352916
0.182000000000000023,16.403857945845416566
0.183000000000000024,14.292679920929439064
0.184000000000000025,12.231954058434842736
0.185000000000000026,10.220698623502070035
0.186000000000000026,8.258308497884875976
0.187000000000000027,6.344500069100626582
0.188000000000000028,4.479251288122555685
0.189000000000000029,2.662740543307871466
0.190000000000000030,0.895287286850732444
0.191000000000000031,-0.822703343949042543
0.192000000000000032,-2.490790312532653594
0.193000000000000033,-4.108539851893189265
0.194000000000000034,-5.675561484709354509
0.195000000000000034,-7.191536770429027392
0.196000000000000035,-8.656240978437702793
0.197000000000000036,-10.069558131413240076
0.198000000000000037,-11.431490037000633819
0.199000000000000038,-12.742160037997814825
0.200000000000000039,-14.001812270826476947
0.201000000000000040,-15.210807238621452342
0.202000000000000041,-16.369614487781664280
0.203000000000000042,-17.478803133510830037
0.204000000000000042,-18.539030918050983132
0.205000000000000043,-19.551032411293139290
0.206000000000000044,-20.515606882564053848
0.207000000000000045,-21.433606288983853005
0.208000000000000046,-22.305923743326992792
0.209000000000000047,-23.133482745439501116
0.210000000000000048,-23.917227387896463853
0.211000000000000049,-24.658113680036233717
0.212000000000000050,-25.357102075578655587
0.213000000000000050,-26.015151238087860008
0.214000000000000051,-26.633213035611454700
0.215000000000000052,-27.212228720681629568
0.216000000000000053,-27.753126224072069306
0.217000000000000054,-28.256818469703386398
0.218000000000000055,-28.724202603222153130
0.219000000000000056,-29.156160017341335333
0.220000000000000057,-29.553557052303300878
0.221000000000000058,-29.917246249092006138
0.222000000000000058,-30.248068035602322823
0.223000000000000059,-30.546852731218017141
0.224000000000000060,-30.814422762568870695
0.225000000000000061,-31.051594992095800762
0.226000000000000062,-31.259183070970884444
0.227000000000000063,-31.437999738486542611
0.228000000000000064,-31.588859000885474160
0.229000000000000065,-31.712578133454353946
0.230000000000000066,-31.809979460300723986
0.231000000000000066,-31.881891876381388329
0.232000000000000067,-31.929152085896429725
0.233000000000000068,-31.952605539995204254
0.234000000000000069,-31.953107064781658408
0.235000000000000070,-31.931521177806974521
0.236000000000000071,-31.888722097578181547
0.237000000000000072,-31.825593456090807365
0.238000000000000073,-31.743027729028447936
0.239000000000000073,-31.641925402094791764
0.240000000000000074,-31.523193894996332176
0.241000000000000075,-31.387746266927099015
0.242000000000000076,-31.236499729075621445
0.243000000000000077,-31.070373990740886683
0.244000000000000078,-30.890289466168486143
0.245000000000000079,-30.697165369261995238
0.246000000000000080,-30.491917722951576764
0.247000000000000081,-30.275457309268055894
0.248000000000000081,-30.048687585135599676
0.249000000000000082,-29.812502587611341198
0.250000000000000111,-29.567784850817123043
0.251000000000000112,-29.315403355171071098
0.252000000000000113,-29.056211527779787218
0.253000000000000114,-28.791045311029343168
0.254000000000000115,-28.520721314552929471
0.255000000000000115,-28.246035063880839289
0.256000000000000116,-27.967759357223105354
0.257000000000000117,-27.686642740016822017
0.258000000000000118,-27.403408105108468362
0.259000000000000119,-27.118751424751707191
0.260000000000000120,-26.833340618995986659
0.261000000000000121,-26.547814563528998377
0.262000000000000122,-26.262782238626762421
0.263000000000000123,-25.978822019560670498
0.264000000000000123,-25.696481107616961026
0.265000000000000124,-25.416275099800309079
0.266000000000000125,-25.138687694321266264
0.267000000000000126,-24.864170528103180402
0.268000000000000127,-24.593143141788480932
0.269000000000000128,-24.325993067070889708
0.270000000000000129,-24.063076030626593393
0.271000000000000130,-23.804716268457998041
0.272000000000000131,-23.551206944094271734
0.273000000000000131,-23.302810663806319269
0.274000000000000132,-23.059760081785970698
0.275000000000000133,-22.822258588103473187
0.276000000000000134,-22.590481072187124312
0.277000000000000135,-22.364574754559829017
0.278000000000000136,-22.144660079612133785
0.279000000000000137,-21.930831662284759886
0.280000000000000138,-21.723159281671289733
0.281000000000000139,-21.521688914725633168
0.282000000000000139,-21.326443803467554972
0.283000000000000140,-21.137425549314915685
0.284000000000000141,-20.954615228431066498
0.285000000000000142,-20.777974522254805123
0.286000000000000143,-20.607446857674624141
0.287000000000000144,-20.442958551615067364
0.288000000000000145,-20.284419955118291767
0.289000000000000146,-20.131726592323531122
0.290000000000000147,-19.984760290070386901
0.291000000000000147,-19.843390294174842126
0.292000000000000148,-19.707474368748002291
0.293000000000000149,-19.576859875244490894
0.294000000000000150,-19.451384828238516889
0.295000000000000151,-19.330878925230056353
0.296000000000000152,-19.215164548078099926
0.297000000000000153,-19.104057733944628694
0.298000000000000154,-18.997369113906785287
0.299000000000000155,-18.894904817659330831
0.300000000000000155,-18.796467342980566428
0.301000000000000156,-18.701856388874102066
0.302000000000000157,-18.610869651525469237
0.303000000000000158,-18.523303582425949543
0.304000000000000159,-18.438954108216311312
0.305000000000000160,-18.357617311990601650
0.306000000000000161,-18.279090075974334439
0.307000000000000162,-18.203170685653198291
0.308000000000000163,-18.129659395576936731
0.309000000000000163,-18.058358957200137951
0.310000000000000164,-17.989075109245881379
0.311000000000000165,-17.921617031191480862
0.312000000000000166,-17.855797760577139854
0.313000000000000167,-17.791434574929620993
0.314000000000000168,-17.728349339173387733
0.315000000000000169,-17.666368819472797469
0.316000000000000170,-17.605324964510248975
0.317000000000000171,-17.545055155257859525
0.318000000000000171,-17.485402424344236749
0.319000000000000172,-17.426215646154574301
0.320000000000000173,-17.367349698830821580
0.321000000000000174,-17.308665599360871568
0.322000000000000175,-17.250030612961165133
0.323000000000000176,-17.191318337966684737
0.324000000000000177,-17.132408767446300146
0.325000000000000178,-17.073188328760370069
0.326000000000000179,-17.013549902271833503
0.327000000000000179,-16.953392820411924191
0.328000000000000180,-16.892622848287892623
0.329000000000000181,-16.831152147003031416
0.330000000000000182,-16.768899220838139996
0.331000000000000183,-16.705788849421484343
0.332000000000000184,-16.641752005987491714
0.333000000000000185,-16.576725762797529740
0.334000000000000186,-16.510653184765857304
0.335000000000000187,-16.443483212302854923
0.336000000000000187,-16.375170534355188323
0.337000000000000188,-16.305675452588509700
0.338000000000000189,-16.234963737624134694
0.339000000000000190,-16.163006478205918626
0.340000000000000191,-16.089779924137335598
0.341000000000000192,-16.015265323793972385
0.342000000000000193,-15.939448756979071931
0.343000000000000194,-15.862320963855015776
0.344000000000000195,-15.783877170646785970
0.345000000000000195,-15.704116912778408377
0.346000000000000196,-15.623043856067559076
0.347000000000000197,-15.540665616569322438
0.348000000000000198,-15.456993579625310176
0.349000000000000199,-15.372042718641148795
0.350000000000000200,-15.285831414082428736
0.351000000000000201,-15.198381273147072434
0.352000000000000202,-15.109716950540777347
0.353000000000000203,-15.019865970752229956
0.354000000000000203,-14.928858552194762765
0.355000000000000204,-14.836727433553161148
0.356000000000000205,-14.743507702646482471
0.357000000000000206,-14.649236628091497181
0.358000000000000207,-14.553953494025384074
0.359000000000000208,-14.457699438122421753
0.360000000000000209,-14.360517293115361070
0.361000000000000210,-14.262451432010001540
0.362000000000000210,-14.163547617159782277
0.363000000000000211,-14.063852853347038163
0.364000000000000212,-13.963415244997818832
0.365000000000000213,-13.862283857638630025
0.366000000000000214,-13.760508583686270612
0.367000000000000215,-13.658140012644917505
0.368000000000000216,-13.555229305769268322
0.369000000000000217,-13.451828075237552085
0.370000000000000218,-13.347988267864618450
0.371000000000000218,-13.243762053371970211
0.372000000000000219,-13.139201717219634702
0.373000000000000220,-13.034359557993493439
0.374000000000000221,-12.929287789330757619
0.375000000000000222,-12.824038446356794907
0.376000000000000223,-12.718663296597243928
0.377000000000000224,-12.613213755320924037
0.378000000000000225,-12.507740805261526873
0.379000000000000226,-12.402294920658636812
0.380000000000000226,-12.296925995552726363
0.381000000000000227,-12.191683276262221369
0.382000000000000228,-12.086615297966140758
0.383000000000000229,-11.981769825310591315
0.384000000000000230,-11.877193796953203986
0.385000000000000231,-11.772933273956267541
0.386000000000000232,-11.669033391935437649
0.387000000000000233,-11.565538316868536839
0.388000000000000234,-11.462491204466221717
0.389000000000000234,-11.359934163004647090
0.390000000000000235,-11.257908219518018456
0.391000000000000236,-11.156453289248274174
0.392000000000000237,-11.055608148247623390
0.393000000000000238,-10.955410409029314067
0.394000000000000239,-10.855896499161449498
0.395000000000000240,-10.757101642698653876
0.396000000000000241,-10.659059844346440826
0.397000000000000242,-10.561803876253490486
0.398000000000000242,-10.465365267327793930
0.399000000000000243,-10.369774294973099771
0.400000000000000244,-10.275059979143208011
0.401000000000000245,-10.181250078612945842
0.402000000000000246,-10.088371089365640643
0.403000000000000247,-9.996448244998330068
0.404000000000000248,-9.905505519047874685
0.405000000000000249,-9.815565629142302129
0.406000000000000250,-9.726650042883765224
0.407000000000000250,-9.638778985371294183
0.408000000000000251,-9.551971448273302912
0.409000000000000252,-9.466245200362109813
0.410000000000000253,-9.381616799424396191
0.411000000000000254,-9.298101605464031749
0.412000000000000255,-9.215713795115522800
0.413000000000000256,-9.134466377188825703
0.414000000000000257,-9.054371209268124332
0.415000000000000258,-8.975439015289831346
0.416000000000000258,-8.897679404027014627
0.417000000000000259,-8.821100888409796781
0.418000000000000260,-8.745710905613648833
0.419000000000000261,-8.671515837849584685
0.420000000000000262,-8.598521033792700052
0.421000000000000263,-8.526730830587672116
0.422000000000000264,-8.456148576371974812
0.423000000000000265,-8.386776653259943259
0.424000000000000266,-8.318616500732986196
0.425000000000000266,-8.251668639383268555
0.426000000000000267,-8.185932694960461831
0.427000000000000268,-8.121407422673252441
0.428000000000000269,-8.058090731699348197
0.429000000000000270,-7.995979709859706297
0.430000000000000271,-7.935070648414836114
0.431000000000000272,-7.875359066942857922
0.432000000000000273,-7.816839738261014858
0.433000000000000274,-7.759506713354173080
0.434000000000000274,-7.703353346275660485
0.435000000000000275,-7.648372318987641805
0.436000000000000276,-7.594555666109974013
0.437000000000000277,-7.541894799548051864
0.438000000000000278,-7.490380532972023886
0.439000000000000279,-7.440003106121293008
0.440000000000000280,-7.390752208909582066
0.441000000000000281,-7.342617005307696232
0.442000000000000282,-7.295586156982386328
0.443000000000000282,-7.249647846671118501
0.444000000000000283,-7.204789801274036343
0.445000000000000284,-7.160999314645728475
0.446000000000000285,-7.118263270070558590
0.447000000000000286,-7.076568162406819518
0.448000000000000287,-7.035900119885861947
0.449000000000000288,-6.996244925553794403
0.450000000000000289,-6.957588038344219683
0.451000000000000290,-6.919914613771728895
0.452000000000000290,-6.883209524236785448
0.453000000000000291,-6.847457378933637706
0.454000000000000292,-6.812642543353929270
0.455000000000000293,-6.778749158379393513
0.456000000000000294,-6.745761158958136328
0.457000000000000295,-6.713662292359591888
0.458000000000000296,-6.682436136004213267
0.459000000000000297,-6.652066114864609858
0.460000000000000298,-6.622535518435593183
0.461000000000000298,-6.593827517271273919
0.462000000000000299,-6.565925179088054620
0.463000000000000300,-6.538811484432834220
0.464000000000000301,-6.512469341916540699
0.465000000000000302,-6.486881603013439523
0.466000000000000303,-6.462031076427417808
0.467000000000000304,-6.437900542026660844
0.468000000000000305,-6.414472764348931655
0.469000000000000306,-6.391730505679825036
0.470000000000000306,-6.369656538706945703
0.471000000000000307,-6.348233658753232866
0.472000000000000308,-6.327444695593205992
0.473000000000000309,-6.307272524855976670
0.474000000000000310,-6.287700079019387545
0.475000000000000311,-6.268710357999927041
0.476000000000000312,-6.250286439343215150
0.477000000000000313,-6.232411488020213497
0.478000000000000314,-6.215068765834510955
0.479000000000000314,-6.198241640446294554
0.480000000000000315,-6.181913594018650926
0.481000000000000316,-6.166068231492326746
0.482000000000000317,-6.150689288494836759
0.483000000000000318,-6.135760638890361385
0.484000000000000319,-6.121266301976640456
0.485000000000000320,-6.107190449335500482
0.486000000000000321,-6.093517411343492007
0.487000000000000322,-6.080231683349389904
0.488000000000000322,-6.067317931525240127
0.489000000000000323,-6.054760998397829219
0.490000000000000324,-6.042545908067419980
0.491000000000000325,-6.030657871120638447
0.492000000000000326,-6.019082289244434669
0.493000000000000327,-6.007804759548131202
0.494000000000000328,-5.996811078600416067
0.495000000000000329,-5.986087246188367850
0.496000000000000330,-5.975619468805325241
0.497000000000000330,-5.965394162874654072
0.498000000000000331,-5.955397957716255242
0.499000000000000332,-5.945617698262710249
0.500000000000000333,-5.936040447531920172
0.501000000000000334,-5.926653488863045105
0.502000000000000335,-5.917444327922434688
0.503000000000000336,-5.908400694486345195
0.504000000000000337,-5.899510544006997925
0.505000000000000338,-5.890762058968567416
0.506000000000000338,-5.882143650039628469
0.507000000000000339,-5.873643957028471974
0.508000000000000340,-5.865251849647636462
0.509000000000000341,-5.856956428093929468
0.510000000000000342,-5.848747023450131088
0.511000000000000343,-5.840613197914486854
0.512000000000000344,-5.832544744863999320
0.513000000000000345,-5.824531688757359049
0.514000000000000346,-5.816564284883550151
0.515000000000000346,-5.808633018961583794
0.516000000000000347,-5.800728606597202131
0.517000000000000348,-5.792841992602034473
0.518000000000000349,-5.784964350180541892
0.519000000000000350,-5.777087079990225860
0.520000000000000351,-5.769201809080248822
0.521000000000000352,-5.761300389713600367
0.522000000000000353,-5.753374898077817434
0.523000000000000353,-5.745417632889243009
0.524000000000000354,-5.737421113895555536
0.525000000000000355,-5.729378080281330554
0.526000000000000356,-5.721281488981207808
0.527000000000000357,-5.713124512905193519
0.528000000000000358,-5.704900539080485444
0.529000000000000359,-5.696603166714059086
0.530000000000000360,-5.688226205180303197
0.531000000000000361,-5.679763671937696046
0.532000000000000361,-5.671209790378567206
0.533000000000000362,-5.662558987615765815
0.534000000000000363,-5.653805892210090001
0.535000000000000364,-5.644945331842093239
0.536000000000000365,-5.635972330931848795
0.537000000000000366,-5.626882108210229383
0.538000000000000367,-5.617670074244962564
0.539000000000000368,-5.608331828924873363
0.540000000000000369,-5.598863158905421855
0.541000000000000369,-5.589260035018685180
0.542000000000000370,-5.579518609650742533
0.543000000000000371,-5.569635214089435848
0.544000000000000372,-5.559606355845287951
0.545000000000000373,-5.549428715948328872
0.546000000000000374,-5.539099146223495751
0.547000000000000375,-5.528614666547115419
0.548000000000000376,-5.517972462087040952
0.549000000000000377,-5.507169880528758554
0.550000000000000377,-5.496204429289799798
0.551000000000000378,-5.485073772724709862
0.552000000000000379,-5.473775729322729156
0.553000000000000380,-5.462308268900245345
0.554000000000000381,-5.450669509790012413
0.555000000000000382,-5.438857716029145806
0.556000000000000383,-5.426871294547600755
0.557000000000000384,-5.414708792359084200
0.558000000000000385,-5.402368893755996382
0.559000000000000385,-5.389850417510103853
0.560000000000000386,-5.377152314080511530
0.561000000000000387,-5.364273662830454370
0.562000000000000388,-5.351213669254359928
0.563000000000000389,-5.337971662216561164
0.564000000000000390,-5.324547091202994409
0.565000000000000391,-5.310939523587170363
0.566000000000000392,-5.297148641911606504
0.567000000000000393,-5.283174241185895070
0.568000000000000393,-5.269016226202468012
0.569000000000000394,-5.254674608871164665
0.570000000000000395,-5.240149505573581834
0.571000000000000396,-5.225441134538084675
0.572000000000000397,-5.210549813236478478
0.573000000000000398,-5.195475955803107837
0.574000000000000399,-5.180220070477216332
0.575000000000000400,-5.164782757069330543
0.576000000000000401,-5.149164704452325658
0.577000000000000401,-5.133366688077917850
0.578000000000000402,-5.117389567519165183
0.579000000000000403,-5.101234284039519729
0.580000000000000404,-5.084901858189099677
0.581000000000000405,-5.068393387428541175
0.582000000000000406,-5.051710043781022286
0.583000000000000407,-5.034853071512806366
0.584000000000000408,-5.017823784842788015
0.585000000000000409,-5.000623565681318716
0.586000000000000409,-4.983253861398709184
0.587000000000000410,-4.965716182623724606
0.588000000000000411,-4.948012101072258417
0.589000000000000412,-4.930143247406541640
0.590000000000000413,-4.912111309125000602
0.591000000000000414,-4.893918028483041027
0.592000000000000415,-4.875565200444841096
0.593000000000000416,-4.857054670666341778
0.594000000000000417,-4.838388333509525907
0.595000000000000417,-4.819568130088099700
0.596000000000000418,-4.800596046344555390
0.597000000000000419,-4.781474111158830809
0.598000000000000420,-4.762204394488355419
0.599000000000000421,-4.742789005539728819
0.600000000000000422,-4.723230090971813233
0.601000000000000423,-4.703529833130318139
0.602000000000000424,-4.683690448313805099
0.603000000000000425,-4.663714185071019536
0.604000000000000425,-4.643603322529449962
0.605000000000000426,-4.623360168755082711
0.606000000000000427,-4.602987059143152315
0.607000000000000428,-4.582486354839794274
0.608000000000000429,-4.561860441194459881
