# AuFCC100-Ablate0_QUINOLINE-AC
# h[nm],U(h)[kJ/mol]
0.149999999999999994,126.836805003525753932
0.150999999999999995,122.306390020923259954
0.151999999999999996,117.834645113513531101
0.152999999999999997,113.415763474406688260
0.153999999999999998,109.072119606303502337
0.154999999999999999,104.825862481863552489
0.156000000000000000,100.689594868284217455
0.157000000000000001,96.665923882767700093
0.158000000000000002,92.750355770004787814
0.159000000000000002,88.934771919766362203
0.160000000000000003,85.210289082769548941
0.161000000000000004,81.569143719376157264
0.162000000000000005,78.005647209318169644
0.163000000000000006,74.516422109895955828
0.164000000000000007,71.100163933750238243
0.165000000000000008,67.757145650549063021
0.166000000000000009,64.488631661364792080
0.167000000000000010,61.296314723229968990
0.168000000000000010,58.181842860041044219
0.169000000000000011,55.146467200052327939
0.170000000000000012,52.190816162773089104
0.171000000000000013,49.314785143876932239
0.172000000000000014,46.517521902738330652
0.173000000000000015,43.797484290991413047
0.174000000000000016,41.152547043474662303
0.175000000000000017,38.580136682252451408
0.176000000000000018,36.077377095480549940
0.177000000000000018,33.641232286701217902
0.178000000000000019,31.268636641832365797
0.179000000000000020,28.956606524625044585
0.180000000000000021,26.702329928274615156
0.181000000000000022,24.503233226562230129
0.182000000000000023,22.357025796370400883
0.183000000000000024,20.261724480216482647
0.184000000000000025,18.215660599854601287
0.185000000000000026,16.217472605089636062
0.186000000000000026,14.266087529402735612
0.187000000000000027,12.360694302440828451
0.188000000000000028,10.500711705431509557
0.189000000000000029,8.685753404447229542
0.190000000000000030,6.915592102216677972
0.191000000000000031,5.190124445481188786
0.192000000000000032,3.509337936106433631
0.193000000000000033,1.873280736840545302
0.194000000000000034,0.282034946931960906
0.195000000000000034,-1.264306346106839785
0.196000000000000035,-2.765658153175892142
0.197000000000000036,-4.221958897595272653
0.198000000000000037,-5.633182176445202138
0.199000000000000038,-6.999345281714977496
0.200000000000000039,-8.320514852757344926
0.201000000000000040,-9.596810062491559989
0.202000000000000041,-10.828403747939614021
0.203000000000000042,-12.015521885960101400
0.204000000000000042,-13.158441791949323729
0.205000000000000043,-14.257489386750416216
0.206000000000000044,-15.313035838433544100
0.207000000000000045,-16.325493843790717108
0.208000000000000046,-17.295313771609990283
0.209000000000000047,-18.222979847836505485
0.210000000000000048,-19.109006522934340211
0.211000000000000049,-19.953935125088619884
0.212000000000000050,-20.758330869963351972
0.213000000000000050,-21.522780268906984702
0.214000000000000051,-22.247888952915481298
0.215000000000000052,-22.934279909278306064
0.216000000000000053,-23.582592111475847219
0.217000000000000054,-24.193479510300832658
0.218000000000000055,-24.767610345006932704
0.219000000000000056,-25.305666727172614117
0.220000000000000057,-25.808344446519459581
0.221000000000000058,-26.276352946739979899
0.222000000000000058,-26.710415420099405281
0.223000000000000059,-27.111268971803205829
0.224000000000000060,-27.479664808540320564
0.225000000000000061,-27.816368409911042647
0.226000000000000062,-28.122159646357101082
0.227000000000000063,-28.397832812492321608
0.228000000000000064,-28.644196550180424765
0.229000000000000065,-28.862073641152782955
0.230000000000000066,-29.052300654259891388
0.231000000000000066,-29.215727437497683638
0.232000000000000067,-29.353216449654432552
0.233000000000000068,-29.465641930725677611
0.234000000000000069,-29.553888914099143648
0.235000000000000070,-29.618852086894641218
0.236000000000000071,-29.661434507745859435
0.237000000000000072,-29.682546193733521989
0.238000000000000073,-29.683102590136080323
0.239000000000000073,-29.664022938173864929
0.240000000000000074,-29.626228557014968601
0.241000000000000075,-29.570641057014892539
0.242000000000000076,-29.498180501512269558
0.243000000000000077,-29.409763534537386676
0.244000000000000078,-29.306301491544285653
0.245000000000000079,-29.188698509787514013
0.246000000000000080,-29.057849654269652717
0.247000000000000081,-28.914639074317811662
0.248000000000000081,-28.759938204840260312
0.249000000000000082,-28.594604025199835462
0.250000000000000111,-28.419477387446271166
0.251000000000000112,-28.235381424400856076
0.252000000000000113,-28.043120046809185908
0.253000000000000114,-27.843476537488925260
0.254000000000000115,-27.637212249121528629
0.255000000000000115,-27.425065411081572364
0.256000000000000116,-27.207750049482058330
0.257000000000000117,-26.985955023447331769
0.258000000000000118,-26.760343179516858925
0.259000000000000119,-26.531550625041596447
0.260000000000000120,-26.300186120464054795
0.261000000000000121,-26.066830589477355318
0.262000000000000122,-25.832036745241946818
0.263000000000000123,-25.596328830099263740
0.264000000000000123,-25.360202465563396856
0.265000000000000124,-25.124124608789724533
0.266000000000000125,-24.888533611216530517
0.267000000000000126,-24.653839374644423543
0.268000000000000127,-24.420423599660601610
0.269000000000000128,-24.188640121024334917
0.270000000000000129,-23.958815324403509806
0.271000000000000130,-23.731248638686643915
0.272000000000000131,-23.506213097984712590
0.273000000000000131,-23.283955967379430518
0.274000000000000132,-23.064699426463839416
0.275000000000000133,-22.848641304754771397
0.276000000000000134,-22.635955863127225740
0.277000000000000135,-22.426794615528557131
0.278000000000000136,-22.221287185366470851
0.279000000000000137,-22.019542191129307440
0.280000000000000138,-21.821648155984181727
0.281000000000000139,-21.627674436304726413
0.282000000000000139,-21.437672164303304356
0.283000000000000140,-21.251675200178230085
0.284000000000000141,-21.069701089432342656
0.285000000000000142,-20.891752021273283901
0.286000000000000143,-20.717815784263660106
0.287000000000000144,-20.547866715650993541
0.288000000000000145,-20.381866641069208868
0.289000000000000146,-20.219765801564381746
0.290000000000000147,-20.061503765155386247
0.291000000000000147,-19.907010320394125102
0.292000000000000148,-19.756206349638638642
0.293000000000000149,-19.609004679994058051
0.294000000000000150,-19.465310910110549258
0.295000000000000151,-19.325024211254138606
0.296000000000000152,-19.188038101282188563
0.297000000000000153,-19.054241190364294312
0.298000000000000154,-18.923517897485638173
0.299000000000000155,-18.795749136958235681
0.300000000000000155,-18.670812974342180013
0.301000000000000156,-18.548585251345322433
0.302000000000000157,-18.428940179426103185
0.303000000000000158,-18.311750901969382710
0.304000000000000159,-18.196890025040431738
0.305000000000000160,-18.084230116846406133
0.306000000000000161,-17.973644176150028073
0.307000000000000162,-17.865006069984506354
0.308000000000000163,-17.758190941114293082
0.309000000000000163,-17.653075585772498357
0.310000000000000164,-17.549538802282800276
0.311000000000000165,-17.447461711242770122
0.312000000000000166,-17.346728048005925160
0.313000000000000167,-17.247224428252863504
0.314000000000000168,-17.148840587487192977
0.315000000000000169,-17.051469595330750906
0.316000000000000170,-16.955008045524564864
0.317000000000000171,-16.859356222567633665
0.318000000000000171,-16.764418245946124841
0.319000000000000172,-16.670102192919962647
0.320000000000000173,-16.576320200843518649
0.321000000000000174,-16.482988550002495742
0.322000000000000175,-16.390027727949430414
0.323000000000000176,-16.297362476317719171
0.324000000000000177,-16.204921821086909262
0.325000000000000178,-16.112639087262323301
0.326000000000000179,-16.020451898919279898
0.327000000000000179,-15.928302165546488922
0.328000000000000180,-15.836136055605319228
0.329000000000000181,-15.743903958202157156
0.330000000000000182,-15.651560433748397116
0.331000000000000183,-15.559064154460262586
0.332000000000000184,-15.466377835525022988
0.333000000000000185,-15.373468157734805573
0.334000000000000186,-15.280305682362239850
0.335000000000000187,-15.186864759024246041
0.336000000000000187,-15.093123427252596258
0.337000000000000188,-14.999063312460597430
0.338000000000000189,-14.904669516966823295
0.339000000000000190,-14.809930506707436493
0.340000000000000191,-14.714837994239298169
0.341000000000000192,-14.619386818607765122
0.342000000000000193,-14.523574822623093183
0.343000000000000194,-14.427402728061910153
0.344000000000000195,-14.330874009281018289
0.345000000000000195,-14.233994765703851471
0.346000000000000196,-14.136773593611891897
0.347000000000000197,-14.039221457647197866
0.348000000000000198,-13.941351562405875697
0.349000000000000199,-13.843179224476738653
0.350000000000000200,-13.744721745255143119
0.351000000000000201,-13.645998284837432379
0.352000000000000202,-13.547029737278615258
0.353000000000000203,-13.447838607473300954
0.354000000000000203,-13.348448889898193670
0.355000000000000204,-13.248885949433695686
0.356000000000000205,-13.149176404462201262
0.357000000000000206,-13.049348012421358334
0.358000000000000207,-12.949429557972086613
0.359000000000000208,-12.849450743923961582
0.360000000000000209,-12.749442085043469319
0.361000000000000210,-12.649434804854774228
0.362000000000000210,-12.549460735527672384
0.363000000000000211,-12.449552220932869062
0.364000000000000212,-12.349742022931243568
0.365000000000000213,-12.250063230950839710
0.366000000000000214,-12.150549174893399140
0.367000000000000215,-12.051233341400651611
0.368000000000000216,-11.952149293500228922
0.369000000000000217,-11.853330593640697188
0.370000000000000218,-11.754810730116281192
0.371000000000000218,-11.656623046872914173
0.372000000000000219,-11.558800676679148012
0.373000000000000220,-11.461376477638346216
0.374000000000000221,-11.364382973011238676
0.375000000000000222,-11.267852294311847317
0.376000000000000223,-11.171816127633968918
0.377000000000000224,-11.076305663160002979
0.378000000000000225,-10.981351547799166113
0.379000000000000226,-10.886983840897720199
0.380000000000000226,-10.793231972960105836
0.381000000000000227,-10.700124707316001960
0.382000000000000228,-10.607690104665765674
0.383000000000000229,-10.515955490433544384
0.384000000000000230,-10.424947424855144362
0.385000000000000231,-10.334691675725963478
0.386000000000000232,-10.245213193732151780
0.387000000000000233,-10.156536090287170637
0.388000000000000234,-10.068683617794610186
0.389000000000000234,-9.981678152257400072
0.390000000000000235,-9.895541178152763351
0.391000000000000236,-9.810293275492250942
0.392000000000000237,-9.725954108985622071
0.393000000000000238,-9.642542419227849493
0.394000000000000239,-9.560076015828396834
0.395000000000000240,-9.478571772402563766
0.396000000000000241,-9.398045623345291588
0.397000000000000242,-9.318512562308345792
0.398000000000000242,-9.239986642303005482
0.399000000000000243,-9.162480977351034284
0.400000000000000244,-9.086007745607970421
0.401000000000000245,-9.010578193884160925
0.402000000000000246,-8.936202643489938424
0.403000000000000247,-8.862890497332831075
0.404000000000000248,-8.790650248196389072
0.405000000000000249,-8.719489488131440424
0.406000000000000250,-8.649414918892215809
0.407000000000000250,-8.580432363351629732
0.408000000000000251,-8.512546777831330402
0.409000000000000252,-8.445762265284230352
0.410000000000000253,-8.380082089268524825
0.411000000000000254,-8.315508688654428937
0.412000000000000255,-8.252043693006168468
0.413000000000000256,-8.189687938584023996
0.414000000000000257,-8.128441484912517723
0.415000000000000258,-8.068303631863068759
0.416000000000000258,-8.009272937200993425
0.417000000000000259,-7.951347234548497234
0.418000000000000260,-7.894523651717276103
0.419000000000000261,-7.838798629365844484
0.420000000000000262,-7.784167939938681613
0.421000000000000263,-7.730626706845981744
0.422000000000000264,-7.678169423844229513
0.423000000000000265,-7.626789974579968323
0.424000000000000266,-7.576481652260421917
0.425000000000000266,-7.527237179416387036
0.426000000000000267,-7.479048727724413759
0.427000000000000268,-7.431907937856903068
0.428000000000000269,-7.385805939330185588
0.429000000000000270,-7.340733370322235274
0.430000000000000271,-7.296680397433172871
0.431000000000000272,-7.253636735362978705
0.432000000000000273,-7.211591666482483731
0.433000000000000274,-7.170534060274855293
0.434000000000000274,-7.130452392626276392
0.435000000000000275,-7.091334764945658620
0.436000000000000276,-7.053168923094692566
0.437000000000000277,-7.015942276110484599
0.438000000000000278,-6.979641914704458827
0.439000000000000279,-6.944254629522244038
0.440000000000000280,-6.909766929150272574
0.441000000000000281,-6.876165057856044704
0.442000000000000282,-6.843435013050026328
0.443000000000000282,-6.811562562457967651
0.444000000000000283,-6.780533260993601985
0.445000000000000284,-6.750332467322515129
0.446000000000000285,-6.720945360108769862
0.447000000000000286,-6.692356953936996256
0.448000000000000287,-6.664552114903069757
0.449000000000000288,-6.637515575867690920
0.450000000000000289,-6.611231951367670945
0.451000000000000290,-6.585685752180511443
0.452000000000000290,-6.560861399538618244
0.453000000000000291,-6.536743238990036176
0.454000000000000292,-6.513315553903337829
0.455000000000000293,-6.490562578614762046
0.456000000000000294,-6.468468511216409311
0.457000000000000295,-6.447017525984676922
0.458000000000000296,-6.426193785448818474
0.459000000000000297,-6.405981452099827500
0.460000000000000298,-6.386364699740399331
0.461000000000000298,-6.367327724477084061
0.462000000000000299,-6.348854755356322599
0.463000000000000300,-6.330930064646165256
0.464000000000000301,-6.313537977766117137
0.465000000000000302,-6.296662882867692268
0.466000000000000303,-6.280289240068738899
0.467000000000000304,-6.264401590344675697
0.468000000000000305,-6.248984564080353188
0.469000000000000306,-6.234022889286252145
0.470000000000000306,-6.219501399483103654
0.471000000000000307,-6.205405041259190568
0.472000000000000308,-6.191718881504864491
0.473000000000000309,-6.178428114328892384
0.474000000000000310,-6.165518067661462709
0.475000000000000311,-6.152974209548958129
0.476000000000000312,-6.140782154145497884
0.477000000000000313,-6.128927667406615321
0.478000000000000314,-6.117396672490409415
0.479000000000000314,-6.106175254871716085
0.480000000000000315,-6.095249667174769570
0.481000000000000316,-6.084606333730144812
0.482000000000000317,-6.074231854861573687
0.483000000000000318,-6.064113010908515733
0.484000000000000319,-6.054236765990224534
0.485000000000000320,-6.044590271517234825
0.486000000000000321,-6.035160869456110966
0.487000000000000322,-6.025936095353392474
0.488000000000000322,-6.016903681124590619
0.489000000000000323,-6.008051557614240146
0.490000000000000324,-5.999367856932844134
0.491000000000000325,-5.990840914576645915
0.492000000000000326,-5.982459271336064255
0.493000000000000327,-5.974211674998705313
0.494000000000000328,-5.966087081852694318
0.495000000000000329,-5.958074657996208501
0.496000000000000330,-5.950163780458820106
0.497000000000000330,-5.942344038140499940
0.498000000000000331,-5.934605232573779254
0.499000000000000332,-5.926937378514749000
0.500000000000000333,-5.919330704368395146
0.501000000000000334,-5.911775652453728824
0.502000000000000335,-5.904262879114108742
0.503000000000000336,-5.896783254678111597
0.504000000000000337,-5.889327863276168529
0.505000000000000338,-5.881888002518167902
0.506000000000000338,-5.874455183037126105
0.507000000000000339,-5.867021127903965905
0.508000000000000340,-5.859577771918311306
0.509000000000000341,-5.852117260780195451
0.510000000000000342,-5.844631950147425314
0.511000000000000343,-5.837114404583335414
0.512000000000000344,-5.829557396399492220
0.513000000000000345,-5.821953904397849655
0.514000000000000346,-5.814297112516894295
0.515000000000000346,-5.806580408385956460
0.516000000000000347,-5.798797381792049066
0.517000000000000348,-5.790941823063374017
0.518000000000000349,-5.783007721373501830
0.519000000000000350,-5.774989262970279924
0.520000000000000351,-5.766880829333311809
0.521000000000000352,-5.758676995263807719
0.522000000000000353,-5.750372526910494386
0.523000000000000353,-5.741962379735235267
0.524000000000000354,-5.733441696421865963
0.525000000000000355,-5.724805804731670555
0.526000000000000356,-5.716050215308835725
0.527000000000000357,-5.707170619439194681
0.528000000000000358,-5.698162886765380186
0.529000000000000359,-5.689023062961449995
0.530000000000000360,-5.679747367370067579
0.531000000000000361,-5.670332190605065215
0.532000000000000361,-5.660774092122280443
0.533000000000000362,-5.651069797761333113
0.534000000000000363,-5.641216197261123888
0.535000000000000364,-5.631210341751517134
0.536000000000000365,-5.621049441223783028
0.537000000000000366,-5.610730861982200501
0.538000000000000367,-5.600252124079153404
0.539000000000000368,-5.589610898736040667
0.540000000000000369,-5.578805005752114354
0.541000000000000369,-5.567832410903429619
0.542000000000000370,-5.556691223333945828
0.543000000000000371,-5.545379692940706207
0.544000000000000372,-5.533896207755086394
0.545000000000000373,-5.522239291321837662
0.546000000000000374,-5.510407600077829038
0.547000000000000375,-5.498399920732039092
0.548000000000000376,-5.486215167648577307
0.549000000000000377,-5.473852380234208503
0.550000000000000377,-5.461310720331951529
0.551000000000000378,-5.448589469622132420
0.552000000000000379,-5.435688027032410830
0.553000000000000380,-5.422605906157945022
0.554000000000000381,-5.409342732693099620
0.555000000000000382,-5.395898241875892509
0.556000000000000383,-5.382272275946262674
0.557000000000000384,-5.368464781619403325
0.558000000000000385,-5.354475807575093782
0.559000000000000385,-5.340305501964143886
0.560000000000000386,-5.325954109932811598
0.561000000000000387,-5.311421971166213396
0.562000000000000388,-5.296709517451499316
0.563000000000000389,-5.281817270261656816
0.564000000000000390,-5.266745838360716192
0.565000000000000391,-5.251495915431075190
0.566000000000000392,-5.236068277723655129
0.567000000000000393,-5.220463781731526254
0.568000000000000393,-5.204683361887578741
0.569000000000000394,-5.188728028286861971
0.570000000000000395,-5.172598864434141852
0.571000000000000396,-5.156297025017041236
0.572000000000000397,-5.139823733705426889
0.573000000000000398,-5.123180280977276624
0.574000000000000399,-5.106368021971569249
0.575000000000000400,-5.089388374368470025
0.576000000000000401,-5.072242816297153567
0.577000000000000401,-5.054932884271640781
0.578000000000000402,-5.037460171154808819
0.579000000000000403,-5.019826324150895580
0.580000000000000404,-5.002033042826711906
0.581000000000000405,-4.984082077161713364
0.582000000000000406,-4.965975225627126122
0.583000000000000407,-4.947714333294266353
0.584000000000000408,-4.929301289972165101
0.585000000000000409,-4.910738028374598052
0.586000000000000409,-4.892026522316559323
0.587000000000000410,-4.873168784940334675
0.588000000000000411,-4.854166866971044492
0.589000000000000412,-4.835022855001830600
0.590000000000000413,-4.815738869808558142
0.591000000000000414,-4.796317064694092913
0.592000000000000415,-4.776759623862055548
0.593000000000000416,-4.757068760820025055
0.594000000000000417,-4.737246716812096636
0.595000000000000417,-4.717295759280757395
0.596000000000000418,-4.697218180357863204
0.597000000000000419,-4.677016295384765598
0.598000000000000420,-4.656692441461259158
0.599000000000000421,-4.636248976023410684
0.600000000000000422,-4.615688275449945088
0.601000000000000423,-4.595012733697116047
0.602000000000000424,-4.574224760961858038
0.603000000000000425,-4.553326782373046555
0.604000000000000425,-4.532321236710600942
0.605000000000000426,-4.511210575152341029
0.606000000000000427,-4.489997260048279593
0.607000000000000428,-4.468683763722145486
0.608000000000000429,-4.447272567299963342
