# CdSeWurtzite2-10_PHESCA-AC
# h[nm],U(h)[kJ/mol]
0.200000000000000011,112.788941770249309116
0.201000000000000012,111.853793824597644857
0.202000000000000013,110.674240185372624978
0.203000000000000014,109.396193816500911566
0.204000000000000015,108.100728938822612690
0.205000000000000016,106.828210310327222032
0.206000000000000016,105.594582951910041402
0.207000000000000017,104.402113525217004053
0.208000000000000018,103.246258086395528153
0.209000000000000019,102.119869971201211456
0.210000000000000020,101.015618798368336684
0.211000000000000021,99.927238309461543508
0.212000000000000022,98.850034977966160454
0.213000000000000023,97.780954177200342770
0.214000000000000024,96.718403354890355672
0.215000000000000024,95.661962365849802836
0.216000000000000025,94.612062480135278975
0.217000000000000026,93.569682050074163726
0.218000000000000027,92.536084216210056752
0.219000000000000028,91.512607251977101441
0.220000000000000029,90.500508888942718499
0.221000000000000030,89.500860538138155675
0.222000000000000031,88.514484497198154145
0.223000000000000032,87.541926120747717732
0.224000000000000032,86.583452901874196073
0.225000000000000033,85.639073024119653610
0.226000000000000034,84.708566893549303245
0.227000000000000035,83.791526247185515786
0.228000000000000036,82.887396527820357051
0.229000000000000037,81.995519237417312297
0.230000000000000038,81.115171888937624090
0.231000000000000039,80.245603950458303188
0.232000000000000040,79.386067812614129480
0.233000000000000040,78.535844317240048440
0.234000000000000041,77.694262773816561207
0.235000000000000042,76.860715675922918422
0.236000000000000043,76.034668528237105534
0.237000000000000044,75.215665321180722458
0.238000000000000045,74.403330259454804718
0.239000000000000046,73.597366375295820262
0.240000000000000047,72.797551648437050176
0.241000000000000048,72.003733221913151397
0.242000000000000048,71.215820253777692983
0.243000000000000049,70.433775885793494353
0.244000000000000050,69.657608746155233348
0.245000000000000051,68.887364338098564076
0.246000000000000052,68.123116602655784391
0.247000000000000053,67.364959883825676457
0.248000000000000054,66.613001469367773666
0.249000000000000055,65.867354831104918844
0.250000000000000056,65.128133645412049191
0.251000000000000056,64.395446637542733015
0.252000000000000057,63.669393262439996306
0.253000000000000058,62.950060209357410201
0.254000000000000059,62.237518697539243817
0.255000000000000060,61.531822514867108964
0.256000000000000061,60.833006740232590914
0.257000000000000062,60.141087082894728155
0.258000000000000063,59.456059767694441121
0.259000000000000064,58.777901893217219254
0.260000000000000064,58.106572190350995299
0.261000000000000065,57.442012110750148679
0.262000000000000066,56.784147178102500675
0.263000000000000067,56.132888539469512068
0.264000000000000068,55.488134659033832463
0.265000000000000069,54.849773102093955401
0.266000000000000070,54.217682362882882785
0.267000000000000071,53.591733695579591767
0.268000000000000071,52.971792913592345542
0.269000000000000072,52.357722127707880588
0.270000000000000073,51.749381398935454968
0.271000000000000074,51.146630286770218277
0.272000000000000075,50.549329278110654684
0.273000000000000076,49.957341086167112110
0.274000000000000077,49.370531812376384551
0.275000000000000078,48.788771967594534829
0.276000000000000079,48.211937351680049346
0.277000000000000079,47.639909793018645701
0.278000000000000080,47.072577751601059504
0.279000000000000081,46.509836790966446074
0.280000000000000082,45.951589925696886496
0.281000000000000083,45.397747852217932518
0.282000000000000084,44.848229071457794248
0.283000000000000085,44.302959912470498693
0.284000000000000086,43.761874466464497857
0.285000000000000087,43.224914440827873818
0.286000000000000087,42.692028942726174989
0.287000000000000088,42.163174201697287913
0.288000000000000089,41.638313240400897541
0.289000000000000090,41.117415502317911091
0.290000000000000091,40.600456444759700503
0.291000000000000092,40.087417105051763144
0.292000000000000093,39.578283647220430908
0.293000000000000094,39.073046895945182655
0.294000000000000095,38.571701863957549961
0.295000000000000095,38.074247278477457712
0.296000000000000096,37.580685111693419742
0.297000000000000097,37.091020119714627867
0.298000000000000098,36.605259393864159279
0.299000000000000099,36.123411927641924990
0.300000000000000100,35.645488202173581271
0.301000000000000101,35.171499792473930768
0.302000000000000102,34.701458996400113222
0.303000000000000103,34.235378487744746678
0.304000000000000103,33.773270994530413702
0.305000000000000104,33.315149003208844647
0.306000000000000105,32.861024489144774918
0.307000000000000106,32.410908673472917485
0.308000000000000107,31.964811806157246821
0.309000000000000108,31.522742974852814513
0.310000000000000109,31.084709938970622289
0.311000000000000110,30.650718988175459145
0.312000000000000111,30.220774824399768477
0.313000000000000111,29.794880466337467340
0.314000000000000112,29.373037175282810551
0.315000000000000113,28.955244401102838481
0.316000000000000114,28.541499747074897897
0.317000000000000115,28.131798952280529846
0.318000000000000116,27.726135890223332581
0.319000000000000117,27.324502582329053268
0.320000000000000118,26.926889224989167815
0.321000000000000119,26.533284228823532658
0.322000000000000119,26.143674268861907706
0.323000000000000120,25.758044344377395873
0.324000000000000121,25.376377847143555044
0.325000000000000122,24.998656636933937136
0.326000000000000123,24.624861123133129581
0.327000000000000124,24.254970351383214222
0.328000000000000125,23.888962094247510493
0.329000000000000126,23.526812944933784166
0.330000000000000127,23.168498413180163453
0.331000000000000127,22.813993022469947647
0.332000000000000128,22.463270407803939577
0.333000000000000129,22.116303413321102056
0.334000000000000130,21.773064189120109546
0.335000000000000131,21.433524286694595418
0.336000000000000132,21.097654752453951943
0.337000000000000133,20.765426218858543450
0.338000000000000134,20.436808992752887093
0.339000000000000135,20.111773140533930615
0.340000000000000135,19.790288569840988941
0.341000000000000136,19.472325107502523878
0.342000000000000137,19.157852573519726036
0.343000000000000138,18.846840850909874376
0.344000000000000139,18.539259951271652938
0.345000000000000140,18.235080075972785352
0.346000000000000141,17.934271672893736138
0.347000000000000142,17.636805488694086819
0.348000000000000143,17.342652616596659243
0.349000000000000143,17.051784539711654531
0.350000000000000144,16.764173169946925412
0.351000000000000145,16.479790882572814326
0.352000000000000146,16.198610546528833254
0.353000000000000147,15.920605550577613840
0.354000000000000148,15.645749825426131352
0.355000000000000149,15.374017861947692154
0.356000000000000150,15.105384725649770417
0.357000000000000151,14.839826067541952881
0.358000000000000151,14.577318131566499915
0.359000000000000152,14.317837758760243005
0.360000000000000153,14.061362388321313688
0.361000000000000154,13.807870055758352024
0.362000000000000155,13.557339388301233640
0.363000000000000156,13.309749597754441552
0.364000000000000157,13.065080470973821747
0.365000000000000158,12.823312358146646162
0.366000000000000159,12.584426159053737848
0.367000000000000159,12.348403307489130398
0.368000000000000160,12.115225754010504389
0.369000000000000161,11.884875947189231127
0.370000000000000162,11.657336813524691976
0.371000000000000163,11.432591736183219666
0.372000000000000164,11.210624532716078505
0.373000000000000165,10.991419431906248150
0.374000000000000166,10.774961049887043174
0.375000000000000167,10.561234365670641111
0.376000000000000167,10.350224696217452447
0.377000000000000168,10.141917671171384541
0.378000000000000169,9.936299207379645893
0.379000000000000170,9.733355483309154010
0.380000000000000171,9.533072913464891940
0.381000000000000172,9.335438122909673453
0.382000000000000173,9.140437921977554225
0.383000000000000174,8.948059281267445542
0.384000000000000175,8.758289306996715595
0.385000000000000175,8.571115216788793845
0.386000000000000176,8.386524315962276432
0.387000000000000177,8.204503974383749565
0.388000000000000178,8.025041603940213264
0.389000000000000179,7.848124636681991895
0.390000000000000180,7.673740503681226066
0.391000000000000181,7.501876614645999197
0.392000000000000182,7.332520338325537068
0.393000000000000183,7.165658983736416410
0.394000000000000183,7.001279782235942939
0.395000000000000184,6.839369870463968937
0.396000000000000185,6.679916274170489388
0.397000000000000186,6.522905892942636896
0.398000000000000187,6.368325485840466094
0.399000000000000188,6.216161657947878894
0.400000000000000189,6.066400847841829425
0.401000000000000190,5.919029315979123851
0.402000000000000191,5.774033133998297096
0.403000000000000191,5.631398174930525080
0.404000000000000192,5.491110104311391460
0.405000000000000193,5.353154372183070997
0.406000000000000194,5.217516205974090049
0.407000000000000195,5.084180604242297896
0.408000000000000196,4.953132331264431976
0.409000000000000197,4.824355912454426409
0.410000000000000198,4.697835630590923017
0.411000000000000199,4.573555522833389730
0.412000000000000199,4.451499378504640170
0.413000000000000200,4.331650737617199098
0.414000000000000201,4.213992890119394374
0.415000000000000202,4.098508875836721188
0.416000000000000203,3.985181485083367114
0.417000000000000204,3.873993259917928533
0.418000000000000205,3.764926496017378277
0.419000000000000206,3.657963245142692443
0.420000000000000207,3.553085318169470153
0.421000000000000207,3.450274288656692612
0.422000000000000208,3.349511496926820264
0.423000000000000209,3.250778054630225622
0.424000000000000210,3.154054849767342183
0.425000000000000211,3.059322552141913398
0.426000000000000212,2.966561619218860635
0.427000000000000213,2.875752302360899737
0.428000000000000214,2.786874653418006442
0.429000000000000214,2.699908531644464205
0.430000000000000215,2.614833610918517515
0.431000000000000216,2.531629387240288853
0.432000000000000217,2.450275186483832801
0.433000000000000218,2.370750172380167164
0.434000000000000219,2.293033354708215565
0.435000000000000220,2.217103597671520987
0.436000000000000221,2.142939628439092914
0.437000000000000222,2.070520045829337352
0.438000000000000222,1.999823329116753090
0.439000000000000223,1.930827846941631787
0.440000000000000224,1.863511866303760867
0.441000000000000225,1.797853561621771679
0.442000000000000226,1.733831023840412211
0.443000000000000227,1.671422269568835883
0.444000000000000228,1.610605250233431152
0.445000000000000229,1.551357861229753610
0.446000000000000230,1.493657951058530831
0.447000000000000230,1.437483330431431616
0.448000000000000231,1.382811781333087575
0.449000000000000232,1.329621066026470455
0.450000000000000233,1.277888935989209607
0.451000000000000234,1.227593140769473123
0.452000000000000235,1.178711436750206065
0.453000000000000236,1.131221595811599645
0.454000000000000237,1.085101413881903731
0.455000000000000238,1.040328719367572763
0.456000000000000238,0.996881381454228555
0.457000000000000239,0.954737318270383106
0.458000000000000240,0.913874504906716512
0.459000000000000241,0.874270981283977178
0.460000000000000242,0.835904859863211946
0.461000000000000243,0.798754333192641885
0.462000000000000244,0.762797681285799944
0.463000000000000245,0.728013278826340815
0.464000000000000246,0.694379602194981738
0.465000000000000246,0.661875236314964921
0.466000000000000247,0.630478881312510397
0.467000000000000248,0.600169358989302237
0.468000000000000249,0.570925619104498017
0.469000000000000250,0.542726745464019555
0.470000000000000251,0.515551961815413629
0.471000000000000252,0.489380637546814157
0.472000000000000253,0.464192293188860627
0.473000000000000254,0.439966605719005588
0.474000000000000254,0.416683413667556901
0.475000000000000255,0.394322722025531036
0.476000000000000256,0.372864706954310843
0.477000000000000257,0.352289720297663145
0.478000000000000258,0.332578293896742372
0.479000000000000259,0.313711143709034801
0.480000000000000260,0.295669173732417245
0.481000000000000261,0.278433479735717471
0.482000000000000262,0.261985352797402427
0.483000000000000262,0.246306282654090769
0.484000000000000263,0.231377960861019083
0.485000000000000264,0.217182283766425593
0.486000000000000265,0.203701355302279730
0.487000000000000266,0.190917489593796452
0.488000000000000267,0.178813213390223602
0.489000000000000268,0.167371268319733563
0.490000000000000269,0.156574612971174532
0.491000000000000270,0.146406424805633401
0.492000000000000270,0.136850101900857085
0.493000000000000271,0.127889264531639679
0.494000000000000272,0.119507756589353822
0.495000000000000273,0.111689646843952439
0.496000000000000274,0.104419230051727679
0.497000000000000275,0.097681027912231960
0.498000000000000276,0.091459789877804648
0.499000000000000277,0.085740493819155023
0.500000000000000222,0.080508346550586779
0.501000000000000334,0.075748784218299905
0.502000000000000224,0.071447472555440109
0.503000000000000336,0.067590307007383194
0.504000000000000226,0.064163412730911390
0.505000000000000338,0.061153144470831589
0.506000000000000227,0.058546086317673038
0.507000000000000339,0.056329051349979863
0.508000000000000229,0.054489081164879029
0.509000000000000341,0.053013445300410703
0.510000000000000231,0.051889640553188975
0.511000000000000343,0.051105390194942181
0.512000000000000233,0.050648643091423320
0.513000000000000345,0.050507572727155350
0.514000000000000234,0.050670576139441814
0.515000000000000346,0.051126272765114944
0.516000000000000236,0.051863503203317694
0.517000000000000348,0.052871327897695039
0.518000000000000238,0.054139025741253455
0.519000000000000350,0.055656092607174433
0.520000000000000240,0.057412239808788942
0.521000000000000352,0.059397392491758169
0.522000000000000242,0.061601687961731946
0.523000000000000353,0.064015473950386051
0.524000000000000243,0.066629306822966292
0.525000000000000355,0.069433949730139749
0.526000000000000245,0.072420370707199533
0.527000000000000357,0.075579740723340422
0.528000000000000247,0.078903431683861339
0.529000000000000359,0.082383014387970771
0.530000000000000249,0.086010256444879321
0.531000000000000361,0.089777120150777490
0.532000000000000250,0.093675760329277102
0.533000000000000362,0.097698522137742091
0.534000000000000252,0.101837938842025716
0.535000000000000364,0.106086729561901724
0.536000000000000254,0.110437796989539330
0.537000000000000366,0.114884225083307132
0.538000000000000256,0.119419276739022598
0.539000000000000368,0.124036391440854293
0.540000000000000258,0.128729182893899091
0.541000000000000369,0.133491436640505945
0.542000000000000259,0.138317107662239230
0.543000000000000371,0.143200317969441077
0.544000000000000261,0.148135354180228690
0.545000000000000373,0.153116665090659188
0.546000000000000263,0.158138859237870216
0.547000000000000375,0.163196702457862719
0.548000000000000265,0.168285115439440414
0.549000000000000377,0.173399171276067410
0.550000000000000266,0.178534093016944034
0.551000000000000378,0.183685251218944690
0.552000000000000268,0.188848161500723866
0.553000000000000380,0.194018482100357881
0.554000000000000270,0.199192011437859195
0.555000000000000382,0.204364685683841474
0.556000000000000272,0.209532576335438536
0.557000000000000384,0.214691887800810249
0.558000000000000274,0.219838954993164359
0.559000000000000385,0.224970240935517346
0.560000000000000275,0.230082334377127301
0.561000000000000387,0.235171947422600891
0.562000000000000277,0.240235913174636939
0.563000000000000389,0.245271183391255032
0.564000000000000279,0.250274826158391916
0.565000000000000391,0.255244023578684920
0.566000000000000281,0.260176069477174088
0.567000000000000393,0.265068367124698778
0.568000000000000282,0.269918426979654291
0.569000000000000394,0.274723864448788213
0.570000000000000284,0.279482397667643101
0.571000000000000396,0.284191845301244084
0.572000000000000286,0.288850124365547134
0.573000000000000398,0.293455248070252306
0.574000000000000288,0.298005323683370904
0.575000000000000400,0.302498550418053624
0.576000000000000290,0.306933217342105435
0.577000000000000401,0.311307701310556684
0.578000000000000291,0.315620464921703092
0.579000000000000403,0.319870054496871947
0.580000000000000293,0.324055098084311877
0.581000000000000405,0.328174303487450358
0.582000000000000295,0.332226456317744501
0.583000000000000407,0.336210418072423800
0.584000000000000297,0.340125124237308896
0.585000000000000409,0.343969582414843988
0.586000000000000298,0.347742870477601551
0.587000000000000410,0.351444134747296466
0.588000000000000300,0.355072588199515482
0.589000000000000412,0.358627508694220665
0.590000000000000302,0.362108237232123209
0.591000000000000414,0.365514176236942379
0.592000000000000304,0.368844787863680135
0.593000000000000416,0.372099592332881424
0.594000000000000306,0.375278166290857362
0.595000000000000417,0.378380141195961806
0.596000000000000307,0.381405201730809440
0.597000000000000419,0.384353084240424081
0.598000000000000309,0.387223575196293468
0.599000000000000421,0.390016509686241464
0.600000000000000311,0.392731769930020791
0.601000000000000423,0.395369283820576012
0.602000000000000313,0.397929023490844191
0.603000000000000425,0.400411003905996765
0.604000000000000314,0.402815281480954468
0.605000000000000426,0.405141952723120702
0.606000000000000316,0.407391152900106579
0.607000000000000428,0.409563054732319631
0.608000000000000318,0.411657867110266362
0.609000000000000430,0.413675833836396389
0.610000000000000320,0.415617232391254643
0.611000000000000432,0.417482372723832929
0.612000000000000322,0.419271596065869112
0.613000000000000433,0.420985273769885204
0.614000000000000323,0.422623806170811300
0.615000000000000435,0.424187621470902443
0.616000000000000325,0.425677174647800638
0.617000000000000437,0.427092946385472239
0.618000000000000327,0.428435442027771063
0.619000000000000439,0.429705190554465433
0.620000000000000329,0.430902743579414604
0.621000000000000441,0.432028674370657395
0.622000000000000330,0.433083576892243027
0.623000000000000442,0.434068064867419334
0.624000000000000332,0.434982770863068580
0.625000000000000444,0.435828345395013528
0.626000000000000334,0.436605456053998808
0.627000000000000446,0.437314786652084564
0.628000000000000336,0.437957036389160337
0.629000000000000448,0.438532919039313018
0.630000000000000338,0.439043162156837474
0.631000000000000449,0.439488506301517201
0.632000000000000339,0.439869704283043117
0.633000000000000451,0.440187520424149437
0.634000000000000341,0.440442729842333680
0.635000000000000453,0.440636117749765688
0.636000000000000343,0.440768478771228545
0.637000000000000455,0.440840616279740249
0.638000000000000345,0.440853341749586236
0.639000000000000457,0.440807474126566845
0.640000000000000346,0.440703839215073057
0.641000000000000458,0.440543269081847821
0.642000000000000348,0.440326601476028312
0.643000000000000460,0.440054679265317550
0.644000000000000350,0.439728349887960501
0.645000000000000462,0.439348464820240925
0.646000000000000352,0.438915879059284031
0.647000000000000464,0.438431450620871299
0.648000000000000353,0.437896040051978352
0.649000000000000465,0.437310509957840932
0.650000000000000355,0.436675724543224231
0.651000000000000467,0.435992549167685817
0.652000000000000357,0.435261849914523491
0.653000000000000469,0.434484493173217245
0.654000000000000359,0.433661345235052675
0.655000000000000471,0.432793271901728005
0.656000000000000361,0.431881138106638029
0.657000000000000473,0.430925807548663553
0.658000000000000362,0.429928142338132813
0.659000000000000474,0.428889002654804785
0.660000000000000364,0.427809246417555911
0.661000000000000476,0.426689728965597426
0.662000000000000366,0.425531302750940366
0.663000000000000478,0.424334817041900236
0.664000000000000368,0.423101117637422142
0.665000000000000480,0.421831046591963410
0.666000000000000369,0.420525441950747259
0.667000000000000481,0.419185137495142857
0.668000000000000371,0.417810962497965566
0.669000000000000483,0.416403741488481138
