# CdSeWurtzite2-10_CYSSCA-JS
# h[nm],U(h)[kJ/mol]
0.149999999999999994,115.856540368736517621
0.150999999999999995,115.934883108906248594
0.151999999999999996,114.704791644157197084
0.152999999999999997,113.208405576693323269
0.153999999999999998,111.828692816921446251
0.154999999999999999,110.638410966790431189
0.156000000000000000,109.588620204041006900
0.157000000000000001,108.602726630111448003
0.158000000000000002,107.617200367644201719
0.159000000000000002,106.593993383370005290
0.160000000000000003,105.519384328176471399
0.161000000000000004,104.397527678552791031
0.162000000000000005,103.243045427197827735
0.163000000000000006,102.074674024854815002
0.164000000000000007,100.910670690491230062
0.165000000000000008,99.765999851156024647
0.166000000000000009,98.651008869132795098
0.167000000000000010,97.571201339287654264
0.168000000000000010,96.527726200850324290
0.169000000000000011,95.518261677716921554
0.170000000000000012,94.538050167273055990
0.171000000000000013,93.580915192101940647
0.172000000000000014,92.640155722093481927
0.173000000000000015,91.709263577855807625
0.174000000000000016,90.782446378346335791
0.175000000000000017,89.854963270791046170
0.176000000000000018,88.923295741936968284
0.177000000000000018,87.985183472475227973
0.178000000000000019,87.039557554669087835
0.179000000000000020,86.086402199927491097
0.180000000000000021,85.126572704425868210
0.181000000000000022,84.161592959064051911
0.182000000000000023,83.193450929693213425
0.183000000000000024,82.224405795892621995
0.184000000000000025,81.256816132719507095
0.185000000000000026,80.292994818375902355
0.186000000000000026,79.335093317987841033
0.187000000000000027,78.385015626355681206
0.188000000000000028,77.444360402923052789
0.189000000000000029,76.514388627301514134
0.190000000000000030,75.596013358855273623
0.191000000000000031,74.689807812394931830
0.192000000000000032,73.796027881418737593
0.193000000000000033,72.914645375937070071
0.194000000000000034,72.045388528944556583
0.195000000000000034,71.187786709784887762
0.196000000000000035,70.341216720022771369
0.197000000000000036,69.504948503602506094
0.198000000000000037,68.678188552168222714
0.199000000000000038,67.860119709923466758
0.200000000000000039,67.049936467933633821
0.201000000000000040,66.246875177920657052
0.202000000000000041,65.450238906887946655
0.203000000000000042,64.659416895866272057
0.204000000000000042,63.873898780397190933
0.205000000000000043,63.093283880311240353
0.206000000000000044,62.317285976126505886
0.207000000000000045,61.545734063754274246
0.208000000000000046,60.778569623122606913
0.209000000000000047,60.015840954746138891
0.210000000000000048,59.257695135890344318
0.211000000000000049,58.504368129164866730
0.212000000000000050,57.756173545074076969
0.213000000000000050,57.013490519742575202
0.214000000000000051,56.276751122723297271
0.215000000000000052,55.546427660041864272
0.216000000000000053,54.823020186534606069
0.217000000000000054,54.107044490806785575
0.218000000000000055,53.399020767102079787
0.219000000000000056,52.699463142044848496
0.220000000000000057,52.008870181313170633
0.221000000000000058,51.327716462311251178
0.222000000000000058,50.656445264105244064
0.223000000000000059,49.995462395384805632
0.224000000000000060,49.345131154986688671
0.225000000000000061,48.705768397441808304
0.226000000000000062,48.077641657874053749
0.227000000000000063,47.460967276125913372
0.228000000000000064,46.855909448909166315
0.229000000000000065,46.262580130751409513
0.230000000000000066,45.681039699200177040
0.231000000000000066,45.111298296813274078
0.232000000000000067,44.553317761588033363
0.233000000000000068,44.007014058340836016
0.234000000000000069,43.472260125857424384
0.235000000000000070,42.948889058111433314
0.236000000000000071,42.436697542253668303
0.237000000000000072,41.935449481175410824
0.238000000000000073,41.444879734052072706
0.239000000000000073,40.964697914200257856
0.240000000000000074,40.494592189679465832
0.241000000000000075,40.034233038212605038
0.242000000000000076,39.583276914074460251
0.243000000000000077,39.141369790517231309
0.244000000000000078,38.708150546993287833
0.245000000000000079,38.283254175841037181
0.246000000000000080,37.866314788177675155
0.247000000000000081,37.456968403461672779
0.248000000000000081,37.054855511527797773
0.249000000000000082,36.659623399850502778
0.250000000000000111,36.270928242349462778
0.251000000000000112,35.888436949224583827
0.252000000000000113,35.511828780098895209
0.253000000000000114,35.140796725176592474
0.254000000000000115,34.775048661200969491
0.255000000000000115,34.414308290747314345
0.256000000000000116,34.058315874826682546
0.257000000000000117,33.706828769932513978
0.258000000000000118,33.359621781555674147
0.259000000000000119,33.016487346847284812
0.260000000000000120,32.677235559547327171
0.261000000000000121,32.341694050541619276
0.262000000000000122,32.009707737483431345
0.263000000000000123,31.681138456839477158
0.264000000000000123,31.355864491512363657
0.265000000000000124,31.033780006873609381
0.266000000000000125,30.714794407628126294
0.267000000000000126,30.398831627441047942
0.268000000000000127,30.085829362704078704
0.269000000000000128,29.775738261216737612
0.270000000000000129,29.468521075918015839
0.271000000000000130,29.164151793139190261
0.272000000000000131,28.862614744167579772
0.273000000000000131,28.563903708223186584
0.274000000000000132,28.268021014262444623
0.275000000000000133,27.974976648343250929
0.276000000000000134,27.684787372618131940
0.277000000000000135,27.397475861372715400
0.278000000000000136,27.113069858898750653
0.279000000000000137,26.831601363388195125
0.280000000000000138,26.553105840459501508
0.281000000000000139,26.277621469381521990
0.282000000000000139,26.005188424546027193
0.283000000000000140,25.735848194256892185
0.284000000000000141,25.469642938454335024
0.285000000000000142,25.206614886575021472
0.286000000000000143,24.946805776364048057
0.287000000000000144,24.690256334102514302
0.288000000000000145,24.437005796392803347
0.289000000000000146,24.187091473353589777
0.290000000000000147,23.940548352815042676
0.291000000000000147,23.697408744872564768
0.292000000000000148,23.457701965951422096
0.293000000000000149,23.221454061355252918
0.294000000000000150,22.988687565115583311
0.295000000000000151,22.759421295827451104
0.296000000000000152,22.533670187044577915
0.297000000000000153,22.311445150717158725
0.298000000000000154,22.092752972082141838
0.299000000000000155,21.877596234360844107
0.300000000000000155,21.665973271578970127
0.301000000000000156,21.457878147798652435
0.302000000000000157,21.253300661039894237
0.303000000000000158,21.052226370168224179
0.304000000000000159,20.854636643035505017
0.305000000000000160,20.660508724180289164
0.306000000000000161,20.469815820421860764
0.307000000000000162,20.282527202717357540
0.308000000000000163,20.098608322692939510
0.309000000000000163,19.918020942306640109
0.310000000000000164,19.740723275152610938
0.311000000000000165,19.566670137971232890
0.312000000000000166,19.395813110988822103
0.313000000000000167,19.228100705771019818
0.314000000000000168,19.063478539337200601
0.315000000000000169,18.901889513347114757
0.316000000000000170,18.743273997236066464
0.317000000000000171,18.587570014240036187
0.318000000000000171,18.434713429317405087
0.319000000000000172,18.284638138038694422
0.320000000000000173,18.137276255579561024
0.321000000000000174,17.992558305015492692
0.322000000000000175,17.850413404177963628
0.323000000000000176,17.710769450392156443
0.324000000000000177,17.573553302474760329
0.325000000000000178,17.438690959426800475
0.326000000000000179,17.306107735311279328
0.327000000000000179,17.175728429857723967
0.328000000000000180,17.047477494386342300
0.329000000000000181,16.921279192692416871
0.330000000000000182,16.797057756577647325
0.331000000000000183,16.674737535758623608
0.332000000000000184,16.554243141924018801
0.333000000000000185,16.435499586751134871
0.334000000000000186,16.318432413729002661
0.335000000000000187,16.202967823670022085
0.336000000000000187,16.089032793824120660
0.337000000000000188,15.976555190539732720
0.338000000000000189,15.865463875443808206
0.339000000000000190,15.755688805138955644
0.340000000000000191,15.647161124439824320
0.341000000000000192,15.539813253192866327
0.342000000000000193,15.433578966743525029
0.343000000000000194,15.328393470133494958
0.344000000000000195,15.224193466127207586
0.345000000000000195,15.120917217181546022
0.346000000000000196,15.018504601486393213
0.347000000000000197,14.916897163215391942
0.348000000000000198,14.816038157136796727
0.349000000000000199,14.715872587743433542
0.350000000000000200,14.616347243068787520
0.351000000000000201,14.517410723362607072
0.352000000000000202,14.419013464805448876
0.353000000000000203,14.321107758445553060
0.354000000000000203,14.223647764545470196
0.355000000000000204,14.126589522528064435
0.356000000000000205,14.029890956713629180
0.357000000000000206,13.933511878040501841
0.358000000000000207,13.837413981962047416
0.359000000000000208,13.741560842712420509
0.360000000000000209,13.645917904132307541
0.361000000000000210,13.550452467244554100
0.362000000000000210,13.455133674767134622
0.363000000000000211,13.359932492748679778
0.364000000000000212,13.264821689508554670
0.365000000000000213,13.169775812060194653
0.366000000000000214,13.074771160192881325
0.367000000000000215,12.979785758382845984
0.368000000000000216,12.884799325700649675
0.369000000000000217,12.789793243877189965
0.370000000000000218,12.694750523686106902
0.371000000000000218,12.599655769795507609
0.372000000000000219,12.504495144237061766
0.373000000000000220,12.409256328635425604
0.374000000000000221,12.313928485335935648
0.375000000000000222,12.218502217563344203
0.376000000000000223,12.122969528738957834
0.377000000000000224,12.027323781078720799
0.378000000000000225,11.931559653589227210
0.379000000000000226,11.835673099573648770
0.380000000000000226,11.739661303754310495
0.381000000000000227,11.643522639113609074
0.382000000000000228,11.547256623549918331
0.383000000000000229,11.450863876440068978
0.384000000000000230,11.354346075195188348
0.385000000000000231,11.257705911891848771
0.386000000000000232,11.160947050055709084
0.387000000000000233,11.064074081670323579
0.388000000000000234,10.967092484479213255
0.389000000000000234,10.870008579644979463
0.390000000000000235,10.772829489824896854
0.391000000000000236,10.675563097718411498
0.392000000000000237,10.578218005137753011
0.393000000000000238,10.480803492649274133
0.394000000000000239,10.383329479829059849
0.395000000000000240,10.285806486172930363
0.396000000000000241,10.188245592697487751
0.397000000000000242,10.090658404265258952
0.398000000000000242,9.993057012664044336
0.399000000000000243,9.895453960467342824
0.400000000000000244,9.797862205699681581
0.401000000000000245,9.700295087327967636
0.402000000000000246,9.602766291597323089
0.403000000000000247,9.505289819226934611
0.404000000000000248,9.407879953479412194
0.405000000000000249,9.310551229114572891
0.406000000000000250,9.213318402236296834
0.407000000000000250,9.116196421039161280
0.408000000000000251,9.019200397459421481
0.409000000000000252,8.922345579733081067
0.410000000000000253,8.825647325862002290
0.411000000000000254,8.729121077987326061
0.412000000000000255,8.632782337667938677
0.413000000000000256,8.536646642060153667
0.414000000000000257,8.440729540993512359
0.415000000000000258,8.345046574936194617
0.416000000000000258,8.249613253842513316
0.417000000000000259,8.154445036873607222
0.418000000000000260,8.059557312981679544
0.419000000000000261,7.964965382346910872
0.420000000000000262,7.870684438655624504
0.421000000000000263,7.776729552207088503
0.422000000000000264,7.683115653836028791
0.423000000000000265,7.589857519636874272
0.424000000000000266,7.496969756475472479
0.425000000000000266,7.404466788273287747
0.426000000000000267,7.312362843048658689
0.427000000000000268,7.220671940699327607
0.428000000000000269,7.129407881510012146
0.429000000000000270,7.038584235368536390
0.430000000000000271,6.948214331673680633
0.431000000000000272,6.858311249917795394
0.432000000000000273,6.768887810926966786
0.433000000000000274,6.679956568741400424
0.434000000000000274,6.591529803118573838
0.435000000000000275,6.503619512641710898
0.436000000000000276,6.416237408415999433
0.437000000000000277,6.329394908335004288
0.438000000000000278,6.243103131899856884
0.439000000000000279,6.157372895573709926
0.440000000000000280,6.072214708654080084
0.441000000000000281,5.987638769645947434
0.442000000000000282,5.903654963118317944
0.443000000000000282,5.820272857027460667
0.444000000000000283,5.737501700489867851
0.445000000000000284,5.655350421988492471
0.446000000000000285,5.573827627995686207
0.447000000000000286,5.492941601996832901
0.448000000000000287,5.412700303898593468
0.449000000000000288,5.333111369806178281
0.450000000000000289,5.254182112154120787
0.451000000000000290,5.175919520175442656
0.452000000000000290,5.098330260694282856
0.453000000000000291,5.021420679227403205
0.454000000000000292,4.945196801380272511
0.455000000000000293,4.869664334523640115
0.456000000000000294,4.794828669737007054
0.457000000000000295,4.720694884005466108
0.458000000000000296,4.647267742656898903
0.459000000000000297,4.574551702026746547
0.460000000000000298,4.502550912337826006
0.461000000000000298,4.431269220783139673
0.462000000000000299,4.360710174799780070
0.463000000000000300,4.290877025522462418
0.464000000000000301,4.221772731405454060
0.465000000000000302,4.153399962002117363
0.466000000000000303,4.085761101891399072
0.467000000000000304,4.018858254741068947
0.468000000000000305,3.952693247497856444
0.469000000000000306,3.887267634694727469
0.470000000000000306,3.822582702866101467
0.471000000000000307,3.758639475061951174
0.472000000000000308,3.695438715452110667
0.473000000000000309,3.632980934012306928
0.474000000000000310,3.571266391283934638
0.475000000000000311,3.510295103199542410
0.476000000000000312,3.450066845966778484
0.477000000000000313,3.390581161003157540
0.478000000000000314,3.331837359915010843
0.479000000000000314,3.273834529513671043
0.480000000000000315,3.216571536862524283
0.481000000000000316,3.160047034348717254
0.482000000000000317,3.104259464773579502
0.483000000000000318,3.049207066456057991
0.484000000000000319,2.994887878343707399
0.485000000000000320,2.941299745126078058
0.486000000000000321,2.888440322345430467
0.487000000000000322,2.836307081500091698
0.488000000000000322,2.784897315135921758
0.489000000000000323,2.734208141921540047
0.490000000000000324,2.684236511703230299
0.491000000000000325,2.634979210535631999
0.492000000000000326,2.586432865684502147
0.493000000000000327,2.538593950598041715
0.494000000000000328,2.491458789843502331
0.495000000000000329,2.445023564005885497
0.496000000000000330,2.399284314545861996
0.497000000000000330,2.354236948613979585
0.498000000000000331,2.309877243818761805
0.499000000000000332,2.266200852946051558
0.500000000000000333,2.223203308627364372
0.501000000000000334,2.180880027955185874
0.502000000000000335,2.139226317043072090
0.503000000000000336,2.098237375528850812
0.504000000000000337,2.057908301019059749
0.505000000000000338,2.018234093473166624
0.506000000000000338,1.979209659526029341
0.507000000000000339,1.940829816747269065
0.508000000000000340,1.903089297836415117
0.509000000000000341,1.865982754752601114
0.510000000000000342,1.829504762777956817
0.511000000000000343,1.793649824513668722
0.512000000000000344,1.758412373808061258
0.513000000000000345,1.723786779615936071
0.514000000000000346,1.689767349788557693
0.515000000000000346,1.656348334793877886
0.516000000000000347,1.623523931366487760
0.517000000000000348,1.591288286087030990
0.518000000000000349,1.559635498890772798
0.519000000000000350,1.528559626505180402
0.520000000000000351,1.498054685816436526
0.521000000000000352,1.468114657164740322
0.522000000000000353,1.438733487568585767
0.523000000000000353,1.409905093877938942
0.524000000000000354,1.381623365856611274
0.525000000000000355,1.353882169193917129
0.526000000000000356,1.326675348445983449
0.527000000000000357,1.299996729906933268
0.528000000000000358,1.273840124410342778
0.529000000000000359,1.248199330061381396
0.530000000000000360,1.223068134900094917
0.531000000000000361,1.198440319496268724
0.532000000000000361,1.174309659476445278
0.533000000000000362,1.150669927983658525
0.534000000000000363,1.127514898070465232
0.535000000000000364,1.104838345025880963
0.536000000000000365,1.082634048636948787
0.537000000000000366,1.060895795385544682
0.538000000000000367,1.039617380581213890
0.539000000000000368,1.018792610430671264
0.540000000000000369,0.998415304044844576
0.541000000000000369,0.978479295384111047
0.542000000000000370,0.958978435142668340
0.543000000000000371,0.939906592572694932
0.544000000000000372,0.921257657249266892
0.545000000000000373,0.903025540776787317
0.546000000000000374,0.885204178437817513
0.547000000000000375,0.867787530785186667
0.548000000000000376,0.850769585178226984
0.549000000000000377,0.834144357264065106
0.550000000000000377,0.817905892404784951
0.551000000000000378,0.802048267051487906
0.552000000000000379,0.786565590066009346
0.553000000000000380,0.771452003991325852
0.554000000000000381,0.756701686271501250
0.555000000000000382,0.742308850422074729
0.556000000000000383,0.728267747151888578
0.557000000000000384,0.714572665437151811
0.558000000000000385,0.701217933548794692
0.559000000000000385,0.688197920033912558
0.560000000000000386,0.675507034652271909
0.561000000000000387,0.663139729268789613
0.562000000000000388,0.651090498702907583
0.563000000000000389,0.639353881535681845
0.564000000000000390,0.627924460875626256
0.565000000000000391,0.616796865084090262
0.566000000000000392,0.605965768461122822
0.567000000000000393,0.595425891892668813
0.568000000000000393,0.585172003460025958
0.569000000000000394,0.575198919012384735
0.570000000000000395,0.565501502703330994
0.571000000000000396,0.556074667492204022
0.572000000000000397,0.546913375611079333
0.573000000000000398,0.538012638998304316
0.574000000000000399,0.529367519699354694
0.575000000000000400,0.520973130235868553
0.576000000000000401,0.512824633943665620
0.577000000000000401,0.504917245280516402
0.578000000000000402,0.497246230104527398
0.579000000000000403,0.489806905923880209
0.580000000000000404,0.482594642118663875
0.581000000000000405,0.475604860135677376
0.582000000000000406,0.468833033656799958
0.583000000000000407,0.462274688741836026
0.584000000000000408,0.455925403946417451
0.585000000000000409,0.449780810415783439
0.586000000000000409,0.443836591955129756
0.587000000000000410,0.438088485077152812
0.588000000000000411,0.432532279027623812
0.589000000000000412,0.427163815789481927
0.590000000000000413,0.421978990066288584
0.591000000000000414,0.416973749245585279
0.592000000000000415,0.412144093342817430
0.593000000000000416,0.407486074926500297
0.594000000000000417,0.402995799025208434
0.595000000000000417,0.398669423016968671
0.596000000000000418,0.394503156501759267
0.597000000000000419,0.390493261157557225
0.598000000000000420,0.386636050580655088
0.599000000000000421,0.382927890110687730
0.600000000000000422,0.379365196641000990
0.601000000000000423,0.375944438414896553
0.602000000000000424,0.372662134808231960
0.603000000000000425,0.369514856098937694
0.604000000000000425,0.366499223223994086
0.605000000000000426,0.363611907524284739
0.606000000000000427,0.360849630477855787
0.607000000000000428,0.358209163422121057
0.608000000000000429,0.355687327265320818
0.609000000000000430,0.353280992187897880
0.610000000000000431,0.350987077334038555
0.611000000000000432,0.348802550493965136
0.612000000000000433,0.346724427777325483
0.613000000000000433,0.344749773278115235
0.614000000000000434,0.342875698731543221
0.615000000000000435,0.341099363163247904
0.616000000000000436,0.339417972531246226
0.617000000000000437,0.337828779360939691
