# CdSeWurtzite2-10_ILESCA-JS
# h[nm],U(h)[kJ/mol]
0.200000000000000011,103.790943117966364184
0.201000000000000012,102.969552157377762569
0.202000000000000013,101.929564222763303860
0.203000000000000014,100.805082951468421015
0.204000000000000015,99.668637735447390469
0.205000000000000016,98.554765215058068861
0.206000000000000016,97.475741915450811348
0.207000000000000017,96.431809059155469299
0.208000000000000018,95.417589751423747657
0.209000000000000019,94.425921952400855730
0.210000000000000020,93.449978057049193580
0.211000000000000021,92.484282939626694997
0.212000000000000022,91.525053623063698183
0.213000000000000023,90.570147502017448460
0.214000000000000024,89.618808761812772445
0.215000000000000024,88.671334066015603526
0.216000000000000025,87.728731028976511652
0.217000000000000026,86.792410671504356401
0.218000000000000027,85.863933673057687201
0.219000000000000028,84.944816593690376294
0.220000000000000029,84.036395998561943088
0.221000000000000030,83.139743867447620573
0.222000000000000031,82.255625577368178369
0.223000000000000032,81.384491228325174461
0.224000000000000032,80.526491522137348511
0.225000000000000033,79.681510376553305264
0.226000000000000034,78.849207674773907684
0.227000000000000035,78.029066828167557901
0.228000000000000036,77.220443052294626796
0.229000000000000037,76.422609357898380722
0.230000000000000038,75.634798207518116442
0.231000000000000039,74.856237575376525228
0.232000000000000040,74.086180777832126410
0.233000000000000040,73.323929926937637447
0.234000000000000041,72.568853217812687717
0.235000000000000042,71.820396510580181371
0.236000000000000043,71.078089828391128435
0.237000000000000044,70.341549482262138326
0.238000000000000045,69.610476566995188819
0.239000000000000046,68.884652564213581627
0.240000000000000047,68.163932750294236484
0.241000000000000048,67.448238048439236536
0.242000000000000048,66.737545893162220523
0.243000000000000049,66.031880598258197779
0.244000000000000050,65.331303640611551486
0.245000000000000051,64.635904195479170653
0.246000000000000052,63.945790186641360719
0.247000000000000053,63.261080048686096688
0.248000000000000054,62.581895339658402122
0.249000000000000055,61.908354290822856569
0.250000000000000056,61.240566336419135496
0.251000000000000056,60.578627629806035770
0.252000000000000057,59.922617522863674822
0.253000000000000058,59.272595962385445034
0.254000000000000059,58.628601739799933057
0.255000000000000060,57.990651518233434558
0.256000000000000061,57.358739552974398634
0.257000000000000062,56.732838017162045219
0.258000000000000063,56.112897843366184247
0.259000000000000064,55.498849993070905384
0.260000000000000064,54.890607069393965389
0.261000000000000065,54.288065193199010139
0.262000000000000066,53.691106068672375784
0.263000000000000067,53.099599171092734196
0.264000000000000068,52.513403996612304070
0.265000000000000069,51.932372321146452521
0.266000000000000070,51.356350422727963689
0.267000000000000071,50.785181228760123417
0.268000000000000071,50.218706356370709898
0.269000000000000072,49.656768020434881805
0.270000000000000073,49.099210789728843451
0.271000000000000074,48.545883177057206126
0.272000000000000075,47.996639054037700589
0.273000000000000076,47.451338885524101840
0.274000000000000077,46.909850782402948255
0.275000000000000078,46.372051374730418161
0.276000000000000079,45.837826509905632122
0.277000000000000079,45.307071782834512419
0.278000000000000080,44.779692906859146717
0.279000000000000081,44.255605935646443072
0.280000000000000082,43.734737347285502551
0.281000000000000083,43.217024002572678398
0.282000000000000084,42.702412989904587448
0.283000000000000085,42.190861369389793367
0.284000000000000086,41.682335828761594598
0.285000000000000087,41.176812263463943964
0.286000000000000087,40.674275292916654223
0.287000000000000088,40.174717724476138869
0.288000000000000089,39.678139976017533286
0.289000000000000090,39.184549467397161493
0.290000000000000091,38.693959990332487564
0.291000000000000092,38.206391065476211111
0.292000000000000093,37.721867294680563987
0.293000000000000094,37.240417715659368980
0.294000000000000095,36.762075165471735261
0.295000000000000095,36.286875658481221762
0.296000000000000096,35.814857783699196148
0.297000000000000097,35.346062125702808032
0.298000000000000098,34.880530712637110469
0.299000000000000099,34.418306494167367759
0.300000000000000100,33.959432851646681684
0.301000000000000101,33.503953142206150062
0.302000000000000102,33.051910277963678197
0.303000000000000103,32.603346341078591308
0.304000000000000103,32.158302234958391352
0.305000000000000104,31.716817371545449333
0.306000000000000105,31.278929394275831299
0.307000000000000106,30.844673936009389337
0.308000000000000107,30.414084410974936645
0.309000000000000108,29.987191839558136053
0.310000000000000109,29.564024704576695513
0.311000000000000110,29.144608837539529134
0.312000000000000111,28.728967333266247408
0.313000000000000111,28.317120491153882966
0.314000000000000112,27.909085781311198105
0.315000000000000113,27.504877833739534765
0.316000000000000114,27.104508448717336222
0.317000000000000115,26.707986626543146258
0.318000000000000116,26.315318614805285335
0.319000000000000117,25.926507971374967099
0.320000000000000118,25.541555641360282891
0.321000000000000119,25.160460046309729876
0.322000000000000119,24.783217184014805667
0.323000000000000120,24.409820737329305018
0.324000000000000121,24.040262190496346051
0.325000000000000122,23.674530951553723668
0.326000000000000123,23.312614479469949913
0.327000000000000124,22.954498414748272239
0.328000000000000125,22.600166712322025120
0.329000000000000126,22.249601775651541402
0.330000000000000127,21.902784591019173632
0.331000000000000127,21.559694861104929942
0.332000000000000128,21.220311137009197466
0.333000000000000129,20.884610947971381734
0.334000000000000130,20.552570928113013338
0.335000000000000131,20.224166939610945803
0.336000000000000132,19.899374191780353271
0.337000000000000133,19.578167355617807743
0.338000000000000134,19.260520673421623883
0.339000000000000135,18.946408063171013225
0.340000000000000135,18.635803217404365739
0.341000000000000136,18.328679696393937348
0.342000000000000137,18.025011015466013475
0.343000000000000138,17.724770726364507567
0.344000000000000139,17.427932492600184844
0.345000000000000140,17.134470158769673276
0.346000000000000141,16.844357813865151741
0.347000000000000142,16.557569848630290466
0.348000000000000143,16.274081007048462055
0.349000000000000143,15.993866432076831785
0.350000000000000144,15.716901705764232844
0.351000000000000145,15.443162883912460615
0.352000000000000146,15.172626525458870361
0.353000000000000147,14.905269716774494526
0.354000000000000148,14.641070091085243376
0.355000000000000149,14.380005843234826557
0.356000000000000150,14.122055740017245284
0.357000000000000151,13.867199126313318303
0.358000000000000151,13.615415927271067531
0.359000000000000152,13.366686646772782510
0.360000000000000153,13.120992362433364420
0.361000000000000154,12.878314717375076270
0.362000000000000155,12.638635909022147175
0.363000000000000156,12.401938675156992886
0.364000000000000157,12.168206277475970722
0.365000000000000158,11.937422482878471186
0.366000000000000159,11.709571542718094861
0.367000000000000159,11.484638170238115507
0.368000000000000160,11.262607516407808106
0.369000000000000161,11.043465144368173725
0.370000000000000162,10.827197002688327743
0.371000000000000163,10.613789397626158362
0.372000000000000164,10.403228964577778015
0.373000000000000165,10.195502638892641301
0.374000000000000166,9.990597626221422445
0.375000000000000167,9.788501372556144275
0.376000000000000167,9.589201534111856162
0.377000000000000168,9.392685947191132811
0.378000000000000169,9.198942598163336370
0.379000000000000170,9.007959593681970745
0.380000000000000171,8.819725131254321226
0.381000000000000172,8.634227470269658866
0.382000000000000173,8.451454903583107026
0.383000000000000174,8.271395729744666525
0.384000000000000175,8.094038225954385268
0.385000000000000175,7.919370621817371614
0.386000000000000176,7.747381073964203502
0.387000000000000177,7.578057641595701277
0.388000000000000178,7.411388263003391152
0.389000000000000179,7.247360733110812525
0.390000000000000180,7.085962682073986052
0.391000000000000181,6.927181554973404154
0.392000000000000182,6.771004592624223051
0.393000000000000183,6.617418813525382859
0.394000000000000183,6.466410996963600333
0.395000000000000184,6.317967667282891497
0.396000000000000185,6.172075079325767710
0.397000000000000186,6.028719205048029828
0.398000000000000187,5.887885721304612296
0.399000000000000188,5.749559998800458871
0.400000000000000189,5.613727092196983293
0.401000000000000190,5.480371731360794918
0.402000000000000191,5.349478313739218116
0.403000000000000191,5.221030897843652596
0.404000000000000192,5.095013197819673323
0.405000000000000193,4.971408579080495826
0.406000000000000194,4.850200054978111908
0.407000000000000195,4.731370284484953892
0.408000000000000196,4.614901570856906332
0.409000000000000197,4.500775861247376497
0.410000000000000198,4.388974747240600216
0.411000000000000199,4.279479466271674859
0.412000000000000199,4.172270903899314654
0.413000000000000200,4.067329596897330646
0.414000000000000201,3.964635737129535098
0.415000000000000202,3.864169176172805642
0.416000000000000203,3.765909430652590206
0.417000000000000204,3.669835688254785566
0.418000000000000205,3.575926814378153296
0.419000000000000206,3.484161359391227286
0.420000000000000207,3.394517566457932567
0.421000000000000207,3.306973379896302134
0.422000000000000208,3.221506454035176326
0.423000000000000209,3.138094162533814124
0.424000000000000210,3.056713608130281035
0.425000000000000211,2.977341632784660241
0.426000000000000212,2.899954828183855859
0.427000000000000213,2.824529546575548444
0.428000000000000214,2.751041911899337222
0.429000000000000214,2.679467831184047633
0.430000000000000215,2.609783006180857345
0.431000000000000216,2.541962945202810964
0.432000000000000217,2.475982975142023257
0.433000000000000218,2.411818253636967224
0.434000000000000219,2.349443781362838823
0.435000000000000220,2.288834414419186558
0.436000000000000221,2.229964876789770845
0.437000000000000222,2.172809772850604837
0.438000000000000222,2.117343599903066753
0.439000000000000223,2.063540760709912547
0.440000000000000224,2.011375576012982780
0.441000000000000225,1.960822297012372761
0.442000000000000226,1.911855117787685243
0.443000000000000227,1.864448187643078736
0.444000000000000228,1.818575623358546611
0.445000000000000229,1.774211521330987917
0.446000000000000230,1.731329969589466389
0.447000000000000230,1.689905059669783327
0.448000000000000231,1.649910898334677301
0.449000000000000232,1.611321619126627080
0.450000000000000233,1.574111393740978970
0.451000000000000234,1.538254443208324496
0.452000000000000235,1.503725048875370396
0.453000000000000236,1.470497563174802957
0.454000000000000237,1.438546420175007112
0.455000000000000238,1.407846145901572754
0.456000000000000238,1.378371368423061627
0.457000000000000239,1.350096827694199586
0.458000000000000240,1.322997385150493921
0.459000000000000241,1.297048033048797011
0.460000000000000242,1.272223903548957535
0.461000000000000243,1.248500277532481384
0.462000000000000244,1.225852593154445280
0.463000000000000245,1.204256454125843145
0.464000000000000246,1.183687637723619179
0.465000000000000246,1.164122102526645719
0.466000000000000247,1.145535995876040491
0.467000000000000248,1.127905661058880904
0.468000000000000249,1.111207644214787349
0.469000000000000250,1.095418700965244296
0.470000000000000251,1.080515802766020883
0.471000000000000252,1.066476142983371345
0.472000000000000253,1.053277142695044244
0.473000000000000254,1.040896456217677901
0.474000000000000254,1.029311976362154990
0.475000000000000255,1.018501839419182264
0.476000000000000256,1.008444429877318971
0.477000000000000257,0.999118384876211962
0.478000000000000258,0.990502598397892675
0.479000000000000259,0.982576225199309539
0.480000000000000260,0.975318684489463239
0.481000000000000261,0.968709663354761830
0.482000000000000262,0.962729119936369115
0.483000000000000262,0.957357286363451188
0.484000000000000263,0.952574671446581478
0.485000000000000264,0.948362063135413713
0.486000000000000265,0.944700530745165024
0.487000000000000266,0.941571426956415491
0.488000000000000267,0.938956389592811691
0.489000000000000268,0.936837343181490589
0.490000000000000269,0.935196500301034184
0.491000000000000270,0.934016362721829529
0.492000000000000270,0.933279722343865026
0.493000000000000271,0.932969661936943639
0.494000000000000272,0.933069555688377017
0.495000000000000273,0.933563069563337122
0.496000000000000274,0.934434161482911252
0.497000000000000275,0.935667081325074479
0.498000000000000276,0.937246370753704539
0.499000000000000277,0.939156862880807908
0.500000000000000222,0.941383681767164582
0.501000000000000334,0.943912241766450832
0.502000000000000224,0.946728246718051780
0.503000000000000336,0.949817688993612408
0.504000000000000226,0.953166848402427824
0.505000000000000338,0.956762290960713080
0.506000000000000227,0.960590867529740100
0.507000000000000339,0.964639712327784116
0.508000000000000229,0.968896241320815754
0.509000000000000341,0.973348150496782361
0.510000000000000231,0.977983414028202880
0.511000000000000343,0.982790282327924758
0.512000000000000233,0.987757280002604765
0.513000000000000345,0.992873203708585450
0.514000000000000234,0.998127119914603234
0.515000000000000346,1.003508362575926682
0.516000000000000236,1.009006530724157580
0.517000000000000348,1.014611485977099825
0.518000000000000238,1.020313349972845396
0.519000000000000350,1.026102501732297112
0.520000000000000240,1.031969574954155977
0.521000000000000352,1.037905455246294961
0.522000000000000242,1.043901277297530905
0.523000000000000353,1.049948421993492031
0.524000000000000243,1.056038513480405117
0.525000000000000355,1.062163416180315512
0.526000000000000245,1.068315231761421291
0.527000000000000357,1.074486296066893498
0.528000000000000247,1.080669176005597976
0.529000000000000359,1.086856666407993277
0.530000000000000249,1.093041786850408981
0.531000000000000361,1.099217778450805261
0.532000000000000250,1.105378100639074823
0.533000000000000362,1.111516427904773563
0.534000000000000252,1.117626646525194500
0.535000000000000364,1.123702851276502601
0.536000000000000254,1.129739342130618551
0.537000000000000366,1.135730620940516689
0.538000000000000256,1.141671388116350716
0.539000000000000368,1.147556539294921851
0.540000000000000258,1.153381162004794458
0.541000000000000369,1.159140532329384410
0.542000000000000259,1.164830111570129167
0.543000000000000371,1.170445542911936254
0.544000000000000261,1.175982648092920302
0.545000000000000373,1.181437424080346910
0.546000000000000263,1.186806039754727093
0.547000000000000375,1.192084832603883982
0.548000000000000265,1.197270305428619785
0.549000000000000377,1.202359123061828905
0.550000000000000266,1.207348109102475142
0.551000000000000378,1.212234242666101469
0.552000000000000268,1.217014655153278113
0.553000000000000380,1.221686627037365414
0.554000000000000270,1.226247584672965907
0.555000000000000382,1.230695097126344617
0.556000000000000272,1.235026873028941541
0.557000000000000384,1.239240757455268627
0.558000000000000274,1.243334728826115843
0.559000000000000385,1.247306895838244722
0.560000000000000275,1.251155494421446024
0.561000000000000387,1.254878884723927168
0.562000000000000277,1.258475548126904098
0.563000000000000389,1.261944084289172485
0.564000000000000279,1.265283208222467204
0.565000000000000391,1.268491747398315717
0.566000000000000281,1.271568638887029312
0.567000000000000393,1.274512926529487000
0.568000000000000282,1.277323758142272281
0.569000000000000394,1.280000382756692145
0.570000000000000284,1.282542147892190121
0.571000000000000396,1.284948496864578349
0.572000000000000286,1.287218966129494380
0.573000000000000398,1.289353182661498121
0.574000000000000288,1.291350861369090497
0.575000000000000400,1.293211802545963351
0.576000000000000290,1.294935889358767467
0.577000000000000401,1.296523085371591000
0.578000000000000291,1.297973432107382141
0.579000000000000403,1.299287046646425470
0.580000000000000293,1.300464119262068508
0.581000000000000405,1.301504911093754657
0.582000000000000295,1.302409751857443343
0.583000000000000407,1.303179037593487966
0.584000000000000297,1.303813228451987216
0.585000000000000409,1.304312846515568669
0.586000000000000298,1.304678473659642624
0.587000000000000410,1.304910749450000962
0.588000000000000300,1.305010369077749699
0.589000000000000412,1.304978081331455098
0.590000000000000302,1.304814686606384999
0.591000000000000414,1.304521034950688163
0.592000000000000304,1.304098024148426571
0.593000000000000416,1.303546597839226440
0.594000000000000306,1.302867743674357648
0.595000000000000417,1.302062491509094810
0.596000000000000307,1.301131911631089100
0.597000000000000419,1.300077113024505682
0.598000000000000309,1.298899241669741800
0.599000000000000421,1.297599478878400436
0.600000000000000311,1.296179039663270194
0.601000000000000423,1.294639171143028733
0.602000000000000313,1.292981150981362237
0.603000000000000425,1.291206285860208691
0.604000000000000314,1.289315909986770592
0.605000000000000426,1.287311383634023976
0.606000000000000316,1.285194091714357389
0.607000000000000428,1.282965442385968435
0.608000000000000318,1.280626865691731897
0.609000000000000430,1.278179812230137546
0.610000000000000320,1.275625751857927259
0.611000000000000432,1.272966172424093045
0.612000000000000322,1.270202578534841420
0.613000000000000433,1.267336490349122879
0.614000000000000323,1.264369442404394750
0.615000000000000435,1.261302982472153555
0.616000000000000325,1.258138670442926044
0.617000000000000437,1.254878077240254575
0.618000000000000327,1.251522783763291624
0.619000000000000439,1.248074379857647020
0.620000000000000329,1.244534463314029171
0.621000000000000441,1.240904638894267498
0.622000000000000330,1.237186517384399886
0.623000000000000442,1.233381714674263829
0.624000000000000332,1.229491850863362101
0.625000000000000444,1.225518549392417667
0.626000000000000334,1.221463436200340480
0.627000000000000446,1.217328138906125456
0.628000000000000336,1.213114286015302135
0.629000000000000448,1.208823506150491500
0.630000000000000338,1.204457427305729356
0.631000000000000449,1.200017676124045085
0.632000000000000339,1.195505877198024258
0.633000000000000451,1.190923652392799736
0.634000000000000341,1.186272620191218374
0.635000000000000453,1.181554395060633755
0.636000000000000343,1.176770586841072275
0.637000000000000455,1.171922800154266309
0.638000000000000345,1.167012633833191870
0.639000000000000457,1.162041680371760588
0.640000000000000346,1.157011525394203932
0.641000000000000458,1.151923747143843046
0.642000000000000348,1.146779915990775667
0.643000000000000460,1.141581593958176821
0.644000000000000350,1.136330334266806741
0.645000000000000462,1.131027680897318977
0.646000000000000352,1.125675168170064966
0.647000000000000464,1.120274320341979379
0.648000000000000353,1.114826651220189868
0.649000000000000465,1.109333663792009261
0.650000000000000355,1.103796849870956276
0.651000000000000467,1.098217689758424376
0.652000000000000357,1.092597651920675039
0.653000000000000469,1.086938192680815707
0.654000000000000359,1.081240755925404029
0.655000000000000471,1.075506772825364887
0.656000000000000361,1.069737661570857812
0.657000000000000473,1.063934827119817683
0.658000000000000362,1.058099660959781030
0.659000000000000474,1.052233540882739460
0.660000000000000364,1.046337830772676503
0.661000000000000476,1.040413880405467451
0.662000000000000366,1.034463025260877744
0.663000000000000478,1.028486586346299081
0.664000000000000368,1.022485870031998756
0.665000000000000480,1.016462167897512536
0.666000000000000369,1.010416756588960574
0.667000000000000481,1.004350897686950406
0.668000000000000371,0.998265837584837334
0.669000000000000483,0.992162807377011235
