# CdSeWurtzite2-10_LEUSCA-JS
# h[nm],U(h)[kJ/mol]
0.149999999999999994,231.696986796455036028
0.150999999999999995,231.850963169553182297
0.151999999999999996,230.152140508252756490
0.152999999999999997,228.106906462806648506
0.153999999999999998,226.245231119233437767
0.154999999999999999,224.648691848247921143
0.156000000000000000,223.231101393607957561
0.157000000000000001,221.875212666377507276
0.158000000000000002,220.489422122611443911
0.159000000000000002,219.022917710480072628
0.160000000000000003,217.461583725160693348
0.161000000000000004,215.816972167316691866
0.162000000000000005,214.114616599022099308
0.163000000000000006,212.384458031821480972
0.164000000000000007,210.654221547365978040
0.165000000000000008,208.945607410301192886
0.166000000000000009,207.272744167294462159
0.167000000000000010,205.642244128423868688
0.168000000000000010,204.054251047956142884
0.169000000000000011,202.503985670520819440
0.170000000000000012,200.983426642214396907
0.171000000000000013,199.482886174010161540
0.172000000000000014,197.992340513762286491
0.173000000000000015,196.502451808445783854
0.174000000000000016,195.005271796528262485
0.175000000000000017,193.494652442762429700
0.176000000000000018,191.966408206855760454
0.177000000000000018,190.418283069892339654
0.178000000000000019,188.849776162919198441
0.179000000000000020,187.261875641737560727
0.180000000000000021,185.656743476408735205
0.181000000000000022,184.037385639427412798
0.182000000000000023,182.407333863095118431
0.183000000000000024,180.770357387631918300
0.184000000000000025,179.130216335827924468
0.185000000000000026,177.490462711925545136
0.186000000000000026,175.854290567609410800
0.187000000000000027,174.224433545252281874
0.188000000000000028,172.603105679165224728
0.189000000000000029,170.991979861975693211
0.190000000000000030,169.392197609190759522
0.191000000000000031,167.804403528975910831
0.192000000000000032,166.228798087646225667
0.193000000000000033,164.665202733151460279
0.194000000000000034,163.113132096992302422
0.195000000000000034,161.571868756703281633
0.196000000000000035,160.040536841422408543
0.197000000000000036,158.518171553362662962
0.198000000000000037,157.003782423325077389
0.199000000000000038,155.496408795483546328
0.200000000000000039,153.995166631711526861
0.201000000000000040,152.499286232291751730
0.202000000000000041,151.008140887192325863
0.203000000000000042,149.521266803540612500
0.204000000000000042,148.038374906651938545
0.205000000000000043,146.559355291935816012
0.206000000000000044,145.084275222142849771
0.207000000000000045,143.613371627998731128
0.208000000000000046,142.147039089440880844
0.209000000000000047,140.685814258094126217
0.210000000000000048,139.230357637285464989
0.211000000000000049,137.781433570957290158
0.212000000000000050,136.339889213573172810
0.213000000000000050,134.906633164881327502
0.214000000000000051,133.482614360709050061
0.215000000000000052,132.068801717468517154
0.216000000000000053,130.666164936673567354
0.217000000000000054,129.275656788725143542
0.218000000000000055,127.898197114159799526
0.219000000000000056,126.534658706588999166
0.220000000000000057,125.185855175373518477
0.221000000000000058,123.852530828014138820
0.222000000000000058,122.535352562324121095
0.223000000000000059,121.234903716505485249
0.224000000000000060,119.951679790906808876
0.225000000000000061,118.686085928011806345
0.226000000000000062,117.438436016514472726
0.227000000000000063,116.208953270551575088
0.228000000000000064,114.997772125630291384
0.229000000000000065,113.804941287843263353
0.230000000000000066,112.630427771969692685
0.231000000000000066,111.474121766387995081
0.232000000000000067,110.335842167802439917
0.233000000000000068,109.215342636063354576
0.234000000000000069,108.112318028357577759
0.235000000000000070,107.026411082308328560
0.236000000000000071,105.957219228673608313
0.237000000000000072,104.904301426013304877
0.238000000000000073,103.867184921625081984
0.239000000000000073,102.845371854966828096
0.240000000000000074,101.838345631488706999
0.241000000000000075,100.845577006116414509
0.242000000000000076,99.866529826425662009
0.243000000000000077,98.900666395723348501
0.244000000000000078,97.947452425726112324
0.245000000000000079,97.006361557252319017
0.246000000000000080,96.076879435287963815
0.247000000000000081,95.158507331937215667
0.248000000000000081,94.250765317128809784
0.249000000000000082,93.353194982533949542
0.250000000000000111,92.465361728986778189
0.251000000000000112,91.586856631813915897
0.252000000000000113,90.717297901921384096
0.253000000000000114,89.856331963290287490
0.254000000000000115,89.003634169752473326
0.255000000000000115,88.158909185593856250
0.256000000000000116,87.321891055722929309
0.257000000000000117,86.492342991887014136
0.258000000000000118,85.670056901773861568
0.259000000000000119,84.854852687840974568
0.260000000000000120,84.046577342418999024
0.261000000000000121,83.245103865079641992
0.262000000000000122,82.450330027479409978
0.263000000000000123,81.662177009931014027
0.264000000000000123,80.880587932842587406
0.265000000000000124,80.105526304935665394
0.266000000000000125,79.336974408834777250
0.267000000000000126,78.574931643237590606
0.268000000000000127,77.819412839450265551
0.269000000000000128,77.070446568628071304
0.270000000000000129,76.328073454612038518
0.271000000000000130,75.592344505816726041
0.272000000000000131,74.863319478214165770
0.273000000000000131,74.141065280085541644
0.274000000000000132,73.425654427884524011
0.275000000000000133,72.717163561284536399
0.276000000000000134,72.015672024267956886
0.277000000000000135,71.321260517968227077
0.278000000000000136,70.634009829894793597
0.279000000000000137,69.953999643162148914
0.280000000000000138,69.281307428406023519
0.281000000000000139,68.616007420203715128
0.282000000000000139,67.958169679021793286
0.283000000000000140,67.307859238991255779
0.284000000000000141,66.665135341155135507
0.285000000000000142,66.030050751247387097
0.286000000000000143,65.402651160538951558
0.287000000000000144,64.782974667826081827
0.288000000000000145,64.171051340235436555
0.289000000000000146,63.566902850174258788
0.290000000000000147,62.970542185460793405
0.291000000000000147,62.381973429428100530
0.292000000000000148,61.801191607594546440
0.293000000000000149,61.228182597341501037
0.294000000000000150,60.662923096922256150
0.295000000000000151,60.105380650046143387
0.296000000000000152,59.555513722236753438
0.297000000000000153,59.013271825144762772
0.298000000000000154,58.478595685006872884
0.299000000000000155,57.951417451476480380
0.300000000000000155,57.431660943106237482
0.301000000000000156,56.919241925838228724
0.302000000000000157,56.414068420946463789
0.303000000000000158,55.916041038982200462
0.304000000000000159,55.425053336388280911
0.305000000000000160,54.940992191575716674
0.306000000000000161,54.463738197390263451
0.307000000000000162,53.993166067037421385
0.308000000000000163,53.529145050681051998
0.309000000000000163,53.071539360079896142
0.310000000000000164,52.620208598777800546
0.311000000000000165,52.175008195517037279
0.312000000000000166,51.735789838695907861
0.313000000000000167,51.302401909844789429
0.314000000000000168,50.874689914243830913
0.315000000000000169,50.452496906954195310
0.316000000000000170,50.035663912678487009
0.317000000000000171,49.624030338007422358
0.318000000000000171,49.217434374746360959
0.319000000000000172,48.815713393147603938
0.320000000000000173,48.418704324001552664
0.321000000000000174,48.026244028662667063
0.322000000000000175,47.638169656202414615
0.323000000000000176,47.254318986993702367
0.324000000000000177,46.874530762136366491
0.325000000000000178,46.498644998234553327
0.326000000000000179,46.126503287130738329
0.327000000000000179,45.757949080290742927
0.328000000000000180,45.392827957617278400
0.329000000000000181,45.030987880547648672
0.330000000000000182,44.672279429363719316
0.331000000000000183,44.316556024709704786
0.332000000000000184,43.963674133375050701
0.333000000000000185,43.613493458457270435
0.334000000000000186,43.265877114071400911
0.335000000000000187,42.920691784820419912
0.336000000000000187,42.577807870284019032
0.337000000000000188,42.237099614822120941
0.338000000000000189,41.898445223023344397
0.339000000000000190,41.561726961160367466
0.340000000000000191,41.226831245040116869
0.341000000000000192,40.893648714660713495
0.342000000000000193,40.562074296106906957
0.343000000000000194,40.232007251132436920
0.344000000000000195,39.903351214892190058
0.345000000000000195,39.576014222297686729
0.346000000000000196,39.249908723478192485
0.347000000000000197,38.924951588835810412
0.348000000000000198,38.601064104186910697
0.349000000000000199,38.278171956483980409
0.350000000000000200,37.956205210611813072
0.351000000000000201,37.635098277750202556
0.352000000000000202,37.314789875791838369
0.353000000000000203,36.995222982299061698
0.354000000000000203,36.676344780476973995
0.355000000000000204,36.358106598632730311
0.356000000000000205,36.040463843582827508
0.357000000000000206,35.723375928459809359
0.358000000000000207,35.406806195360459810
0.359000000000000208,35.090721833265703822
0.360000000000000209,34.775093791651080721
0.361000000000000210,34.459896690194455005
0.362000000000000210,34.145108724974491565
0.363000000000000211,33.830711571540646787
0.364000000000000212,33.516690285222203727
0.365000000000000213,33.203033199029377442
0.366000000000000214,32.889731819486883069
0.367000000000000215,32.576780720725423635
0.368000000000000216,32.264177437143047200
0.369000000000000217,31.951922354934367831
0.370000000000000218,31.640018602771597500
0.371000000000000218,31.328471941907498177
0.372000000000000219,31.017290655956628598
0.373000000000000220,30.706485440597838021
0.374000000000000221,30.396069293427490976
0.375000000000000222,30.086057404180042596
0.376000000000000223,29.776467045519030563
0.377000000000000224,29.467317464589854126
0.378000000000000225,29.158629775512832083
0.379000000000000226,28.850426852982998582
0.380000000000000226,28.542733227131769524
0.381000000000000227,28.235574979793920392
0.382000000000000228,27.928979642312572906
0.383000000000000229,27.622976095004059260
0.384000000000000230,27.317594468394208462
0.385000000000000231,27.012866046327985714
0.386000000000000232,26.708823171044475231
0.387000000000000233,26.405499150300151712
0.388000000000000234,26.102928166614638883
0.389000000000000234,25.801145188704690980
0.390000000000000235,25.500185885163645594
0.391000000000000236,25.200086540436728910
0.392000000000000237,24.900883973134096294
0.393000000000000238,24.602615456717508380
0.394000000000000239,24.305318642589082145
0.395000000000000240,24.009031485604815259
0.396000000000000241,23.713792172029133809
0.397000000000000242,23.419639049941178399
0.398000000000000242,23.126610562098544932
0.399000000000000243,22.834745181258483626
0.400000000000000244,22.544081347952342753
0.401000000000000245,22.254657410704432152
0.402000000000000246,21.966511568682516753
0.403000000000000247,21.679681816762592206
0.404000000000000248,21.394205892988072293
0.405000000000000249,21.110121228399112425
0.406000000000000250,20.827464899205502036
0.407000000000000250,20.546273581273094777
0.408000000000000251,20.266583506891386435
0.409000000000000252,19.988430423787683310
0.410000000000000253,19.711849556350443891
0.411000000000000254,19.436875569023168708
0.412000000000000255,19.163542531827850723
0.413000000000000256,18.891883887975559730
0.414000000000000257,18.621932423520469513
0.415000000000000258,18.353720239012055515
0.416000000000000258,18.087278723099522892
0.417000000000000259,17.822638528041025552
0.418000000000000260,17.559829547070066269
0.419000000000000261,17.298880893570188988
0.420000000000000262,17.039820882009131253
0.421000000000000263,16.782677010582638388
0.422000000000000264,16.527475945518411038
0.423000000000000265,16.274243506989904517
0.424000000000000266,16.023004656590160266
0.425000000000000266,15.773783486315494429
0.426000000000000267,15.526603209009063988
0.427000000000000268,15.281486150214709241
0.428000000000000269,15.038453741391453633
0.429000000000000270,14.797526514439685030
0.430000000000000271,14.558724097490131300
0.431000000000000272,14.322065211907528237
0.432000000000000273,14.087567670461265124
0.433000000000000274,13.855248376615872274
0.434000000000000274,13.625123324894744314
0.435000000000000275,13.397207602271606675
0.436000000000000276,13.171515390544417556
0.437000000000000277,12.948059969647335521
0.438000000000000278,12.726853721857446899
0.439000000000000279,12.507908136853423287
0.440000000000000280,12.291233817584158672
0.441000000000000281,12.076840486906593952
0.442000000000000282,11.864736994952391314
0.443000000000000282,11.654931327184460343
0.444000000000000283,11.447430613104870645
0.445000000000000284,11.242241135576964695
0.446000000000000285,11.039368340725044249
0.447000000000000286,10.838816848376389146
0.448000000000000287,10.640590463010848765
0.449000000000000288,10.444692185184646149
0.450000000000000289,10.251124223395619239
0.451000000000000290,10.059888006358340462
0.452000000000000290,9.870984195658291327
0.453000000000000291,9.684412698755433979
0.454000000000000292,9.500172682308321015
0.455000000000000293,9.318262585790753505
0.456000000000000294,9.138680135374201541
0.457000000000000295,8.961422358049734527
0.458000000000000296,8.786485595964490969
0.459000000000000297,8.613865520948380095
0.460000000000000298,8.443557149207563839
0.461000000000000298,8.275554856162404604
0.462000000000000299,8.109852391408095329
0.463000000000000300,7.946442893777286187
0.464000000000000301,7.785318906484638646
0.465000000000000302,7.626472392334362027
0.466000000000000303,7.469894748972194520
0.467000000000000304,7.315576824164256031
0.468000000000000305,7.163508931086271403
0.469000000000000306,7.013680863606781557
0.470000000000000306,6.866081911549204442
0.471000000000000307,6.720700875918169004
0.472000000000000308,6.577526084076249724
0.473000000000000309,6.436545404857693775
0.474000000000000310,6.297746263607001183
0.475000000000000311,6.161115657129938583
0.476000000000000312,6.026640168546430587
0.477000000000000313,5.894305982033825941
0.478000000000000314,5.764098897451326309
0.479000000000000314,5.636004344835527924
0.480000000000000315,5.510007398758491881
0.481000000000000316,5.386092792539812102
0.482000000000000317,5.264244932305002678
0.483000000000000318,5.144447910882759878
0.484000000000000319,5.026685521534327350
0.485000000000000320,4.910941271508741046
0.486000000000000321,4.797198395417869854
0.487000000000000322,4.685439868425975263
0.488000000000000322,4.575648419248812715
0.489000000000000323,4.467806542957596605
0.490000000000000324,4.361896513583732649
0.491000000000000325,4.257900396520563291
0.492000000000000326,4.155800060718613409
0.493000000000000327,4.055577190671368903
0.494000000000000328,3.957213298188901884
0.495000000000000329,3.860689733956847114
0.496000000000000330,3.765987698878909384
0.497000000000000330,3.673088255200759100
0.498000000000000331,3.581972337414370600
0.499000000000000332,3.492620762941195611
0.500000000000000333,3.405014242593421336
0.501000000000000334,3.319133390812774476
0.502000000000000335,3.234958735686206843
0.503000000000000336,3.152470728738589134
0.504000000000000337,3.071649754502131291
0.505000000000000338,2.992476139863100570
0.506000000000000338,2.914930163186083334
0.507000000000000339,2.838992063216484674
0.508000000000000340,2.764642047762229993
0.509000000000000341,2.691860302155402174
0.510000000000000342,2.620626997495326460
0.511000000000000343,2.550922298674057842
0.512000000000000344,2.482726372186051300
0.513000000000000345,2.416019393723443986
0.514000000000000346,2.350781555558633773
0.515000000000000346,2.286993073716212077
0.516000000000000347,2.224634194936002451
0.517000000000000348,2.163685203429396076
0.518000000000000349,2.104126427431091351
0.519000000000000350,2.045938245548510892
0.520000000000000351,1.989101092911356172
0.521000000000000352,1.933595467123417677
0.522000000000000353,1.879401934019576004
0.523000000000000353,1.826501133230120644
0.524000000000000354,1.774873783555346307
0.525000000000000355,1.724500688152887928
0.526000000000000356,1.675362739540686929
0.527000000000000357,1.627440924418252166
0.528000000000000358,1.580716328309075269
0.529000000000000359,1.535170140027033669
0.530000000000000360,1.490783655969787125
0.531000000000000361,1.447538284241873807
0.532000000000000361,1.405415548610602805
0.533000000000000362,1.364397092297663594
0.534000000000000363,1.324464681609437866
0.535000000000000364,1.285600209408882533
0.536000000000000365,1.247785698432215096
0.537000000000000366,1.211003304453130536
0.538000000000000367,1.175235319297831094
0.539000000000000368,1.140464173713571450
0.540000000000000369,1.106672440094027099
0.541000000000000369,1.073842835064178214
0.542000000000000370,1.041958221928053652
0.543000000000000371,1.011001612981897502
0.544000000000000372,0.980956171696106161
0.545000000000000373,0.951805214768617014
0.546000000000000374,0.923532214052811495
0.547000000000000375,0.896120798362841975
0.548000000000000376,0.869554755159220094
0.549000000000000377,0.843818032117625072
0.550000000000000377,0.818894738583611170
0.551000000000000378,0.794769146916354474
0.552000000000000379,0.771425693723811312
0.553000000000000380,0.748848980992478430
0.554000000000000381,0.727023777114228720
0.555000000000000382,0.705935017812941656
0.556000000000000383,0.685567806973850447
0.557000000000000384,0.665907417377876287
0.558000000000000385,0.646939291343957001
0.559000000000000385,0.628649041281675092
0.560000000000000386,0.611022450156801122
0.561000000000000387,0.594045471872359010
0.562000000000000388,0.577704231567646276
0.563000000000000389,0.561985025837493657
0.564000000000000390,0.546874322874466690
0.565000000000000391,0.532358762536122576
0.566000000000000392,0.518425156339800908
0.567000000000000393,0.505060487387119950
0.568000000000000393,0.492251910220604327
0.569000000000000394,0.479986750614511237
0.570000000000000395,0.468252505302050703
0.571000000000000396,0.457036841641306535
0.572000000000000397,0.446327597221687911
0.573000000000000398,0.436112779413238116
0.574000000000000399,0.426380564860653066
0.575000000000000400,0.417119298924104598
0.576000000000000401,0.408317495068777514
0.577000000000000401,0.399963834204950408
0.578000000000000402,0.392047163980698721
0.579000000000000403,0.384556498028872873
0.580000000000000404,0.377481015170169243
0.581000000000000405,0.370810058574214008
0.582000000000000406,0.364533134880117737
0.583000000000000407,0.358639913278515410
0.584000000000000408,0.353120224556391249
0.585000000000000409,0.347964060106582318
0.586000000000000409,0.343161570903447566
0.587000000000000410,0.338703066446095047
0.588000000000000411,0.334579013671017944
0.589000000000000412,0.330780035835168185
0.590000000000000413,0.327296911371322552
0.591000000000000414,0.324120572716876332
0.592000000000000415,0.321242105117473253
0.593000000000000416,0.318652745406937554
0.594000000000000417,0.316343880764686725
0.595000000000000417,0.314307047451819199
0.596000000000000418,0.312533929527421650
0.597000000000000419,0.311016357545868705
0.598000000000000420,0.309746307236712204
0.599000000000000421,0.308715898167945535
0.600000000000000422,0.307917392393998346
0.601000000000000423,0.307343193089471556
0.602000000000000424,0.306985843169564121
0.603000000000000425,0.306838023898335865
0.604000000000000425,0.306892553485811237
0.605000000000000426,0.307142385674765483
0.606000000000000427,0.307580608318187010
0.607000000000000428,0.308200441948483284
0.608000000000000429,0.308995238338935274
0.609000000000000430,0.309958479058740966
0.610000000000000431,0.311083774022023418
0.611000000000000432,0.312364860031947300
0.612000000000000433,0.313795599320533414
0.613000000000000433,0.315369978084979630
0.614000000000000434,0.317082105021237459
