# CdSeWurtzite2-10_CHL-JS
# h[nm],U(h)[kJ/mol]
0.200000000000000011,100.439398891023813576
0.201000000000000012,98.738984375507200753
0.202000000000000013,97.445020153022795739
0.203000000000000014,96.345759700863112585
0.204000000000000015,95.320589217088041778
0.205000000000000016,94.307038547031297071
0.206000000000000016,93.278222140676263052
0.207000000000000017,92.227742923952320098
0.208000000000000018,91.159869397989169215
0.209000000000000019,90.083382598164718047
0.210000000000000020,89.007929478092279396
0.211000000000000021,87.942047477753192197
0.212000000000000022,86.892268261588512246
0.213000000000000023,85.862887505453642234
0.214000000000000024,84.856118028496695160
0.215000000000000024,83.872437655262785938
0.216000000000000025,82.911010227804609940
0.217000000000000026,81.970105217814136722
0.218000000000000027,81.047473751400417541
0.219000000000000028,80.140660573034580239
0.220000000000000029,79.247245549463713132
0.221000000000000030,78.365016987089390454
0.222000000000000031,77.492083959130610538
0.223000000000000032,76.626937219754012176
0.224000000000000032,75.768468995009214950
0.225000000000000033,74.915961608550006190
0.226000000000000034,74.069053961588807056
0.227000000000000035,73.227693642201387547
0.228000000000000036,72.392081089859132703
0.229000000000000037,71.562610915697561609
0.230000000000000038,70.739814255055762260
0.231000000000000039,69.924304947988474623
0.232000000000000040,69.116731423158029202
0.233000000000000040,68.317735402117236276
0.234000000000000041,67.527917935806172522
0.235000000000000042,66.747812818622634268
0.236000000000000043,65.977867080343131079
0.237000000000000044,65.218428014278103433
0.238000000000000045,64.469736043579473517
0.239000000000000046,63.731922640065235441
0.240000000000000047,63.005012476439375746
0.241000000000000048,62.288929000405367731
0.242000000000000048,61.583502656835456435
0.243000000000000049,60.888481042639966745
0.244000000000000050,60.203540350747594800
0.245000000000000051,59.528297538636437025
0.246000000000000052,58.862322738457727667
0.247000000000000053,58.205151506419156249
0.248000000000000054,57.556296586143062655
0.249000000000000055,56.915258932393456348
0.250000000000000056,56.281537806710971950
0.251000000000000056,55.654639814463564562
0.252000000000000057,55.034086803367358698
0.253000000000000058,54.419422586711860390
0.254000000000000059,53.810218490616399833
0.255000000000000060,53.206077754085960407
0.256000000000000061,52.606638833963948798
0.257000000000000062,52.011577684692383627
0.258000000000000063,51.420609095715938963
0.259000000000000064,50.833487178027006337
0.260000000000000064,50.250005096356872514
0.261000000000000065,49.669994145446977996
0.262000000000000066,49.093322268222017613
0.263000000000000067,48.519892111023999348
0.264000000000000068,47.949638706792804044
0.265000000000000069,47.382526871585845640
0.266000000000000070,46.818548393460602597
0.267000000000000071,46.257719085791123348
0.268000000000000071,45.700075769805806658
0.269000000000000072,45.145673243727451052
0.270000000000000073,44.594581288539401953
0.271000000000000074,44.046881753232348444
0.272000000000000075,43.502665755513831414
0.273000000000000076,42.962031027467368460
0.274000000000000077,42.425079429592123859
0.275000000000000078,41.891914651074444009
0.276000000000000079,41.362640109065480942
0.277000000000000079,40.837357055170940612
0.278000000000000080,40.316162893301743964
0.279000000000000081,39.799149709473724101
0.280000000000000082,39.286403011064670920
0.281000000000000083,38.778000670414328965
0.282000000000000084,38.274012065458478560
0.283000000000000085,37.774497408294649858
0.284000000000000086,37.279507251148238822
0.285000000000000087,36.789082158116414689
0.286000000000000087,36.303252530275095467
0.287000000000000088,35.822038571212956981
0.288000000000000089,35.345450379773097893
0.289000000000000090,34.873488156707111330
0.290000000000000091,34.406142512050983839
0.291000000000000092,33.943394860288861992
0.292000000000000093,33.485217890756487691
0.293000000000000094,33.031576101226391984
0.294000000000000095,32.582426383192967023
0.295000000000000095,32.137718648015422218
0.296000000000000096,31.697396483767469988
0.297000000000000097,31.261397833365418109
0.298000000000000098,30.829655685290742184
0.299000000000000099,30.402098768975747589
0.300000000000000100,29.978652247672830100
0.301000000000000101,29.559238402369562237
0.302000000000000102,29.143777301037111727
0.303000000000000103,28.732187448201152336
0.304000000000000103,28.324386410499037936
0.305000000000000104,27.920291414529451401
0.306000000000000105,27.519819913908929010
0.307000000000000106,27.122890123020777509
0.308000000000000107,26.729421515475280557
0.309000000000000108,26.339335285794437169
0.310000000000000109,25.952554773289069345
0.311000000000000110,25.569005847512951135
0.312000000000000111,25.188617255055238076
0.313000000000000111,24.811320927773692802
0.314000000000000112,24.437052252874075009
0.315000000000000113,24.065750305510576368
0.316000000000000114,23.697358044817509182
0.317000000000000115,23.331822474486440200
0.318000000000000116,22.969094769177207382
0.319000000000000117,22.609130368197252636
0.320000000000000118,22.251889038004122767
0.321000000000000119,21.897334905181544684
0.322000000000000119,21.545436461613359569
0.323000000000000120,21.196166543633147228
0.324000000000000121,20.849502286961314468
0.325000000000000122,20.505425059259884790
0.326000000000000123,20.163920372137699388
0.327000000000000124,19.824977774427669175
0.328000000000000125,19.488590728535118757
0.329000000000000126,19.154756471623048952
0.330000000000000127,18.823475863356893711
0.331000000000000127,18.494753221882092475
0.332000000000000128,18.168596149649793858
0.333000000000000129,17.845015350643897989
0.334000000000000130,17.524024440495566068
0.335000000000000131,17.205639750900267870
0.336000000000000132,16.889880129679788467
0.337000000000000133,16.576766737755605163
0.338000000000000134,16.266322844223633837
0.339000000000000135,15.958573620644127544
0.340000000000000135,15.653545935582105386
0.341000000000000136,15.351268150358212239
0.342000000000000137,15.051769916893841028
0.343000000000000138,14.755081978460385272
0.344000000000000139,14.461235974069449384
0.345000000000000140,14.170264247171132865
0.346000000000000141,13.882199659258201763
0.347000000000000142,13.597075408909057970
0.348000000000000143,13.314924856738278081
0.349000000000000143,13.035781356663573405
0.350000000000000144,12.759678093839905699
0.351000000000000145,12.486647929556939474
0.352000000000000146,12.216723253343873878
0.353000000000000147,11.949935842477065862
0.354000000000000148,11.686316729039711859
0.355000000000000149,11.425896074639757316
0.356000000000000150,11.168703052852496427
0.357000000000000151,10.914765739416640855
0.358000000000000151,10.664111010178567440
0.359000000000000152,10.416764446747524886
0.360000000000000153,10.172750249795475597
0.361000000000000154,9.932091159909287370
0.362000000000000155,9.694808385878157964
0.363000000000000156,9.460921540278196318
0.364000000000000157,9.230448582196483898
0.365000000000000158,9.003405766919502895
0.366000000000000159,8.779807602396278554
0.367000000000000159,8.559666812272524794
0.368000000000000160,8.342994305281804301
0.369000000000000161,8.129799150769184024
0.370000000000000162,7.920088560115320142
0.371000000000000163,7.713867873822827903
0.372000000000000164,7.511140554020938609
0.373000000000000165,7.311908182141874768
0.374000000000000166,7.116170461518805723
0.375000000000000167,6.923925224655228305
0.376000000000000167,6.735168444914281238
0.377000000000000168,6.549894252377947979
0.378000000000000169,6.368094953627555732
0.379000000000000170,6.189761055199487494
0.380000000000000171,6.014881290472857245
0.381000000000000172,5.843442649750461904
0.382000000000000173,5.675430413297887000
0.383000000000000174,5.510828187111266985
0.384000000000000175,5.349617941189171333
0.385000000000000175,5.191780050090239129
0.386000000000000176,5.037293335563872709
0.387000000000000177,4.886135111048336199
0.388000000000000178,4.738281227836685261
0.389000000000000179,4.593706122718351992
0.390000000000000180,4.452382866910951975
0.391000000000000181,4.314283216104017882
0.392000000000000182,4.179377661444049430
0.393000000000000183,4.047635481296909532
0.394000000000000183,3.919024793631526116
0.395000000000000184,3.793512608875825087
0.396000000000000185,3.671064883103180243
0.397000000000000186,3.551646571415086662
0.398000000000000187,3.435221681392585769
0.399000000000000188,3.321753326496224012
0.400000000000000189,3.211203779301501804
0.401000000000000190,3.103534524462925326
0.402000000000000191,2.998706311307283379
0.403000000000000191,2.896679205962665371
0.404000000000000192,2.797412642936362381
0.405000000000000193,2.700865476061060200
0.406000000000000194,2.606996028734469117
0.407000000000000195,2.515762143383766691
0.408000000000000196,2.427121230091488613
0.409000000000000197,2.341030314325196482
0.410000000000000198,2.257446083718410712
0.411000000000000199,2.176324933855490418
0.412000000000000199,2.097623013017647864
0.413000000000000200,2.021296265852544849
0.414000000000000201,1.947300475933708030
0.415000000000000202,1.875591307180789258
0.416000000000000203,1.806124344115562552
0.417000000000000204,1.738855130932327242
0.418000000000000205,1.673739209365322722
0.419000000000000206,1.610732155339033467
0.420000000000000207,1.549789614390733039
0.421000000000000207,1.490867335857610554
0.422000000000000208,1.433921205823988743
0.423000000000000209,1.378907278826629890
0.424000000000000210,1.325781808319070887
0.425000000000000211,1.274501275898145103
0.426000000000000212,1.225022419298207543
0.427000000000000213,1.177302259160825537
0.428000000000000214,1.131298124589526832
0.429000000000000214,1.086967677501171625
0.430000000000000215,1.044268935787156849
0.431000000000000216,1.003160295299296623
0.432000000000000217,0.963600550676579459
0.433000000000000218,0.925548915030501407
0.434000000000000219,0.888965038507652294
0.435000000000000220,0.853809025749503347
0.436000000000000221,0.820041452270288906
0.437000000000000222,0.787623379774718302
0.438000000000000222,0.756516370438076846
0.439000000000000223,0.726682500171949242
0.440000000000000224,0.698084370899387019
0.441000000000000225,0.670685121863937250
0.442000000000000226,0.644448439997235556
0.443000000000000227,0.619338569370422198
0.444000000000000228,0.595320319754699123
0.445000000000000229,0.572359074316807326
0.446000000000000230,0.550420796475209473
0.447000000000000230,0.529472035942829100
0.448000000000000231,0.509479933982394106
0.449000000000000232,0.490412227900335451
0.450000000000000233,0.472237254804994122
0.451000000000000234,0.454923954655130025
0.452000000000000235,0.438441872624148854
0.453000000000000236,0.422761160805666614
0.454000000000000237,0.407852579285493899
0.455000000000000238,0.393687496605080456
0.456000000000000238,0.380237889641084126
0.457000000000000239,0.367476342925330657
0.458000000000000240,0.355376047429283193
0.459000000000000241,0.343910798836597087
0.460000000000000242,0.333054995326971415
0.461000000000000243,0.322783634894240501
0.462000000000000244,0.313072312220963711
0.463000000000000245,0.303897215131689213
0.464000000000000246,0.295235120646174298
0.465000000000000246,0.287063390653803929
0.466000000000000247,0.279359967229686090
0.467000000000000248,0.272103367612521740
0.468000000000000249,0.265272678863874511
0.469000000000000250,0.258847552227912003
0.470000000000000251,0.252808197210244057
0.471000000000000252,0.247135375393958245
0.472000000000000253,0.241810394010361807
0.473000000000000254,0.236815099281669827
0.474000000000000254,0.232131869552032827
0.475000000000000255,0.227743608223132998
0.476000000000000256,0.223633736509802949
0.477000000000000257,0.219786186030793307
0.478000000000000258,0.216185391249240244
0.479000000000000259,0.212816281776906369
0.480000000000000260,0.209664274555772856
0.481000000000000261,0.206715265930115633
0.482000000000000262,0.203955623621677462
0.483000000000000262,0.201372178620048276
0.484000000000000263,0.198952217000067433
0.485000000000000264,0.196683471677319810
0.486000000000000265,0.194554114112648058
0.487000000000000266,0.192552745975997419
0.488000000000000267,0.190668390779443170
0.489000000000000268,0.188890485488972665
0.490000000000000269,0.187208872124065007
0.491000000000000270,0.185613789353716030
0.492000000000000270,0.184095864097229500
0.493000000000000271,0.182646103137613341
0.494000000000000272,0.181255884755096380
0.495000000000000273,0.179916950387924934
0.496000000000000274,0.178621396327177190
0.497000000000000275,0.177361665452052369
0.498000000000000276,0.176130539011675580
0.499000000000000277,0.174921128459204961
0.500000000000000222,0.173726867343668823
0.501000000000000334,0.172541503264598189
0.502000000000000224,0.171359089894334321
0.503000000000000336,0.170173979072459625
0.504000000000000226,0.168980812976630701
0.505000000000000338,0.167774516373735944
0.506000000000000227,0.166550288955083753
0.507000000000000339,0.165303597759018095
0.508000000000000229,0.164030169684181937
0.509000000000000341,0.162725984096332210
0.510000000000000231,0.161387265531400093
0.511000000000000343,0.160010476497309317
0.512000000000000233,0.158592310376806933
0.513000000000000345,0.157129684433331196
0.514000000000000234,0.155619732921782911
0.515000000000000346,0.154059800305914013
0.516000000000000236,0.152447434583736718
0.517000000000000348,0.150780380722290469
0.518000000000000238,0.149056574202889508
0.519000000000000350,0.147274134677827268
0.520000000000000240,0.145431359739372906
0.521000000000000352,0.143526718801624015
0.522000000000000242,0.141558847095884371
0.523000000000000353,0.139526539779818493
0.524000000000000243,0.137428746160747600
0.525000000000000355,0.135264564033096224
0.526000000000000245,0.133033234130145422
0.527000000000000357,0.130734134689862114
0.528000000000000247,0.128366776134708371
0.529000000000000359,0.125930795865053735
0.530000000000000249,0.123425953165825636
0.531000000000000361,0.120852124225877461
0.532000000000000250,0.118209297269571051
0.533000000000000362,0.115497567799794615
0.534000000000000252,0.112717133951834539
0.535000000000000364,0.109868291957155237
0.536000000000000254,0.106951431716312981
0.537000000000000366,0.103967032480039204
0.538000000000000256,0.100915658637500669
0.539000000000000368,0.097797955610677584
0.540000000000000258,0.094614645853794699
0.541000000000000369,0.091366524956633999
0.542000000000000259,0.088054457850545637
0.543000000000000371,0.084679375115929018
0.544000000000000261,0.081242269389943139
0.545000000000000373,0.077744191873069315
0.546000000000000263,0.074186248933302154
0.547000000000000375,0.070569598806528439
0.548000000000000265,0.066895448391715503
0.549000000000000377,0.063165050139553675
0.550000000000000266,0.059379699033050778
0.551000000000000378,0.055540729658686852
0.552000000000000268,0.051649513366666178
0.553000000000000380,0.047707455518722908
0.554000000000000270,0.043715992822083681
0.555000000000000382,0.039676590748046095
0.556000000000000272,0.035590741033633952
0.557000000000000384,0.031459959264919200
0.558000000000000274,0.027285782540369230
0.559000000000000385,0.023069767212820103
0.560000000000000275,0.018813486708491367
0.561000000000000387,0.014518529421532677
0.562000000000000277,0.010186496682638223
0.563000000000000389,0.005819000800142327
0.564000000000000279,0.001417663172159589
0.565000000000000391,-0.003015887531751293
0.566000000000000281,-0.007480017120908700
0.567000000000000393,-0.011973087567272944
0.568000000000000282,-0.016493458624131076
0.569000000000000394,-0.021039489381187416
0.570000000000000284,-0.025609539757451116
0.571000000000000396,-0.030201971933452809
0.572000000000000286,-0.034815151724138058
0.573000000000000398,-0.039447449893868593
0.574000000000000288,-0.044097243414954211
0.575000000000000400,-0.048762916671095870
0.576000000000000290,-0.053442862607062033
0.577000000000000401,-0.058135483826027533
0.578000000000000291,-0.062839193635827656
0.579000000000000403,-0.067552417045531665
0.580000000000000293,-0.072273591713558447
0.581000000000000405,-0.077001168848676832
0.582000000000000295,-0.081733614065131577
0.583000000000000407,-0.086469408193158889
0.584000000000000297,-0.091207048046067246
0.585000000000000409,-0.095945047145212500
0.586000000000000298,-0.100681936403897304
0.587000000000000410,-0.105416264771542423
0.588000000000000300,-0.110146599839130846
0.589000000000000412,-0.114871528407158391
0.590000000000000302,-0.119589657017147827
0.591000000000000414,-0.124299612447898930
0.592000000000000304,-0.129000042177430163
0.593000000000000416,-0.133689614811778323
0.594000000000000306,-0.138367020481655251
0.595000000000000417,-0.143030971207947527
0.596000000000000307,-0.147680201237092745
0.597000000000000419,-0.152313467347320514
0.598000000000000309,-0.156929549126680251
0.599000000000000421,-0.161527249223797742
0.600000000000000311,-0.166105393572324067
0.601000000000000423,-0.170662831589936309
0.602000000000000313,-0.175198436352763443
0.603000000000000425,-0.179711104746148015
0.604000000000000314,-0.184199757592548391
0.605000000000000426,-0.188663339757411619
0.606000000000000316,-0.193100820233820553
0.607000000000000428,-0.197511192206745262
0.608000000000000318,-0.201893473097600890
0.609000000000000430,-0.206246704589910651
0.610000000000000320,-0.210569952636808722
0.611000000000000432,-0.214862307451073459
0.612000000000000322,-0.219122883478397951
0.613000000000000433,-0.223350819354622310
0.614000000000000323,-0.227545277847511496
0.615000000000000435,-0.231705445783825237
0.616000000000000325,-0.235830533962216787
0.617000000000000437,-0.239919777052644667
0.618000000000000327,-0.243972433482891216
0.619000000000000439,-0.247987785312721254
0.620000000000000329,-0.251965138096299113
0.621000000000000441,-0.255903820733438814
0.622000000000000330,-0.259803185310115925
0.623000000000000442,-0.263662606928936394
0.624000000000000332,-0.267481483529881769
0.625000000000000444,-0.271259235701997004
0.626000000000000334,-0.274995306486382651
0.627000000000000446,-0.278689161171011279
0.628000000000000336,-0.282340287077815277
0.629000000000000448,-0.285948193342499990
0.630000000000000338,-0.289512410687447375
0.631000000000000449,-0.293032491188242150
0.632000000000000339,-0.296508008034073844
0.633000000000000451,-0.299938555282552421
0.634000000000000341,-0.303323747609186789
0.635000000000000453,-0.306663220052012186
0.636000000000000343,-0.309956627751601710
0.637000000000000455,-0.313203645686896515
0.638000000000000345,-0.316403968407158842
0.639000000000000457,-0.319557309760334918
0.640000000000000346,-0.322663402618203643
0.641000000000000458,-0.325721998598539231
0.642000000000000348,-0.328732867784644833
0.643000000000000460,-0.331695798442498080
0.644000000000000350,-0.334610596735762211
0.645000000000000462,-0.337477086438993656
0.646000000000000352,-0.340295108649210643
0.647000000000000464,-0.343064521496130759
0.648000000000000353,-0.345785199851288527
0.649000000000000465,-0.348457035036249640
0.650000000000000355,-0.351079934530145743
0.651000000000000467,-0.353653821676740976
0.652000000000000357,-0.356178635391242004
0.653000000000000469,-0.358654329867006683
0.654000000000000359,-0.361080874282382169
0.655000000000000471,-0.363458252507814938
0.656000000000000361,-0.365786462813430524
0.657000000000000473,-0.368065517577209955
0.658000000000000362,-0.370295442993976043
0.659000000000000474,-0.372476278785269677
0.660000000000000364,-0.374608077910323078
0.661000000000000476,-0.376690906278220328
0.662000000000000366,-0.378724842461406197
0.663000000000000478,-0.380709977410653377
0.664000000000000368,-0.382646414171604277
0.665000000000000480,-0.384534267603016788
0.666000000000000369,-0.386373664096808234
0.667000000000000481,-0.388164741300002614
