# CdSeWurtzite2-10_CS-949-AC
# h[nm],U(h)[kJ/mol]
0.200000000000000011,64.367536084982930333
0.201000000000000012,63.975511323500619199
0.202000000000000013,63.383887604009316874
0.203000000000000014,62.696527855677253172
0.204000000000000015,61.972630199021480735
0.205000000000000016,61.243251251565844484
0.206000000000000016,60.522453146194152396
0.207000000000000017,59.814650848452927789
0.208000000000000018,59.119310578495081643
0.209000000000000019,58.433832161658415316
0.210000000000000020,57.755211993604845588
0.211000000000000021,57.080909068028041986
0.212000000000000022,56.409208893572937882
0.213000000000000023,55.739287443534749400
0.214000000000000024,55.071110642626898368
0.215000000000000024,54.405257549776976589
0.216000000000000025,53.742722242836499902
0.217000000000000026,53.084726611780027383
0.218000000000000027,52.432560948119785849
0.219000000000000028,51.787459241618400085
0.220000000000000029,51.150509880345211400
0.221000000000000030,50.522598837391022641
0.222000000000000031,49.904380574601198362
0.223000000000000032,49.296271194859983211
0.224000000000000032,48.698458400150748560
0.225000000000000033,48.110923263107096659
0.226000000000000034,47.533469490355628295
0.227000000000000035,46.965756610759640921
0.228000000000000036,46.407334274058896995
0.229000000000000037,45.857675543433195742
0.230000000000000038,45.316207681251661654
0.231000000000000039,44.782339448936212989
0.232000000000000040,44.255484368226483127
0.233000000000000040,43.735079727444187370
0.234000000000000041,43.220601371565258830
0.235000000000000042,42.711574499714053843
0.236000000000000043,42.207580819256051541
0.237000000000000044,41.708262482790061654
0.238000000000000045,41.213323272980048273
0.239000000000000046,40.722527509173531257
0.240000000000000047,40.235697136759384307
0.241000000000000048,39.752707431656581605
0.242000000000000048,39.273481713472705223
0.243000000000000049,38.797985415969122869
0.244000000000000050,38.326219815836331861
0.245000000000000051,37.858215672937731711
0.246000000000000052,37.394026988978424697
0.247000000000000053,36.933725048289204551
0.248000000000000054,36.477392864931474037
0.249000000000000055,36.025120125113701874
0.250000000000000056,35.576998683169726689
0.251000000000000056,35.133118643083960819
0.252000000000000057,34.693565035599860380
0.253000000000000058,34.258415083053797900
0.254000000000000059,33.827736029899945436
0.255000000000000060,33.401583506061648166
0.256000000000000061,32.980000382364821121
0.257000000000000062,32.563016071990162459
0.258000000000000063,32.150646228740242805
0.259000000000000064,31.742892791598450231
0.260000000000000064,31.339744325225932897
0.261000000000000065,30.941176607400915799
0.262000000000000066,30.547153416682760962
0.263000000000000067,30.157627476545854961
0.264000000000000068,29.772541515671854029
0.265000000000000069,29.391829407838354626
0.266000000000000070,29.015417358754689303
0.267000000000000071,28.643225111147472717
0.268000000000000071,28.275167143297615269
0.269000000000000072,27.911153839996920567
0.270000000000000073,27.551092618470619300
0.271000000000000074,27.194888995159107736
0.272000000000000075,26.842447582338600398
0.273000000000000076,26.493673006369810707
0.274000000000000077,26.148470741886331581
0.275000000000000078,25.806747858470806989
0.276000000000000079,25.468413678322349369
0.277000000000000079,25.133380345101993925
0.278000000000000080,24.801563305570500262
0.279000000000000081,24.472881706817549485
0.280000000000000082,24.147258712845321327
0.281000000000000083,23.824621745027322106
0.282000000000000084,23.504902651539076430
0.283000000000000085,23.188037811267086852
0.284000000000000086,22.873968177966830240
0.285000000000000087,22.562639270578689121
0.286000000000000087,22.254001115637795039
0.287000000000000088,21.948008147649375132
0.288000000000000089,21.644619073157475242
0.289000000000000090,21.343796704028314082
0.290000000000000091,21.045507765211858953
0.291000000000000092,20.749722681947265102
0.292000000000000093,20.456415351051667528
0.293000000000000094,20.165562900584710349
0.294000000000000095,19.877145441822442251
0.295000000000000095,19.591145817109474336
0.296000000000000096,19.307549346794946388
0.297000000000000097,19.026343578099066178
0.298000000000000098,18.747518038408692576
0.299000000000000099,18.471063995163987670
0.300000000000000100,18.196974224178639190
0.301000000000000101,17.925242787932592847
0.302000000000000102,17.655864825093541270
0.303000000000000103,17.388836352258735474
0.304000000000000103,17.124154078666862233
0.305000000000000104,16.861815234406748232
0.306000000000000105,16.601817412448848899
0.307000000000000106,16.344158424644568584
0.308000000000000107,16.088836171677183273
0.309000000000000108,15.835848526807021486
0.310000000000000109,15.585193233129292167
0.311000000000000110,15.336867813957837825
0.312000000000000111,15.090869495857495153
0.313000000000000111,14.847195143774026604
0.314000000000000112,14.605841207649934432
0.315000000000000113,14.366803679867317101
0.316000000000000114,14.130078062823759666
0.317000000000000115,13.895659345922576122
0.318000000000000116,13.663541991244096963
0.319000000000000117,13.433719927158708884
0.320000000000000118,13.206186549143998477
0.321000000000000119,12.980934727076832047
0.322000000000000119,12.757956818285553169
0.323000000000000120,12.537244685667124244
0.324000000000000121,12.318789720197283799
0.325000000000000122,12.102582867189406457
0.326000000000000123,11.888614655687701926
0.327000000000000124,11.676875230412729678
0.328000000000000125,11.467354385711240994
0.329000000000000126,11.260041600997812594
0.330000000000000127,11.054926077211492341
0.331000000000000127,10.851996773847210065
0.332000000000000128,10.651242446158063260
0.333000000000000129,10.452651682160547963
0.334000000000000130,10.256212939110245230
0.335000000000000131,10.061914579150036175
0.336000000000000132,9.869744903866713770
0.337000000000000133,9.679692187523958324
0.338000000000000134,9.491744708770649908
0.339000000000000135,9.305890780653621519
0.340000000000000135,9.122118778791255878
0.341000000000000136,8.940417167591451886
0.342000000000000137,8.760774524422043186
0.343000000000000138,8.583179561665179591
0.344000000000000139,8.407621146608342144
0.345000000000000140,8.234088319145250523
0.346000000000000141,8.062570307277470150
0.347000000000000142,7.893056540424794321
0.348000000000000143,7.725536660567302150
0.349000000000000143,7.560000531255715472
0.350000000000000144,7.396438244538773965
0.351000000000000145,7.234840125867286531
0.352000000000000146,7.075196737043642159
0.353000000000000147,6.917498877294026904
0.354000000000000148,6.761737582547373115
0.355000000000000149,6.607904123010783337
0.356000000000000150,6.455989999136201973
0.357000000000000151,6.305986936076593885
0.358000000000000151,6.157886876732821868
0.359000000000000152,6.011681973494422238
0.360000000000000153,5.867364578778419215
0.361000000000000154,5.724927234471227422
0.362000000000000155,5.584362660377910181
0.363000000000000156,5.445663741782704292
0.364000000000000157,5.308823516223175609
0.365000000000000158,5.173835159578457521
0.366000000000000159,5.040691971570051777
0.367000000000000159,4.909387360770590014
0.368000000000000160,4.779914829213496752
0.369000000000000161,4.652267956692783812
0.370000000000000162,4.526440384838933184
0.371000000000000163,4.402425801053235332
0.372000000000000164,4.280217922378749762
0.373000000000000165,4.159810479382541004
0.374000000000000166,4.041197200119185595
0.375000000000000167,3.924371794242103029
0.376000000000000167,3.809327937324423097
0.377000000000000168,3.696059255447309511
0.378000000000000169,3.584559310109403096
0.379000000000000170,3.474821583506853440
0.380000000000000171,3.366839464229225420
0.381000000000000172,3.260606233412829624
0.382000000000000173,3.156115051388693082
0.383000000000000174,3.053358944858830970
0.384000000000000175,2.952330794630543487
0.385000000000000175,2.853023323935002686
0.386000000000000176,2.755429087352576634
0.387000000000000177,2.659540460364377079
0.388000000000000178,2.565349629545830901
0.389000000000000179,2.472848583415323542
0.390000000000000180,2.382029103947763460
0.391000000000000181,2.292882758760128592
0.392000000000000182,2.205400893973593845
0.393000000000000183,2.119574627753927576
0.394000000000000183,2.035394844529853309
0.395000000000000184,1.952852189886559398
0.396000000000000185,1.871937066129585103
0.397000000000000186,1.792639628512404881
0.398000000000000187,1.714949782119045363
0.399000000000000188,1.638857179391556063
0.400000000000000189,1.564351218290721768
0.401000000000000190,1.491421041076580689
0.402000000000000191,1.420055533694630112
0.403000000000000191,1.350243325751949053
0.404000000000000192,1.281972791066680273
0.405000000000000193,1.215232048773399409
0.406000000000000194,1.150008964965945069
0.407000000000000195,1.086291154858767261
0.408000000000000196,1.024065985447105476
0.409000000000000197,0.963320578645864400
0.410000000000000198,0.904041814886613837
0.411000000000000199,0.846216337151915687
0.412000000000000199,0.789830555425667824
0.413000000000000200,0.734870651538391817
0.414000000000000201,0.681322584385855246
0.415000000000000202,0.629172095499725748
0.416000000000000203,0.578404714948862697
0.417000000000000204,0.529005767549848405
0.418000000000000205,0.480960379365726609
0.419000000000000206,0.434253484471919360
0.420000000000000207,0.388869831968658652
0.421000000000000207,0.344793993219469797
0.422000000000000208,0.302010369295711456
0.423000000000000209,0.260503198607338227
0.424000000000000210,0.220256564700657853
0.425000000000000211,0.181254404204162445
0.426000000000000212,0.143480514903941814
0.427000000000000213,0.106918563930819402
0.428000000000000214,0.071552096041645072
0.429000000000000214,0.037364541977862875
0.430000000000000215,0.004339226884882641
0.431000000000000216,-0.027540621223578966
0.432000000000000217,-0.058291862971567257
0.433000000000000218,-0.087931439112060070
0.434000000000000219,-0.116476362017512394
0.435000000000000220,-0.143943707183370379
0.436000000000000221,-0.170350604757602136
0.437000000000000222,-0.195714231108737868
0.438000000000000222,-0.220051800444320433
0.439000000000000223,-0.243380556491110761
0.440000000000000224,-0.265717764247818677
0.441000000000000225,-0.287080701820538575
0.442000000000000226,-0.307486652350588752
0.443000000000000227,-0.326952896043790742
0.444000000000000228,-0.345496702309832093
0.445000000000000229,-0.363135322019666362
0.446000000000000230,-0.379885979888459735
0.447000000000000230,-0.395765866991148241
0.448000000000000231,-0.410792133417024197
0.449000000000000232,-0.424981881069333323
0.450000000000000233,-0.438352156615537336
0.451000000000000234,-0.450919944593100641
0.452000000000000235,-0.462702160675608820
0.453000000000000236,-0.473715645103205296
0.454000000000000237,-0.483977156281230059
0.455000000000000238,-0.493503364550282431
0.456000000000000238,-0.502310846130671229
0.457000000000000239,-0.510416077243821875
0.458000000000000240,-0.517835428412760090
0.459000000000000241,-0.524585158943486896
0.460000000000000242,-0.530681411588765806
0.461000000000000243,-0.536140207395380375
0.462000000000000244,-0.540977440735773363
0.463000000000000245,-0.545208874524454323
0.464000000000000246,-0.548850135619564083
0.465000000000000246,-0.551916710409413480
0.466000000000000247,-0.554423940583745667
0.467000000000000248,-0.556387019089159329
0.468000000000000249,-0.557820986267874130
0.469000000000000250,-0.558740726178834080
0.470000000000000251,-0.559160963099890829
0.471000000000000252,-0.559096258209632380
0.472000000000000253,-0.558561006447279240
0.473000000000000254,-0.557569433548741444
0.474000000000000254,-0.556135593256992800
0.475000000000000255,-0.554273364704510940
0.476000000000000256,-0.551996449965624358
0.477000000000000257,-0.549318371776277070
0.478000000000000258,-0.546252471418728236
0.479000000000000259,-0.542811906768523755
0.480000000000000260,-0.539009650501002469
0.481000000000000261,-0.534858488454468262
0.482000000000000262,-0.530371018147100970
0.483000000000000262,-0.525559647444634570
0.484000000000000263,-0.520436593375615986
0.485000000000000264,-0.515013881091221037
0.486000000000000265,-0.509303342966330397
0.487000000000000266,-0.503316617838625802
0.488000000000000267,-0.497065150382461685
0.489000000000000268,-0.490560190614117375
0.490000000000000269,-0.483812793525105811
0.491000000000000270,-0.476833818840156465
0.492000000000000270,-0.469633930896444618
0.493000000000000271,-0.462223598640683797
0.494000000000000272,-0.454613095740666218
0.495000000000000273,-0.446812500807785895
0.496000000000000274,-0.438831697727189884
0.497000000000000275,-0.430680376092099082
0.498000000000000276,-0.422368031738933003
0.499000000000000277,-0.413903967379852300
0.500000000000000222,-0.405297293329323183
0.501000000000000334,-0.396556928321428193
0.502000000000000224,-0.387691600414555859
0.503000000000000336,-0.378709847980213454
0.504000000000000226,-0.369620020772722546
0.505000000000000338,-0.360430281076543124
0.506000000000000227,-0.351148604928105068
0.507000000000000339,-0.341782783408964896
0.508000000000000229,-0.332340424007224022
0.509000000000000341,-0.322828952044115269
0.510000000000000231,-0.313255612162842922
0.511000000000000343,-0.303627469876599998
0.512000000000000233,-0.293951413172959197
0.513000000000000345,-0.284234154171713882
0.514000000000000234,-0.274482230833432705
0.515000000000000346,-0.264702008715873849
0.516000000000000236,-0.254899682775679870
0.517000000000000348,-0.245081279212611414
0.518000000000000238,-0.235252657353818340
0.519000000000000350,-0.225419511575524645
0.520000000000000240,-0.215587373259727100
0.521000000000000352,-0.205761612783472186
0.522000000000000242,-0.195947441538323386
0.523000000000000353,-0.186149913977742887
0.524000000000000243,-0.176373929690126385
0.525000000000000355,-0.166624235495327955
0.526000000000000245,-0.156905427562516797
0.527000000000000357,-0.147221953547300499
0.528000000000000247,-0.137578114746113839
0.529000000000000359,-0.127978068265893141
0.530000000000000249,-0.118425829207157537
0.531000000000000361,-0.108925272858636776
0.532000000000000250,-0.099480136901656357
0.533000000000000362,-0.090094023622559249
0.534000000000000252,-0.080770402131471492
0.535000000000000364,-0.071512610585788242
0.536000000000000254,-0.062323858416848246
0.537000000000000366,-0.053207228558192599
0.538000000000000256,-0.044165679674057122
0.539000000000000368,-0.035202048386581627
0.540000000000000258,-0.026319051500465030
0.541000000000000369,-0.017519288223661379
0.542000000000000259,-0.008805242382961476
0.543000000000000371,-0.000179284633153753
0.544000000000000261,0.008356325341350413
0.545000000000000373,0.016799436633542397
0.546000000000000263,0.025148004930576128
0.547000000000000375,0.033400090341324171
0.548000000000000265,0.041553855235597362
0.549000000000000377,0.049607562096127170
0.550000000000000266,0.057559571384042885
0.551000000000000378,0.065408339418820891
0.552000000000000268,0.073152416273452231
0.553000000000000380,0.080790443685609864
0.554000000000000270,0.088321152985551502
0.555000000000000382,0.095743363041483689
0.556000000000000272,0.103055978222958561
0.557000000000000384,0.110257986383046805
0.558000000000000274,0.117348456859736605
0.559000000000000385,0.124326538497234476
0.560000000000000275,0.131191457687586055
0.561000000000000387,0.137942516433157136
0.562000000000000277,0.144579090430414586
0.563000000000000389,0.151100627175414448
0.564000000000000279,0.157506644091396419
0.565000000000000391,0.163796726678864024
0.566000000000000281,0.169970526688444229
0.567000000000000393,0.176027760316874865
0.568000000000000282,0.181968206426358858
0.569000000000000394,0.187791704787581282
0.570000000000000284,0.193498154346571083
0.571000000000000396,0.199087511515656790
0.572000000000000286,0.204559788488639815
0.573000000000000398,0.209915051580420980
0.574000000000000288,0.215153419591136791
0.575000000000000400,0.220275062194964288
0.576000000000000290,0.225280198353682959
0.577000000000000401,0.230169094755058007
0.578000000000000291,0.234942064276114776
0.579000000000000403,0.239599464471316720
0.580000000000000293,0.244141696085694720
0.581000000000000405,0.248569201592921868
0.582000000000000295,0.252882463758292597
0.583000000000000407,0.257082004226624250
0.584000000000000297,0.261168382135006594
0.585000000000000409,0.265142192750335515
0.586000000000000298,0.269004066131585451
0.587000000000000410,0.272754665816702713
0.588000000000000300,0.276394687534048111
0.589000000000000412,0.279924857938272265
0.590000000000000302,0.283345933370495850
0.591000000000000414,0.286658698642647092
0.592000000000000304,0.289863965845860161
0.593000000000000416,0.292962573182741104
0.594000000000000306,0.295955383823335250
0.595000000000000417,0.298843284784671592
0.596000000000000307,0.301627185833651168
0.597000000000000419,0.304308018413119941
0.598000000000000309,0.306886734590927079
0.599000000000000421,0.309364306031775116
0.600000000000000311,0.311741722991623671
0.601000000000000423,0.314019993334471892
0.602000000000000313,0.316200141571261750
0.603000000000000425,0.318283207920716293
0.604000000000000314,0.320270247391818863
0.605000000000000426,0.322162328887779625
0.606000000000000316,0.323960534331178884
0.607000000000000428,0.325665957810070517
0.608000000000000318,0.327279704744801392
0.609000000000000430,0.328802891075290982
0.610000000000000320,0.330236642468499597
0.611000000000000432,0.331582093545857881
0.612000000000000322,0.332840387130375226
0.613000000000000433,0.334012673513158720
0.614000000000000323,0.335100109739112251
0.615000000000000435,0.336103858911499298
0.616000000000000325,0.337025089515148979
0.617000000000000437,0.337864974758012693
0.618000000000000327,0.338624691930782817
0.619000000000000439,0.339305421784356853
0.620000000000000329,0.339908347924822940
0.621000000000000441,0.340434656225700627
0.622000000000000330,0.340885534257213851
0.623000000000000442,0.341262170732247960
0.624000000000000332,0.341565754968790769
0.625000000000000444,0.341797476368528919
0.626000000000000334,0.341958523911365497
0.627000000000000446,0.342050085665573433
0.628000000000000336,0.342073348313316927
0.629000000000000448,0.342029496691261259
0.630000000000000338,0.341919713346034215
0.631000000000000449,0.341745178104220837
0.632000000000000339,0.341507067656697472
0.633000000000000451,0.341206555156954860
0.634000000000000341,0.340844809833236451
0.635000000000000453,0.340422996614146600
0.636000000000000343,0.339942275767551150
0.637000000000000455,0.339403802552448064
0.638000000000000345,0.338808726883578215
0.639000000000000457,0.338158193008542884
0.640000000000000346,0.337453339197129165
0.641000000000000458,0.336695297442655528
0.642000000000000348,0.335885193175025520
0.643000000000000460,0.335024144985296979
0.644000000000000350,0.334113264361507789
0.645000000000000462,0.333153655435500573
0.646000000000000352,0.332146414740543405
0.647000000000000464,0.331092630979485492
0.648000000000000353,0.329993384803220102
0.649000000000000465,0.328849748599239711
0.650000000000000355,0.327662786290044694
0.651000000000000467,0.326433553141183386
0.652000000000000357,0.325163095578699601
0.653000000000000469,0.323852451015780862
0.654000000000000359,0.322502647688377664
0.655000000000000471,0.321114704499596004
0.656000000000000361,0.319689630872631025
0.657000000000000473,0.318228426612067405
0.658000000000000362,0.316732081773303586
0.659000000000000474,0.315201576539934303
0.660000000000000364,0.313637881108868477
0.661000000000000476,0.312041955582999964
0.662000000000000366,0.310414749871235740
0.663000000000000478,0.308757203595679652
0.664000000000000368,0.307070246005815672
0.665000000000000480,0.305354795899464904
0.666000000000000369,0.303611761550375503
0.667000000000000481,0.301842040642234077
0.668000000000000371,0.300046520208952783
