# CdSeWurtzite2-10_CS-5008-AC
# h[nm],U(h)[kJ/mol]
0.200000000000000011,47.297702898456137177
0.201000000000000012,46.889810596005887078
0.202000000000000013,46.389566350093474512
0.203000000000000014,45.838807902179304676
0.204000000000000015,45.263190775335409910
0.205000000000000016,44.677906741528929047
0.206000000000000016,44.091547917302648329
0.207000000000000017,43.508671722029383488
0.208000000000000018,42.931467029081673559
0.209000000000000019,42.360807624948023431
0.210000000000000020,41.796895397495646307
0.211000000000000021,41.239634774974994968
0.212000000000000022,40.688835977552045620
0.213000000000000023,40.144313203049151184
0.214000000000000024,39.605921623888939109
0.215000000000000024,39.073561533562738646
0.216000000000000025,38.547167293041319169
0.217000000000000026,38.026691515274194444
0.218000000000000027,37.512090176256457141
0.219000000000000028,37.003311313051653997
0.220000000000000029,36.500288124976549398
0.221000000000000030,36.002936247452034024
0.222000000000000031,35.511154444196918689
0.223000000000000032,35.024827769985115822
0.224000000000000032,34.543832260410127333
0.225000000000000033,34.068040317482889634
0.226000000000000034,33.597326121720378467
0.227000000000000035,33.131570575663317868
0.228000000000000036,32.670665448517468121
0.229000000000000037,32.214516535073286718
0.230000000000000038,31.763045759169415305
0.231000000000000039,31.316192241931844364
0.232000000000000040,30.873912419592375755
0.233000000000000040,30.436179337978934711
0.234000000000000041,30.002981274476120177
0.235000000000000042,29.574319847157177321
0.236000000000000043,29.150207768446449563
0.237000000000000044,28.730666390255144904
0.238000000000000045,28.315723171742718023
0.239000000000000046,27.905409181917246286
0.240000000000000047,27.499756728956548102
0.241000000000000048,27.098797187757259763
0.242000000000000048,26.702559077776648166
0.243000000000000049,26.311066425396727908
0.244000000000000050,25.924337429234054042
0.245000000000000051,25.542383433258788017
0.246000000000000052,25.165208201343354233
0.247000000000000053,24.792807477880970168
0.248000000000000054,24.425168812269095753
0.249000000000000055,24.062271620155325280
0.250000000000000056,23.704087451176015122
0.251000000000000056,23.350580431246179103
0.252000000000000057,23.001707847048702860
0.253000000000000058,22.657420840991726152
0.254000000000000059,22.317665186340814643
0.255000000000000060,21.982382114291869613
0.256000000000000061,21.651509167255404975
0.257000000000000062,21.324981055420565212
0.258000000000000063,21.002730496626682566
0.259000000000000064,20.684689022582055884
0.260000000000000064,20.370787737444164378
0.261000000000000065,20.060958017642935403
0.262000000000000066,19.755132144532293381
0.263000000000000067,19.453243863958807225
0.264000000000000068,19.155228869109180323
0.265000000000000069,18.861025205027765139
0.266000000000000070,18.570573594971772735
0.267000000000000071,18.283817690297212266
0.268000000000000071,18.000704246848641787
0.269000000000000072,17.721183231871272312
0.270000000000000073,17.445207866289280219
0.271000000000000074,17.172734607816533270
0.272000000000000075,16.903723080802837586
0.273000000000000076,16.638135958989842322
0.274000000000000077,16.375938807475638015
0.275000000000000078,16.117099890184029221
0.276000000000000079,15.861589949023667145
0.277000000000000079,15.609381960718886617
0.278000000000000080,15.360450877018113403
0.279000000000000081,15.114773353649024301
0.280000000000000082,14.872327473009031351
0.281000000000000083,14.633092465165765006
0.282000000000000084,14.397048431307950977
0.283000000000000085,14.164176073341048223
0.284000000000000086,13.934456432873195908
0.285000000000000087,13.707870642393576333
0.286000000000000087,13.484399691011812905
0.287000000000000088,13.264024206710143261
0.288000000000000089,13.046724256662759700
0.289000000000000090,12.832479166802874815
0.290000000000000091,12.621267361469577395
0.291000000000000092,12.413066223645037311
0.292000000000000093,12.207851975999780336
0.293000000000000094,12.005599582698913252
0.294000000000000095,11.806282671686545882
0.295000000000000095,11.609873476957428551
0.296000000000000096,11.416342800144942515
0.297000000000000097,11.225659990600156846
0.298000000000000098,11.037792943008096103
0.299000000000000099,10.852708111482082032
0.300000000000000100,10.670370538994230714
0.301000000000000101,10.490743900937726352
0.302000000000000102,10.313790561573469517
0.303000000000000103,10.139471642087134029
0.304000000000000103,9.967747098972731479
0.305000000000000104,9.798575811461949669
0.306000000000000105,9.631915676734518428
0.307000000000000106,9.467723711671578002
0.308000000000000107,9.305956159950042661
0.309000000000000108,9.146568603320156754
0.310000000000000109,8.989516075958748687
0.311000000000000110,8.834753180847489062
0.312000000000000111,8.682234207185116404
0.313000000000000111,8.531913247907027653
0.314000000000000112,8.383744316451226197
0.315000000000000113,8.237681461977350850
0.316000000000000114,8.093678882313565026
0.317000000000000115,7.951691033974441325
0.318000000000000116,7.811672738660422333
0.319000000000000117,7.673579285716016329
0.320000000000000118,7.537366530088698724
0.321000000000000119,7.402990985393299361
0.322000000000000119,7.270409911747295340
0.323000000000000120,7.139581398100441234
0.324000000000000121,7.010464438837121115
0.325000000000000122,6.883019004482152425
0.326000000000000123,6.757206106389854305
0.327000000000000124,6.632987855342041605
0.328000000000000125,6.510327514023191320
0.329000000000000126,6.389189543380740410
0.330000000000000127,6.269539642914279121
0.331000000000000127,6.151344784970801172
0.332000000000000128,6.034573243152747679
0.333000000000000129,5.919194614972600910
0.334000000000000130,5.805179838911553425
0.335000000000000131,5.692501206060753383
0.336000000000000132,5.581132366542084000
0.337000000000000133,5.471048330920902814
0.338000000000000134,5.362225466836367360
0.339000000000000135,5.254641491086111671
0.340000000000000135,5.148275457410214528
0.341000000000000136,5.043107740226407287
0.342000000000000137,4.939120014572903727
0.343000000000000138,4.836295232518272869
0.344000000000000139,4.734617596298834385
0.345000000000000140,4.634072528444034056
0.346000000000000141,4.534646639148462555
0.347000000000000142,4.436327691146398244
0.348000000000000143,4.339104562340734716
0.349000000000000143,4.242967206433184479
0.350000000000000144,4.147906611796727816
0.351000000000000145,4.053914758824765485
0.352000000000000146,3.960984575983888867
0.353000000000000147,3.869109894789487747
0.354000000000000148,3.778285403914905860
0.355000000000000149,3.688506602636044907
0.356000000000000150,3.599769753804330286
0.357000000000000151,3.512071836531443836
0.358000000000000151,3.425410498759780431
0.359000000000000152,3.339784009882937887
0.360000000000000153,3.255191213570677977
0.361000000000000154,3.171631480943411852
0.362000000000000155,3.089104664231192121
0.363000000000000156,3.007611051042918593
0.364000000000000157,2.927151319361888770
0.365000000000000158,2.847726493374449497
0.366000000000000159,2.769337900229655869
0.367000000000000159,2.691987127818589176
0.368000000000000160,2.615675983653764192
0.369000000000000161,2.540406454920324020
0.370000000000000162,2.466180669762821687
0.371000000000000163,2.393000859863581908
0.372000000000000164,2.320869324361027886
0.373000000000000165,2.249788395149340481
0.374000000000000166,2.179760403593733020
0.375000000000000167,2.110787648689430362
0.376000000000000167,2.042872366685867469
0.377000000000000168,1.976016702191999430
0.378000000000000169,1.910222680772992732
0.379000000000000170,1.845492183043366596
0.380000000000000171,1.781826920256664781
0.381000000000000172,1.719228411387360822
0.382000000000000173,1.657697961696210198
0.383000000000000174,1.597236642766455272
0.384000000000000175,1.537845273994567163
0.385000000000000175,1.479524405515900032
0.386000000000000176,1.422274302542377633
0.387000000000000177,1.366094931086798692
0.388000000000000178,1.310985945045475720
0.389000000000000179,1.256946674608894643
0.390000000000000180,1.203976115967854144
0.391000000000000181,1.152072922280745315
0.392000000000000182,1.101235395866164479
0.393000000000000183,1.051461481583434665
0.394000000000000183,1.002748761362634244
0.395000000000000184,0.955094449844614446
0.396000000000000185,0.908495391090695770
0.397000000000000186,0.862948056321157120
0.398000000000000187,0.818448542641019294
0.399000000000000188,0.774992572711389549
0.400000000000000189,0.732575495324497949
0.401000000000000190,0.691192286840266568
0.402000000000000191,0.650837553442630390
0.403000000000000191,0.611505534173766963
0.404000000000000192,0.573190104704766168
0.405000000000000193,0.535884781801705068
0.406000000000000194,0.499582728446447077
0.407000000000000195,0.464276759572164022
0.408000000000000196,0.429959348374124750
0.409000000000000197,0.396622633157029281
0.410000000000000198,0.364258424680899362
0.411000000000000199,0.332858213968427630
0.412000000000000199,0.302413180537385806
0.413000000000000200,0.272914201022819713
0.414000000000000201,0.244351858154475604
0.415000000000000202,0.216716450056040261
0.416000000000000203,0.189997999833706438
0.417000000000000204,0.164186265422579580
0.418000000000000205,0.139270749660535043
0.419000000000000206,0.115240710560149368
0.420000000000000207,0.092085171750409284
0.421000000000000207,0.069792933060932955
0.422000000000000208,0.048352581222621781
0.423000000000000209,0.027752500659548728
0.424000000000000210,0.007980884348141037
0.425000000000000211,-0.010974255279307687
0.426000000000000212,-0.029125075408755773
0.427000000000000213,-0.046483891916927901
0.428000000000000214,-0.063063168462128977
0.429000000000000214,-0.078875505612106739
0.430000000000000215,-0.093933630026804146
0.431000000000000216,-0.108250383712787501
0.432000000000000217,-0.121838713365242240
0.433000000000000218,-0.134711659812371598
0.434000000000000219,-0.146882347576259203
0.435000000000000220,-0.158363974563222598
0.436000000000000221,-0.169169801895857896
0.437000000000000222,-0.179313143898126887
0.438000000000000222,-0.188807358243986367
0.439000000000000223,-0.197665836279255880
0.440000000000000224,-0.205901993525651195
0.441000000000000225,-0.213529260375106805
0.442000000000000226,-0.220561072981859368
0.443000000000000227,-0.227010864358950570
0.444000000000000228,-0.232892055685240518
0.445000000000000229,-0.238218047828267693
0.446000000000000230,-0.243002213087694763
0.447000000000000230,-0.247257887163535528
0.448000000000000231,-0.250998361352662069
0.449000000000000232,-0.254236874976598026
0.450000000000000233,-0.256986608043138276
0.451000000000000234,-0.259260674143642456
0.452000000000000235,-0.261072113587601407
0.453000000000000236,-0.262433886775388203
0.454000000000000237,-0.263358867809862118
0.455000000000000238,-0.263859838346924724
0.456000000000000238,-0.263949481684831511
0.457000000000000239,-0.263640377091661438
0.458000000000000240,-0.262944994369976814
0.459000000000000241,-0.261875688657383421
0.460000000000000242,-0.260444695461441444
0.461000000000000243,-0.258664125926978294
0.462000000000000244,-0.256545962333724009
0.463000000000000245,-0.254102053821748497
0.464000000000000246,-0.251344112342181736
0.465000000000000246,-0.248283708830238675
0.466000000000000247,-0.244932269597525398
0.467000000000000248,-0.241301072940363737
0.468000000000000249,-0.237401245960690677
0.469000000000000250,-0.233243761595941901
0.470000000000000251,-0.228839435854191198
0.471000000000000252,-0.224198925250656877
0.472000000000000253,-0.219332724441651250
0.473000000000000254,-0.214251164051797671
0.474000000000000254,-0.208964408690427789
0.475000000000000255,-0.203482455152824926
0.476000000000000256,-0.197815130802032779
0.477000000000000257,-0.191972092126816762
0.478000000000000258,-0.185962823471336886
0.479000000000000259,-0.179796635932066795
0.480000000000000260,-0.173482666417443088
0.481000000000000261,-0.167029876865695842
0.482000000000000262,-0.160447053616330798
0.483000000000000262,-0.153742806930720066
0.484000000000000263,-0.146925570657196664
0.485000000000000264,-0.140003602036174624
0.486000000000000265,-0.132984981640710542
0.487000000000000266,-0.125877613448000469
0.488000000000000267,-0.118689225037353241
0.489000000000000268,-0.111427367910150260
0.490000000000000269,-0.104099417927383198
0.491000000000000270,-0.096712575860398248
0.492000000000000270,-0.089273868050486524
0.493000000000000271,-0.081790147173058686
0.494000000000000272,-0.074268093102158539
0.495000000000000273,-0.066714213871119712
0.496000000000000274,-0.059134846725281298
0.497000000000000275,-0.051536159262662598
0.498000000000000276,-0.043924150658637862
0.499000000000000277,-0.036304652970669135
0.500000000000000222,-0.028683332519219486
0.501000000000000334,-0.021065691341101013
0.502000000000000224,-0.013457068711507026
0.503000000000000336,-0.005862642731097467
0.504000000000000226,0.001712568025410488
0.505000000000000338,0.009263702802677343
0.506000000000000227,0.016786056903557389
0.507000000000000339,0.024275079876686333
0.508000000000000229,0.031726373656045782
0.509000000000000341,0.039135690655735543
0.510000000000000231,0.046498931822971844
0.511000000000000343,0.053812144652418813
0.512000000000000233,0.061071521164715661
0.513000000000000345,0.068273395852108232
0.514000000000000234,0.075414243593902669
0.515000000000000346,0.082490677544525076
0.516000000000000236,0.089499446996716886
0.517000000000000348,0.096437435222469642
0.518000000000000238,0.103301657294116819
0.519000000000000350,0.110089257888014075
0.520000000000000240,0.116797509073079994
0.521000000000000352,0.123423808086431913
0.522000000000000242,0.129965675098302536
0.523000000000000353,0.136420750968289928
0.524000000000000243,0.142786794994976735
0.525000000000000355,0.149061682660828948
0.526000000000000245,0.155243403374266731
0.527000000000000357,0.161330058210696903
0.528000000000000247,0.167319857654223331
0.529000000000000359,0.173211119341718955
0.530000000000000249,0.179002265810828259
0.531000000000000361,0.184691822253444660
0.532000000000000250,0.190278414276125740
0.533000000000000362,0.195760765668840264
0.534000000000000252,0.201137696183401327
0.535000000000000364,0.206408119322846417
0.536000000000000254,0.211571040142993383
0.537000000000000366,0.216625553067354482
0.538000000000000256,0.221570839716473816
0.539000000000000368,0.226406166752785909
0.540000000000000258,0.231130883741945514
0.541000000000000369,0.235744421031631235
0.542000000000000259,0.240246287648652412
0.543000000000000371,0.244636069215259822
0.544000000000000261,0.248913425885427031
0.545000000000000373,0.253078090301849357
0.546000000000000263,0.257129865574376226
0.547000000000000375,0.261068623280546530
0.548000000000000265,0.264894301488787065
0.549000000000000377,0.268606902804930603
0.550000000000000266,0.272206492442502335
0.551000000000000378,0.275693196317329248
0.552000000000000268,0.279067199166897484
0.553000000000000380,0.282328742694874735
0.554000000000000270,0.285478123741183643
0.555000000000000382,0.288515692477989083
0.556000000000000272,0.291441850631866284
0.557000000000000384,0.294257049732493448
0.558000000000000274,0.296961789388052955
0.559000000000000385,0.299556615587613539
0.560000000000000275,0.302042119030647038
0.561000000000000387,0.304418933483854515
0.562000000000000277,0.306687734165444814
0.563000000000000389,0.308849236156950202
0.564000000000000279,0.310904192842684557
0.565000000000000391,0.312853394376892191
0.566000000000000281,0.314697666178627322
0.567000000000000393,0.316437867454373467
0.568000000000000282,0.318074889748393930
0.569000000000000394,0.319609655520798841
0.570000000000000284,0.321043116753266466
0.571000000000000396,0.322376253582358496
0.572000000000000286,0.323610072960336337
0.573000000000000398,0.324745607343407461
0.574000000000000288,0.325783913407246384
0.575000000000000400,0.326726070789675416
0.576000000000000290,0.327573180860370794
0.577000000000000401,0.328326365517404739
0.578000000000000291,0.328986766010479603
0.579000000000000403,0.329555541790641671
0.580000000000000293,0.330033869386292977
0.581000000000000405,0.330422941305287599
0.582000000000000295,0.330723964962882033
0.583000000000000407,0.330938161635323191
0.584000000000000297,0.331066765438838284
0.585000000000000409,0.331111022333743565
0.586000000000000298,0.331072189153475915
0.587000000000000410,0.330951532658211478
0.588000000000000300,0.330750328612864131
0.589000000000000412,0.330469860889145983
0.590000000000000302,0.330111420591428228
0.591000000000000414,0.329676305206079934
0.592000000000000304,0.329165817774042302
0.593000000000000416,0.328581266086291846
0.594000000000000306,0.327923961901904149
0.595000000000000417,0.327195220188420011
0.596000000000000307,0.326396358384197005
0.597000000000000419,0.325528695682415714
0.598000000000000309,0.324593552336445657
0.599000000000000421,0.323592248986252051
0.600000000000000311,0.322526106005491753
0.601000000000000423,0.321396442869013810
0.602000000000000313,0.320204577540408875
0.603000000000000425,0.318951825879306705
0.604000000000000314,0.317639501068065155
0.605000000000000426,0.316268913057554779
0.606000000000000316,0.314841368031695601
0.607000000000000428,0.313358167890408434
0.608000000000000318,0.311820609750674715
0.609000000000000430,0.310229985465365732
0.610000000000000320,0.308587581159513125
0.611000000000000432,0.306894676783697640
0.612000000000000322,0.305152545684244436
0.613000000000000433,0.303362454189869790
0.614000000000000323,0.301525661214497531
0.615000000000000435,0.299643417875886497
0.616000000000000325,0.297716967129788235
0.617000000000000437,0.295747543419286663
0.618000000000000327,0.293736372339016394
0.619000000000000439,0.291684670313962113
0.620000000000000329,0.289593644292511054
0.621000000000000441,0.287464491453444604
0.622000000000000330,0.285298398926605412
0.623000000000000442,0.283096543526872357
0.624000000000000332,0.280860091501223375
0.625000000000000444,0.278590198288508728
0.626000000000000334,0.276288008291709020
0.627000000000000446,0.273954654662346198
0.628000000000000336,0.271591259096782445
0.629000000000000448,0.269198931644102857
0.630000000000000338,0.266778770525334663
0.631000000000000449,0.264331861963675252
0.632000000000000339,0.261859280025520891
0.633000000000000451,0.259362086471956799
0.634000000000000341,0.256841330620505015
0.635000000000000453,0.254298049216806210
0.636000000000000343,0.251733266316042426
0.637000000000000455,0.249147993173778864
0.638000000000000345,0.246543228146021226
0.639000000000000457,0.243919956598216053
0.640000000000000346,0.241279150822955757
0.641000000000000458,0.238621769966148867
0.642000000000000348,0.235948759961412236
0.643000000000000460,0.233261053472454349
0.644000000000000350,0.230559569843232032
0.645000000000000462,0.227845215055621608
0.646000000000000352,0.225118881694427259
0.647000000000000464,0.222381448919465374
0.648000000000000353,0.219633782444538600
0.649000000000000465,0.216876734523069381
0.650000000000000355,0.214111143940207027
0.651000000000000467,0.211337836011179225
0.652000000000000357,0.208557622585705982
0.653000000000000469,0.205771302058273070
0.654000000000000359,0.202979659384071198
0.655000000000000471,0.200183466100416568
0.656000000000000361,0.197383480353461954
0.657000000000000473,0.194580446930018330
0.658000000000000362,0.191775097294308111
0.659000000000000474,0.188968149629478971
0.660000000000000364,0.186160308883701664
0.661000000000000476,0.183352266820683674
0.662000000000000366,0.180544702074445673
0.663000000000000478,0.177738280208175670
0.664000000000000368,0.174933653777039899
0.665000000000000480,0.172131462394751411
0.666000000000000369,0.169332332803790397
0.667000000000000481,0.166536878949089445
0.668000000000000371,0.163745702055074049
0.669000000000000483,0.160959390705887190
