# CdSeWurtzite2-10_CS-6110-AC
# h[nm],U(h)[kJ/mol]
0.200000000000000011,25.604860050602461286
0.201000000000000012,25.237967289424055650
0.202000000000000013,24.966762235679436088
0.203000000000000014,24.726740519145902653
0.204000000000000015,24.483816739106845972
0.205000000000000016,24.223006860526538730
0.206000000000000016,23.940686383715348740
0.207000000000000017,23.639421771272445483
0.208000000000000018,23.324629597434864081
0.209000000000000019,23.002513310506536470
0.210000000000000020,22.678875376093706961
0.211000000000000021,22.358513837944684610
0.212000000000000022,22.044995520496513564
0.213000000000000023,21.740659831209843134
0.214000000000000024,21.446752540576508039
0.215000000000000024,21.163621995854487778
0.216000000000000025,20.890934021645175989
0.217000000000000026,20.627878625491661069
0.218000000000000027,20.373353355270847231
0.219000000000000028,20.126116113198605717
0.220000000000000029,19.884905452293359929
0.221000000000000030,19.648529642353032898
0.222000000000000031,19.415927674182437812
0.223000000000000032,19.186206302608383112
0.224000000000000032,18.958657525694736279
0.225000000000000033,18.732760787635179156
0.226000000000000034,18.508173838832316704
0.227000000000000035,18.284715702642291291
0.228000000000000036,18.062344662009007124
0.229000000000000037,17.841133642087868338
0.230000000000000038,17.621244859158132101
0.231000000000000039,17.402905150191156025
0.232000000000000040,17.186383000398112841
0.233000000000000040,16.971967950474400766
0.234000000000000041,16.759952789409055640
0.235000000000000042,16.550618718349284109
0.236000000000000043,16.344223500364460477
0.237000000000000044,16.140992483657178980
0.238000000000000045,15.941112295338166760
0.239000000000000046,15.744726943091700733
0.240000000000000047,15.551936027154599884
0.241000000000000048,15.362794749855538612
0.242000000000000048,15.177315409992583994
0.243000000000000049,14.995470080689733194
0.244000000000000050,14.817194188810651312
0.245000000000000051,14.642390738827689489
0.246000000000000052,14.470934952072784796
0.247000000000000053,14.302679121807390317
0.248000000000000054,14.137457514208751519
0.249000000000000055,13.975091174178198017
0.250000000000000056,13.815392522111968887
0.251000000000000056,13.658169652942152794
0.252000000000000057,13.503230271548854802
0.253000000000000058,13.350385218904410323
0.254000000000000059,13.199451560992262245
0.255000000000000060,13.050255227690660931
0.256000000000000061,12.902633201531651608
0.257000000000000062,12.756435266692038866
0.258000000000000063,12.611525336926884933
0.259000000000000064,12.467782387617877049
0.260000000000000064,12.325101021884561803
0.261000000000000065,12.183391704003900813
0.262000000000000066,12.042580695402527624
0.263000000000000067,11.902609729419117102
0.264000000000000068,11.763435461058687537
0.265000000000000069,11.625028727241270232
0.266000000000000070,11.487373651732848856
0.267000000000000071,11.350466627169243594
0.268000000000000071,11.214315204461861697
0.269000000000000072,11.078936917509633275
0.270000000000000073,10.944358068622483060
0.271000000000000074,10.810612497462994241
0.272000000000000075,10.677740353696890452
0.273000000000000076,10.545786890961295512
0.274000000000000077,10.414801297253138301
0.275000000000000078,10.284835574441988371
0.276000000000000079,10.155943477345541481
0.277000000000000079,10.028179520690578386
0.278000000000000080,9.901598060329378725
0.279000000000000081,9.776252453297626488
0.280000000000000082,9.652194299688824586
0.281000000000000083,9.529472767880168504
0.282000000000000084,9.408134003373563203
0.283000000000000085,9.288220620406544725
0.284000000000000086,9.169771274534250338
0.285000000000000087,9.052820313576598110
0.286000000000000087,8.937397503655068576
0.287000000000000088,8.823527826500395577
0.288000000000000089,8.711231343786158376
0.289000000000000090,8.600523123922686253
0.290000000000000091,8.491413226520732493
0.291000000000000092,8.383906739594539914
0.292000000000000093,8.278003864509576815
0.293000000000000094,8.173700043681879635
0.294000000000000095,8.070986126094563673
0.295000000000000095,7.969848565804459994
0.296000000000000096,7.870269648760308989
0.297000000000000097,7.772227743436069147
0.298000000000000098,7.675697570992440433
0.299000000000000099,7.580650490910542771
0.300000000000000100,7.487054798288513169
0.301000000000000101,7.394876029249748406
0.302000000000000102,7.304077271176671715
0.303000000000000103,7.214619474751819084
0.304000000000000103,7.126461765056477660
0.305000000000000104,7.039561749242212230
0.306000000000000105,6.953875818550818266
0.307000000000000106,6.869359442711060026
0.308000000000000107,6.785967454984438874
0.309000000000000108,6.703654326366160987
0.310000000000000109,6.622374427669688757
0.311000000000000110,6.542082278433912101
0.312000000000000111,6.462732781789505054
0.313000000000000111,6.384281444606009437
0.314000000000000112,6.306684582412645845
0.315000000000000113,6.229899508744310310
0.316000000000000114,6.153884708709474793
0.317000000000000115,6.078599996709122877
0.318000000000000116,6.004006658355673487
0.319000000000000117,5.930067576748493607
0.320000000000000118,5.856747343358460256
0.321000000000000119,5.784012353858821953
0.322000000000000119,5.711830889313430859
0.323000000000000120,5.640173183197509488
0.324000000000000121,5.569011474780315218
0.325000000000000122,5.498320049444570756
0.326000000000000123,5.428075266554722944
0.327000000000000124,5.358255575515384450
0.328000000000000125,5.288841520683780217
0.329000000000000126,5.219815735815674707
0.330000000000000127,5.151162928734137836
0.331000000000000127,5.082869856914937756
0.332000000000000128,5.014925294681829016
0.333000000000000129,4.947319992700180080
0.334000000000000130,4.880046630448662270
0.335000000000000131,4.813099762336472409
0.336000000000000132,4.746475758118500643
0.337000000000000133,4.680172738242921682
0.338000000000000134,4.614190504745732113
0.339000000000000135,4.548530468284956996
0.340000000000000135,4.483195571883601183
0.341000000000000136,4.418190211925962174
0.342000000000000137,4.353520156926120599
0.343000000000000138,4.289192464561166318
0.344000000000000139,4.225215397434736175
0.345000000000000140,4.161598338009501852
0.346000000000000141,4.098351703119856637
0.347000000000000142,4.035486858449056413
0.348000000000000143,3.973016033328124585
0.349000000000000143,3.910952236187321684
0.350000000000000144,3.849309170964927862
0.351000000000000145,3.788101154752685495
0.352000000000000146,3.727343036932414755
0.353000000000000147,3.667050120034331062
0.354000000000000148,3.607238082524348410
0.355000000000000149,3.547922903705300168
0.356000000000000150,3.489120790895583468
0.357000000000000151,3.430848109028152404
0.358000000000000151,3.373121312793293747
0.359000000000000152,3.315956881429954706
0.360000000000000153,3.259371256252786342
0.361000000000000154,3.203380780985501275
0.362000000000000155,3.148001644955353839
0.363000000000000156,3.093249829188972289
0.364000000000000157,3.039141055435972127
0.365000000000000158,2.985690738133950362
0.366000000000000159,2.932913939316688978
0.367000000000000159,2.880825326456197377
0.368000000000000160,2.829439133219339375
0.369000000000000161,2.778769123110286898
0.370000000000000162,2.728828555961660296
0.371000000000000163,2.679630157229575538
0.372000000000000164,2.631186090040681158
0.373000000000000165,2.583507929933279712
0.374000000000000166,2.536606642228796282
0.375000000000000167,2.490492561965242047
0.376000000000000167,2.445175376319793425
0.377000000000000168,2.400664109444030636
0.378000000000000169,2.356967109632209123
0.379000000000000170,2.314092038740303003
0.380000000000000171,2.272045863771359642
0.381000000000000172,2.230834850541126180
0.382000000000000173,2.190464559336537498
0.383000000000000174,2.150939842478861497
0.384000000000000175,2.112264843702745587
0.385000000000000175,2.074442999262339438
0.386000000000000176,2.037477040675685025
0.387000000000000177,2.001368999019179640
0.388000000000000178,1.966120210684479064
0.389000000000000179,1.931731324511272829
0.390000000000000180,1.898202310210453048
0.391000000000000181,1.865532467993598065
0.392000000000000182,1.833720439326272711
0.393000000000000183,1.802764218724243861
0.394000000000000183,1.772661166513674447
0.395000000000000184,1.743408022478214692
0.396000000000000185,1.715000920318041633
0.397000000000000186,1.687435402848037835
0.398000000000000187,1.660706437864509777
0.399000000000000188,1.634808434612164962
0.400000000000000189,1.609735260785434274
0.401000000000000190,1.585480260000537545
0.402000000000000191,1.562036269677193001
0.403000000000000191,1.539395639271232463
0.404000000000000192,1.517550248801849744
0.405000000000000193,1.496491527619659312
0.406000000000000194,1.476210473364137687
0.407000000000000195,1.456697671061471855
0.408000000000000196,1.437943312316218858
0.409000000000000197,1.419937214552541516
0.410000000000000198,1.402668840263116889
0.411000000000000199,1.386127316226159367
0.412000000000000199,1.370301452653151619
0.413000000000000200,1.355179762232227914
0.414000000000000201,1.340750479034178211
0.415000000000000202,1.327001577250248143
0.416000000000000203,1.313920789732930583
0.417000000000000204,1.301495626312930254
0.418000000000000205,1.289713391867463477
0.419000000000000206,1.278561204116895222
0.420000000000000207,1.268026011128581487
0.421000000000000207,1.258094608508500079
0.422000000000000208,1.248753656263009937
0.423000000000000209,1.239989695314642093
0.424000000000000210,1.231789163657477815
0.425000000000000211,1.224138412139133880
0.426000000000000212,1.217023719857820652
0.427000000000000213,1.210431309164376579
0.428000000000000214,1.204347360260450861
0.429000000000000214,1.198758025385318948
0.430000000000000215,1.193649442584995501
0.431000000000000216,1.189007749058476060
0.432000000000000217,1.184819094077015578
0.433000000000000218,1.181069651473415583
0.434000000000000219,1.177745631699230300
0.435000000000000220,1.174833293448760418
0.436000000000000221,1.172318954849570050
0.437000000000000222,1.170189004220083762
0.438000000000000222,1.168429910395584859
0.439000000000000223,1.167028232624677919
0.440000000000000224,1.165970630038930533
0.441000000000000225,1.165243870699088635
0.442000000000000226,1.164834840221777412
0.443000000000000227,1.164730549991217501
0.444000000000000228,1.164918144960939150
0.445000000000000229,1.165384911050976857
0.446000000000000230,1.166118282146435758
0.447000000000000230,1.167105846703705208
0.448000000000000231,1.168335353970982871
0.449000000000000232,1.169794719830078433
0.450000000000000233,1.171472032266720031
0.451000000000000234,1.173355556476939787
0.452000000000000235,1.175433739617229190
0.453000000000000236,1.177695215206467472
0.454000000000000237,1.180128807187720508
0.455000000000000238,1.182723533658212256
0.456000000000000238,1.185468610275869583
0.457000000000000239,1.188353453350960098
0.458000000000000240,1.191367682631416347
0.459000000000000241,1.194501123790530084
0.460000000000000242,1.197743810625686800
0.461000000000000243,1.201085986976917486
0.462000000000000244,1.204518108373964669
0.463000000000000245,1.208030843420652145
0.464000000000000246,1.211615074925217694
0.465000000000000246,1.215261900785326032
0.466000000000000247,1.218962634636380438
0.467000000000000248,1.222708806271702864
0.468000000000000249,1.226492161843073969
0.469000000000000250,1.230304663850065428
0.470000000000000251,1.234138490926466769
0.471000000000000252,1.237986037432047493
0.472000000000000253,1.241839912857758188
0.473000000000000254,1.245692941052366720
0.474000000000000254,1.249538159278410054
0.475000000000000255,1.253368817105196875
0.476000000000000256,1.257178375146483784
0.477000000000000257,1.260960503650272013
0.478000000000000258,1.264709080948075437
0.479000000000000259,1.268418191770817716
0.480000000000000260,1.272082125438388500
0.481000000000000261,1.275695373929738308
0.482000000000000262,1.279252629840210265
0.483000000000000262,1.282748784232673245
0.484000000000000263,1.286178924388854394
0.485000000000000264,1.289538331467084076
0.486000000000000265,1.292822478072551018
0.487000000000000266,1.296027025745945194
0.488000000000000267,1.299147822376250483
0.489000000000000268,1.302180899543256665
0.490000000000000269,1.305122469795207074
0.491000000000000270,1.307968923866836164
0.492000000000000270,1.310716827842884680
0.493000000000000271,1.313362920272027834
0.494000000000000272,1.315904109235975117
0.495000000000000273,1.318337469378369153
0.496000000000000274,1.320660238897918948
0.497000000000000275,1.322869816510087837
0.498000000000000276,1.324963758381465961
0.499000000000000277,1.326939775040824276
0.500000000000000222,1.328795728270720344
0.501000000000000334,1.330529627983315866
0.502000000000000224,1.332139629083994192
0.503000000000000336,1.333624028326181321
0.504000000000000226,1.334981261160638866
0.505000000000000338,1.336209898582378708
0.506000000000000227,1.337308643978190048
0.507000000000000339,1.338276329977667434
0.508000000000000229,1.339111915310467804
0.509000000000000341,1.339814481672429114
0.510000000000000231,1.340383230603033660
0.511000000000000343,1.340817480376603088
0.512000000000000233,1.341116662909481061
0.513000000000000345,1.341280320685340977
0.514000000000000234,1.341308103700658005
0.515000000000000346,1.341199766432274121
0.516000000000000236,1.340955164828871116
0.517000000000000348,1.340574253328061127
0.518000000000000238,1.340057081900728031
0.519000000000000350,1.339403793124126274
0.520000000000000240,1.338614619285174223
0.521000000000000352,1.337689879515261637
0.522000000000000242,1.336629976957838473
0.523000000000000353,1.335435395969928773
0.524000000000000243,1.334106699358658332
0.525000000000000355,1.332644525653789547
0.526000000000000245,1.331049586417185404
0.527000000000000357,1.329322663590045250
0.528000000000000247,1.327464606878694386
0.529000000000000359,1.325476331179621825
0.530000000000000249,1.323358814044407028
0.531000000000000361,1.321113093185101395
0.532000000000000250,1.318740264020590081
0.533000000000000362,1.316241477264357806
0.534000000000000252,1.313617936554078325
0.535000000000000364,1.310870896123335738
0.536000000000000254,1.308001658515788090
0.537000000000000366,1.305011572341977288
0.538000000000000256,1.301902030078996075
0.539000000000000368,1.298674465913122855
0.540000000000000258,1.295330353625538056
0.541000000000000369,1.291871204521148453
0.542000000000000259,1.288298565400550100
0.543000000000000371,1.284614016575076789
0.544000000000000261,1.280819169924885426
0.545000000000000373,1.276915666999953070
0.546000000000000263,1.272905177163875523
0.547000000000000375,1.268789395780262952
0.548000000000000265,1.264570042441574005
0.549000000000000377,1.260248859240111319
0.550000000000000266,1.255827609080978569
0.551000000000000378,1.251308074036658446
0.552000000000000268,1.246692053742961326
0.553000000000000380,1.241981363835971353
0.554000000000000270,1.237177834429669110
0.555000000000000382,1.232283308633841612
0.556000000000000272,1.227299641111909478
0.557000000000000384,1.222228696678240745
0.558000000000000274,1.217072348934554515
0.559000000000000385,1.211832478944946612
0.560000000000000275,1.206510973949120213
0.561000000000000387,1.201109726113311460
0.562000000000000277,1.195630631318477244
0.563000000000000389,1.190075587985218730
0.564000000000000279,1.184446495934968757
0.565000000000000391,1.178745255286909543
0.566000000000000281,1.172973765390133538
0.567000000000000393,1.167133923790485195
0.568000000000000282,1.161227625231596061
0.569000000000000394,1.155256760689527651
0.570000000000000284,1.149223216440536044
0.571000000000000396,1.143128873161349812
0.572000000000000286,1.136975605061465222
0.573000000000000398,1.130765279046866301
0.574000000000000288,1.124499753914644407
0.575000000000000400,1.118180879577925113
0.576000000000000290,1.111810496320585262
0.577000000000000401,1.105390434081154005
0.578000000000000291,1.098922511765383581
0.579000000000000403,1.092408536586887413
0.580000000000000293,1.085850303435331288
0.581000000000000405,1.079249594271564527
0.582000000000000295,1.072608177549201125
0.583000000000000407,1.065927807662029325
0.584000000000000297,1.059210224416760715
0.585000000000000409,1.052457152530509532
0.586000000000000298,1.045670301152526127
0.587000000000000410,1.038851363409555528
0.588000000000000300,1.032002015974379461
0.589000000000000412,1.025123918656919875
0.590000000000000302,1.018218714017447235
0.591000000000000414,1.011288027001296941
0.592000000000000304,1.004333464594654002
0.593000000000000416,0.997356615500809007
0.594000000000000306,0.990359049836439964
0.595000000000000417,0.983342318847372554
0.596000000000000307,0.976307954643355735
0.597000000000000419,0.969257469951317674
0.598000000000000309,0.962192357886653915
0.599000000000000421,0.955114091742046534
0.600000000000000311,0.948024124793343526
0.601000000000000423,0.940923890122019158
0.602000000000000313,0.933814800453787619
0.603000000000000425,0.926698248012859382
0.604000000000000314,0.919575604391452472
0.605000000000000426,0.912448220434056601
0.606000000000000316,0.905317426136077130
0.607000000000000428,0.898184530556360272
0.608000000000000318,0.891050821743249011
0.609000000000000430,0.883917566673691590
0.610000000000000320,0.876786011205048732
0.611000000000000432,0.869657380039144501
0.612000000000000322,0.862532876698228312
0.613000000000000433,0.855413683512394107
0.614000000000000323,0.848300961618138394
0.615000000000000435,0.841195850967630276
0.616000000000000325,0.834099470348377281
0.617000000000000437,0.827012917412882631
0.618000000000000327,0.819937268717973899
0.619000000000000439,0.812873579773436106
0.620000000000000329,0.805822885099634734
0.621000000000000441,0.798786198293759298
0.622000000000000330,0.791764512104415452
0.623000000000000442,0.784758798514180511
0.624000000000000332,0.777770008829890225
0.625000000000000444,0.770799073780265354
0.626000000000000334,0.763846903620663875
0.627000000000000446,0.756914388244596781
0.628000000000000336,0.750002397301773982
0.629000000000000448,0.743111780322361470
0.630000000000000338,0.736243366847223579
0.631000000000000449,0.729397966563817390
0.632000000000000339,0.722576369447565758
0.633000000000000451,0.715779345908364562
0.634000000000000341,0.709007646942061642
0.635000000000000453,0.702262004286583585
0.636000000000000343,0.695543130582559677
0.637000000000000455,0.688851719538131402
0.638000000000000345,0.682188446097793388
0.639000000000000457,0.675553966614989787
0.640000000000000346,0.668948919028307665
0.641000000000000458,0.662373923041007062
0.642000000000000348,0.655829580303737059
0.643000000000000460,0.649316474600188487
0.644000000000000350,0.642835172035558955
0.645000000000000462,0.636386221227563942
0.646000000000000352,0.629970153499898822
0.647000000000000464,0.623587483077893578
0.648000000000000353,0.617238707286273058
0.649000000000000465,0.610924306748766632
0.650000000000000355,0.604644745589505872
0.651000000000000467,0.598400471635959885
0.652000000000000357,0.592191916623329595
0.653000000000000469,0.586019496400203566
0.654000000000000359,0.579883611135376009
0.655000000000000471,0.573784645525646342
0.656000000000000361,0.567722969004508249
0.657000000000000473,0.561698935951558287
0.658000000000000362,0.555712885902538312
0.659000000000000474,0.549765143759857078
0.660000000000000364,0.543856020003502971
0.661000000000000476,0.537985810902198991
0.662000000000000366,0.532154798724738365
0.663000000000000478,0.526363251951341149
0.664000000000000368,0.520611425484983625
0.665000000000000480,0.514899560862551064
0.666000000000000369,0.509227886465763002
0.667000000000000481,0.503596617731744356
0.668000000000000371,0.498005957363187091
0.669000000000000483,0.492456095537978755
0.670000000000000373,0.486947210118262030
0.671000000000000485,0.481479466858798943
0.672000000000000375,0.476053019614609330
