# CdSeWurtzite2-10_CS-4945-AC
# h[nm],U(h)[kJ/mol]
0.200000000000000011,85.944197683322471448
0.201000000000000012,85.365004753488776146
0.202000000000000013,84.545997992212861050
0.203000000000000014,83.624620652071911309
0.204000000000000015,82.677285471617523172
0.205000000000000016,81.742215540547618957
0.206000000000000016,80.834806396759745439
0.207000000000000017,79.957713813207718090
0.208000000000000018,79.107273467970969705
0.209000000000000019,78.277412605494376407
0.210000000000000020,77.461883088554259302
0.211000000000000021,76.655401665677985079
0.212000000000000022,75.854105220900137851
0.213000000000000023,75.055599736827360857
0.214000000000000024,74.258789142802100969
0.215000000000000024,73.463604631607751116
0.216000000000000025,72.670709237437279171
0.217000000000000026,71.881221086966746725
0.218000000000000027,71.096477738804807700
0.219000000000000028,70.317850424640781171
0.220000000000000029,69.546608592969491269
0.221000000000000030,68.783830319916773988
0.222000000000000031,68.030351722041515927
0.223000000000000032,67.286747645048492927
0.224000000000000032,66.553336017805222014
0.225000000000000033,65.830198941450419170
0.226000000000000034,65.117214549157296233
0.227000000000000035,64.414094738968856291
0.228000000000000036,63.720424933623554864
0.229000000000000037,63.035702988658364632
0.230000000000000038,62.359375217272692282
0.231000000000000039,61.690868213354249860
0.232000000000000040,61.029615732734654898
0.233000000000000040,60.375080345792376590
0.234000000000000041,59.726769915345400364
0.235000000000000042,59.084249197904306072
0.236000000000000043,58.447147029712979815
0.237000000000000044,57.815159656838545743
0.238000000000000045,57.188050814797897203
0.239000000000000046,56.565649170104983057
0.240000000000000047,55.947843714198221221
0.241000000000000048,55.334577658249678223
0.242000000000000048,54.725841322519308108
0.243000000000000049,54.121664451896876358
0.244000000000000050,53.522108324481379782
0.245000000000000051,52.927257955791503719
0.246000000000000052,52.337214639873039346
0.247000000000000053,51.752089011800045171
0.248000000000000054,51.171994764880174955
0.249000000000000055,50.597043110815583589
0.250000000000000056,50.027338032314041527
0.251000000000000056,49.462972345092815374
0.252000000000000057,48.904024559573812780
0.253000000000000058,48.350556511407447147
0.254000000000000059,47.802611713766388846
0.255000000000000060,47.260214372570622743
0.256000000000000061,46.723368997866330687
0.257000000000000062,46.192060539929002516
0.258000000000000063,45.666254976756491146
0.259000000000000064,45.145900279966149071
0.260000000000000064,44.630927688254892871
0.261000000000000065,44.121253221114841381
0.262000000000000066,43.616779370060200449
0.263000000000000067,43.117396909902346636
0.264000000000000068,42.622986778342372816
0.265000000000000069,42.133421978111066153
0.266000000000000070,41.648569461891796095
0.267000000000000071,41.168291966164346718
0.268000000000000071,40.692449765790016158
0.269000000000000072,40.220902326535068028
0.270000000000000073,39.753509837733219001
0.271000000000000074,39.290134611879466320
0.272000000000000075,38.830642342099089603
0.273000000000000076,38.374903212136054265
0.274000000000000077,37.922792856757894242
0.275000000000000078,37.474193173285684111
0.276000000000000079,37.028992987349333532
0.277000000000000079,36.587088577960095392
0.278000000000000080,36.148384068613410136
0.279000000000000081,35.712791692412807265
0.280000000000000082,35.280231940173607086
0.281000000000000083,34.850633601151585594
0.282000000000000084,34.423933706481598449
0.283000000000000085,34.000077385632167193
0.284000000000000086,33.579017646214126103
0.285000000000000087,33.160715087354397212
0.286000000000000087,32.745137556582321281
0.287000000000000088,32.332259759802944643
0.288000000000000089,31.922062833469293963
0.289000000000000090,31.514533887534462053
0.290000000000000091,31.109665527182762901
0.291000000000000092,30.707455360721336746
0.292000000000000093,30.307905500375731833
0.293000000000000094,29.911022062085045548
0.294000000000000095,29.516814669746349153
0.295000000000000095,29.125295968720582351
0.296000000000000096,28.736481152794159044
0.297000000000000097,28.350387508193318098
0.298000000000000098,27.967033977680635815
0.299000000000000099,27.586440747225744019
0.300000000000000100,27.208628857240295673
0.301000000000000101,26.833619839899682802
0.302000000000000102,26.461435383645095953
0.303000000000000103,26.092097025566271640
0.304000000000000103,25.725625872011256945
0.305000000000000104,25.362042347450305613
0.306000000000000105,25.001365971339176042
0.307000000000000106,24.643615162478589298
0.308000000000000107,24.288807070151783307
0.309000000000000108,23.936957431138285557
0.310000000000000109,23.588080451547106975
0.311000000000000110,23.242188712286797170
0.312000000000000111,22.899293096886761845
0.313000000000000111,22.559402740307795909
0.314000000000000112,22.222524997322178564
0.315000000000000113,21.888665429007300389
0.316000000000000114,21.557827805876762284
0.317000000000000115,21.230014126169479027
0.318000000000000116,20.905224647826990747
0.319000000000000117,20.583457932711485938
0.320000000000000118,20.264710901649841901
0.321000000000000119,19.948978898930409542
0.322000000000000119,19.636255764928723266
0.323000000000000120,19.326533915594215074
0.324000000000000121,19.019804427590027984
0.325000000000000122,18.716057127943159344
0.326000000000000123,18.415280687129559567
0.327000000000000124,18.117462714588373984
0.328000000000000125,17.822589855730274877
0.329000000000000126,17.530647889576265186
0.330000000000000127,17.241621826234091230
0.331000000000000127,16.955496003490118540
0.332000000000000128,16.672254181863319644
0.333000000000000129,16.391879637535435421
0.334000000000000130,16.114355252637000859
0.335000000000000131,15.839663602431395262
0.336000000000000132,15.567787039000293703
0.337000000000000133,15.298707771090780838
0.338000000000000134,15.032407939839425026
0.339000000000000135,14.768869690140553175
0.340000000000000135,14.508075237473875063
0.341000000000000136,14.250006930052531828
0.342000000000000137,13.994647306194599068
0.343000000000000138,13.741979146860273886
0.344000000000000139,13.491985523332658659
0.345000000000000140,13.244649840053352108
0.346000000000000141,12.999955872653481848
0.347000000000000142,12.757887801248275039
0.348000000000000143,12.518430239087063427
0.349000000000000143,12.281568256672500183
0.350000000000000144,12.047287401481332481
0.351000000000000145,11.815573713436060999
0.352000000000000146,11.586413736290454679
0.353000000000000147,11.359794525104423002
0.354000000000000148,11.135703649993256903
0.355000000000000149,10.914129196344493522
0.356000000000000150,10.695059761701850576
0.357000000000000151,10.478484449520163224
0.358000000000000151,10.264392859998361374
0.359000000000000152,10.052775078199022829
0.360000000000000153,9.843621659663288170
0.361000000000000154,9.636923613729406313
0.362000000000000155,9.432672384760659057
0.363000000000000156,9.230859831485997091
0.364000000000000157,9.031478204652774622
0.365000000000000158,8.834520123186283769
0.366000000000000159,8.639978549046055889
0.367000000000000159,8.447846760962457680
0.368000000000000160,8.258118327231649403
0.369000000000000161,8.070787077739575821
0.370000000000000162,7.885847075378926263
0.371000000000000163,7.703292587015977411
0.372000000000000164,7.523118054156000767
0.373000000000000165,7.345318063449077783
0.374000000000000166,7.169887317169430396
0.375000000000000167,6.996820603794629889
0.376000000000000167,6.826112768802043540
0.377000000000000168,6.657758685792835252
0.378000000000000169,6.491753228045761936
0.379000000000000170,6.328091240595364653
0.380000000000000171,6.166767512921415673
0.381000000000000172,6.007776752329530900
0.382000000000000173,5.851113558095049072
0.383000000000000174,5.696772396435676455
0.384000000000000175,5.544747576371304554
0.385000000000000175,5.395033226523027636
0.386000000000000176,5.247623272896619007
0.387000000000000177,5.102511417690163142
0.388000000000000178,4.959691119159055361
0.389000000000000179,4.819155572566478085
0.390000000000000180,4.680897692241787311
0.391000000000000181,4.544910094764174069
0.392000000000000182,4.411185083284485664
0.393000000000000183,4.279714632992950740
0.394000000000000183,4.150490377736849368
0.395000000000000184,4.023503597787733810
0.396000000000000185,3.898745208754208935
0.397000000000000186,3.776205751632857321
0.398000000000000187,3.655875383986354255
0.399000000000000188,3.537743872234997866
0.400000000000000189,3.421800585045264853
0.401000000000000190,3.308034487795870948
0.402000000000000191,3.196434138100244571
0.403000000000000191,3.086987682361598040
0.404000000000000192,2.979682853335170911
0.405000000000000193,2.874506968670518692
0.406000000000000194,2.771446930405018882
0.407000000000000195,2.670489225378725795
0.408000000000000196,2.571619926539269407
0.409000000000000197,2.474824695104703487
0.410000000000000198,2.380088783551266296
0.411000000000000199,2.287397039392518927
0.412000000000000199,2.196733909715419930
0.413000000000000200,2.108083446439057873
0.414000000000000201,2.021429312260901945
0.415000000000000202,1.936754787255696275
0.416000000000000203,1.854042776091948452
0.417000000000000204,1.773275815830888336
0.418000000000000205,1.694436084273197363
0.419000000000000206,1.617505408818807222
0.420000000000000207,1.542465275805543268
0.421000000000000207,1.469296840292712236
0.422000000000000208,1.397980936256319584
0.423000000000000209,1.328498087162919061
0.424000000000000210,1.260828516889971329
0.425000000000000211,1.194952160961040066
0.426000000000000212,1.130848678064837021
0.427000000000000213,1.068497461828058270
0.428000000000000214,1.007877652812481539
0.429000000000000214,0.948968150707771629
0.430000000000000215,0.891747626692156237
0.431000000000000216,0.836194535934117078
0.432000000000000217,0.782287130208932702
0.433000000000000218,0.730003470605045890
0.434000000000000219,0.679321440295851398
0.435000000000000220,0.630218757353631753
0.436000000000000221,0.582672987583191415
0.437000000000000222,0.536661557353657392
0.438000000000000222,0.492161766407883672
0.439000000000000223,0.449150800629741886
0.440000000000000224,0.407605744750567933
0.441000000000000225,0.367503594976927417
0.442000000000000226,0.328821271522705627
0.443000000000000227,0.291535631029542830
0.444000000000000228,0.255623478860320885
0.445000000000000229,0.221061581251499273
0.446000000000000230,0.187826677310826723
0.447000000000000230,0.155895490847712065
0.448000000000000231,0.125244742024551409
0.449000000000000232,0.095851158818025792
0.450000000000000233,0.067691488279999185
0.451000000000000234,0.040742507588782798
0.452000000000000235,0.014981034881857192
0.453000000000000236,-0.009616060137776938
0.454000000000000237,-0.033071845829021687
0.455000000000000238,-0.055409318480389456
0.456000000000000238,-0.076651392423956188
0.457000000000000239,-0.096820890400917820
0.458000000000000240,-0.115940534183339466
0.459000000000000241,-0.134032935456233737
0.460000000000000242,-0.151120586963509801
0.461000000000000243,-0.167225853920680345
0.462000000000000244,-0.182370965696875331
0.463000000000000245,-0.196578007767915008
0.464000000000000246,-0.209868913942102692
0.465000000000000246,-0.222265458859519510
0.466000000000000247,-0.233789250765460477
0.467000000000000248,-0.244461724558099863
0.468000000000000249,-0.254304135110074991
0.469000000000000250,-0.263337550863337433
0.470000000000000251,-0.271582847696210494
0.471000000000000252,-0.279060703061270066
0.472000000000000253,-0.285791590392408756
0.473000000000000254,-0.291795773778936229
0.474000000000000254,-0.297093302904584688
0.475000000000000255,-0.301704008248685429
0.476000000000000256,-0.305647496546828268
0.477000000000000257,-0.308943146507850763
0.478000000000000258,-0.311610104783921649
0.479000000000000259,-0.313667282190233709
0.480000000000000260,-0.315133350170607396
0.481000000000000261,-0.316026737505182787
0.482000000000000262,-0.316365627256146364
0.483000000000000262,-0.316167953947425306
0.484000000000000263,-0.315451400973916496
0.485000000000000264,-0.314233398236010320
0.486000000000000265,-0.312531119994746864
0.487000000000000266,-0.310361482943034450
0.488000000000000267,-0.307741144488284379
0.489000000000000268,-0.304686501241593466
0.490000000000000269,-0.301213687708700550
0.491000000000000270,-0.297338575177792663
0.492000000000000270,-0.293076770799227337
0.493000000000000271,-0.288443616852195384
0.494000000000000272,-0.283454190193348776
0.495000000000000273,-0.278123301882307383
0.496000000000000274,-0.272465496979091559
0.497000000000000275,-0.266495054508393614
0.498000000000000276,-0.260225987585678442
0.499000000000000277,-0.253672043700109928
0.500000000000000222,-0.246846705149234069
0.501000000000000334,-0.239763189620538331
0.502000000000000224,-0.232434450914842688
0.503000000000000336,-0.224873179806661494
0.504000000000000226,-0.217091805036640828
0.505000000000000338,-0.209102494431213343
0.506000000000000227,-0.200917156144721248
0.507000000000000339,-0.192547440019236793
0.508000000000000229,-0.184004739057424926
0.509000000000000341,-0.175300191003763761
0.510000000000000231,-0.166444680029686987
0.511000000000000343,-0.157448838517994072
0.512000000000000233,-0.148323048942223756
0.513000000000000345,-0.139077445836556679
0.514000000000000234,-0.129721917852035434
0.515000000000000346,-0.120266109894771850
0.516000000000000236,-0.110719425342142339
0.517000000000000348,-0.101091028332797109
0.518000000000000238,-0.091389846126609678
0.519000000000000350,-0.081624571530552442
0.520000000000000240,-0.071803665386763457
0.521000000000000352,-0.061935359119071352
0.522000000000000242,-0.052027657334261269
0.523000000000000353,-0.042088340474576033
0.524000000000000243,-0.032124967517924333
0.525000000000000355,-0.022144878722447393
0.526000000000000245,-0.012155198412073487
0.527000000000000357,-0.002162837799857509
0.528000000000000247,0.007825502154035302
0.529000000000000359,0.017803327852787109
0.530000000000000249,0.027764350144772899
0.531000000000000361,0.037702481379707373
0.532000000000000250,0.047611832441915046
0.533000000000000362,0.057486709763407348
0.534000000000000252,0.067321612319470689
0.535000000000000364,0.077111228609288096
0.536000000000000254,0.086850433624058684
0.537000000000000366,0.096534285805114362
0.538000000000000256,0.106158023994220141
0.539000000000000368,0.115717064378431184
0.540000000000000258,0.125206997431570044
0.541000000000000369,0.134623584854526968
0.542000000000000259,0.143962756516271551
0.543000000000000371,0.153220607397643260
0.544000000000000261,0.162393394539720459
0.545000000000000373,0.171477533998571297
0.546000000000000263,0.180469597808131599
0.547000000000000375,0.189366310952916089
0.548000000000000265,0.198164548352009862
0.549000000000000377,0.206861331856073610
0.550000000000000266,0.215453827258613506
0.551000000000000378,0.223939341323076968
0.552000000000000268,0.232315318827024248
0.553000000000000380,0.240579339624653527
0.554000000000000270,0.248729115728904798
0.555000000000000382,0.256762488414335466
0.556000000000000272,0.264677425341754702
0.557000000000000384,0.272472017705808367
0.558000000000000274,0.280144477406346848
0.559000000000000385,0.287693134244636717
0.560000000000000275,0.295116433145208745
0.561000000000000387,0.302412931404219432
0.562000000000000277,0.309581295965095038
0.563000000000000389,0.316620300722179282
0.564000000000000279,0.323528823853083070
0.565000000000000391,0.330305845180389190
0.566000000000000281,0.336950443563271029
0.567000000000000393,0.343461794319623870
0.568000000000000282,0.349839166679178581
0.569000000000000394,0.356081921268111334
0.570000000000000284,0.362189507625549356
0.571000000000000396,0.368161461752388841
0.572000000000000286,0.373997403692747143
0.573000000000000398,0.379697035148448048
0.574000000000000288,0.385260137126736790
0.575000000000000400,0.390686567621537806
0.576000000000000290,0.395976259328466917
0.577000000000000401,0.401129217393774884
0.578000000000000291,0.406145517197420092
0.579000000000000403,0.411025302170341444
0.580000000000000293,0.415768781646105090
0.581000000000000405,0.420376228746971337
0.582000000000000295,0.424847978304411289
0.583000000000000407,0.429184424814151533
0.584000000000000297,0.433386020425726826
0.585000000000000409,0.437453272966495110
0.586000000000000298,0.441386744000135445
0.587000000000000410,0.445187046919497231
0.588000000000000300,0.448854845073776931
0.589000000000000412,0.452390849929896199
0.590000000000000302,0.455795819267961200
0.591000000000000414,0.459070555410648506
0.592000000000000304,0.462215903486413615
0.593000000000000416,0.465232749726314398
0.594000000000000306,0.468122019794241062
0.595000000000000417,0.470884677150426867
0.596000000000000307,0.473521721447955346
0.597000000000000419,0.476034186962058292
0.598000000000000309,0.478423141051982637
0.599000000000000421,0.480689682655167538
0.600000000000000311,0.482834940813438362
0.601000000000000423,0.484860073230997723
0.602000000000000313,0.486766264863882914
0.603000000000000425,0.488554726540638473
0.604000000000000314,0.490226693613848075
0.605000000000000426,0.491783424642291966
0.606000000000000316,0.493226200103351886
0.607000000000000428,0.494556321135351862
0.608000000000000318,0.495775108309525148
0.609000000000000430,0.496883900431270231
0.610000000000000320,0.497884053370309332
0.611000000000000432,0.498776938919466672
0.612000000000000322,0.499563943681677280
0.613000000000000433,0.500246467984853060
0.614000000000000323,0.500825924824307767
0.615000000000000435,0.501303738832296397
0.616000000000000325,0.501681345274382684
0.617000000000000437,0.501960189072207075
0.618000000000000327,0.502141723852291277
0.619000000000000439,0.502227411020554126
0.620000000000000329,0.502218718862099567
0.621000000000000441,0.502117121665918154
0.622000000000000330,0.501924098874177993
0.623000000000000442,0.501641134255620624
0.624000000000000332,0.501269715102802493
0.625000000000000444,0.500811331452699848
0.626000000000000334,0.500267475330361977
0.627000000000000446,0.499639640015216213
0.628000000000000336,0.498929319329633525
0.629000000000000448,0.498138006949385648
0.630000000000000338,0.497267195735635714
0.631000000000000449,0.496318377088035667
0.632000000000000339,0.495293040318635136
0.633000000000000451,0.494192672046135706
0.634000000000000341,0.493018755610212467
0.635000000000000453,0.491772770505443269
0.636000000000000343,0.490456191834566901
0.637000000000000455,0.489070489780641104
0.638000000000000345,0.487617129097751068
0.639000000000000457,0.486097568619948184
0.640000000000000346,0.484513260787994671
0.641000000000000458,0.482865651193633671
0.642000000000000348,0.481156178140961011
0.643000000000000460,0.479386272224605392
0.644000000000000350,0.477557355924358773
0.645000000000000462,0.475670843215881323
0.646000000000000352,0.473728139197194420
0.647000000000000464,0.471730639730589707
0.648000000000000353,0.469679731099626241
0.649000000000000465,0.467576789680903215
0.650000000000000355,0.465423181630274629
0.651000000000000467,0.463220262583179498
0.652000000000000357,0.460969377368772193
0.653000000000000469,0.458671859737549259
0.654000000000000359,0.456329032102147536
0.655000000000000471,0.453942205291025469
0.656000000000000361,0.451512678314697158
0.657000000000000473,0.449041738144266567
0.658000000000000362,0.446530659501905458
0.659000000000000474,0.443980704663050396
0.660000000000000364,0.441393123269981202
0.661000000000000476,0.438769152156527287
0.662000000000000366,0.436110015183619748
0.663000000000000478,0.433416923085389372
0.664000000000000368,0.430691073325593810
0.665000000000000480,0.427933649964043705
0.666000000000000369,0.425145823532820710
0.667000000000000481,0.422328750921990181
0.668000000000000371,0.419483575274582854
