# CdSeWurtzite2-10_CS-65596-AC
# h[nm],U(h)[kJ/mol]
0.149999999999999994,222.379050812245679936
0.150999999999999995,221.948571331622758862
0.151999999999999996,220.107515656043403851
0.152999999999999997,217.989591318551390486
0.153999999999999998,216.004994761270694426
0.154999999999999999,214.226769932569965249
0.156000000000000000,212.597884985006828629
0.157000000000000001,211.033460104092313259
0.158000000000000002,209.464290052128092157
0.159000000000000002,207.849538385910420857
0.160000000000000003,206.174877934130620361
0.161000000000000004,204.445132335399165413
0.162000000000000005,202.676097939550629690
0.163000000000000006,200.887666236496670535
0.164000000000000007,199.098944519856843272
0.165000000000000008,197.325342962314493889
0.166000000000000009,195.577274413726797775
0.167000000000000010,193.860019190014384094
0.168000000000000010,192.174330347715283551
0.169000000000000011,190.517429762618291988
0.170000000000000012,188.884134620767895285
0.171000000000000013,187.267938284684987593
0.172000000000000014,185.661940181590807697
0.173000000000000015,184.059573769705082213
0.174000000000000016,182.455120450540050570
0.175000000000000017,180.844022727991784905
0.176000000000000018,179.223024708476316391
0.177000000000000018,177.590174889011279902
0.178000000000000019,175.944727471722046630
0.179000000000000020,174.286976126677416232
0.180000000000000021,172.618049715096873342
0.181000000000000022,170.939694097692068908
0.182000000000000023,169.254058566295100263
0.183000000000000024,167.563500157977529170
0.184000000000000025,165.870414438647657107
0.185000000000000026,164.177097424039430962
0.186000000000000026,162.485640179608168410
0.187000000000000027,160.797855276092548138
0.188000000000000028,159.115232600553838438
0.189000000000000029,157.438920937369886133
0.190000000000000030,155.769731135788958909
0.191000000000000031,154.108156467854456650
0.192000000000000032,152.454405858238629889
0.193000000000000033,150.808445952430730586
0.194000000000000034,149.170048411186286330
0.195000000000000034,147.538839319396345218
0.196000000000000035,145.914348131011422538
0.197000000000000036,144.296054103797899870
0.198000000000000037,142.683428683527381509
0.199000000000000038,141.075972759777897636
0.200000000000000039,139.473248124509098034
0.201000000000000040,137.874902814817176022
0.202000000000000041,136.280690311631246914
0.203000000000000042,134.690482798342969772
0.204000000000000042,133.104278861302901760
0.205000000000000043,131.522206142899392489
0.206000000000000044,129.944519543457829513
0.207000000000000045,128.371595616644128768
0.208000000000000046,126.803923820583491988
0.209000000000000047,125.242095279394135332
0.210000000000000048,123.686789682729525452
0.211000000000000049,122.138760909134546750
0.212000000000000050,120.598821906862809783
0.213000000000000050,119.067829306999371397
0.214000000000000051,117.546668181401670950
0.215000000000000052,116.036237294678841181
0.216000000000000053,114.537435137224974824
0.217000000000000054,113.051146966782965819
0.218000000000000055,111.578233030316624763
0.219000000000000056,110.119518086929090828
0.220000000000000057,108.675782306693832879
0.221000000000000058,107.247753579838374094
0.222000000000000058,105.836101235789286079
0.223000000000000059,104.441431142066988969
0.224000000000000060,103.064282128674562955
0.225000000000000061,101.705123664153319396
0.226000000000000062,100.364354694498047138
0.227000000000000063,99.042303545218729255
0.228000000000000064,97.739228779570765937
0.229000000000000065,96.455320901901345110
0.230000000000000066,95.190704793746149903
0.231000000000000066,93.945442771333205201
0.232000000000000067,92.719538156115802963
0.233000000000000068,91.512939254491627139
0.234000000000000069,90.325543648637136585
0.235000000000000070,89.157202707087023441
0.236000000000000071,88.007726231049517196
0.237000000000000072,86.876887160229301799
0.238000000000000073,85.764426269928492275
0.239000000000000073,84.670056799234075129
0.240000000000000074,83.593468958031365901
0.241000000000000075,82.534334268290081127
0.242000000000000076,81.492309702451976250
0.243000000000000077,80.467041588732811874
0.244000000000000078,79.458169259685959673
0.245000000000000079,78.465328426411844021
0.246000000000000080,77.488154266324272612
0.247000000000000081,76.526284217377138930
0.248000000000000081,75.579360476125060586
0.249000000000000082,74.647032200935584001
0.250000000000000111,73.728957425110067447
0.251000000000000112,72.824804687625288580
0.252000000000000113,71.934254391698800646
0.253000000000000114,71.056999903443099242
0.254000000000000115,70.192748404530249218
0.255000000000000115,69.341221514076863741
0.256000000000000116,68.502155695908200528
0.257000000000000117,67.675302468004829848
0.258000000000000118,66.860428431305265917
0.259000000000000119,66.057315135166561504
0.260000000000000120,65.265758796701177857
0.261000000000000121,64.485569890940013238
0.262000000000000122,63.716572628347137197
0.263000000000000123,62.958604335655863338
0.264000000000000123,62.211514755329936577
0.265000000000000124,61.475165278202226204
0.266000000000000125,60.749428123023747617
0.267000000000000126,60.034185475785740493
0.268000000000000127,59.329328600774282165
0.269000000000000128,58.634756934392747496
0.270000000000000129,57.950377171856679581
0.271000000000000130,57.276102355936018284
0.272000000000000131,56.611850976005236191
0.273000000000000131,55.957546084765638739
0.274000000000000132,55.313114439135858902
0.275000000000000133,54.678485670971305410
0.276000000000000134,54.053591492473785252
0.277000000000000135,53.438364940395501890
0.278000000000000136,52.832739662425069582
0.279000000000000137,52.236649248473668194
0.280000000000000138,51.650026608955002416
0.281000000000000139,51.072803401574333293
0.282000000000000139,50.504909507610747710
0.283000000000000140,49.946272558191125768
0.284000000000000141,49.396817510613672653
0.285000000000000142,48.856466274382555071
0.286000000000000143,48.325137386260600181
0.287000000000000144,47.802745733334205624
0.288000000000000145,47.289202322809543944
0.289000000000000146,46.784414097022001044
0.290000000000000147,46.288283791937786305
0.291000000000000147,45.800709837256945889
0.292000000000000148,45.321586296087204460
0.293000000000000149,44.850802842047372110
0.294000000000000150,44.388244771573837966
0.295000000000000151,43.933793049143289977
0.296000000000000152,43.487324383085606883
0.297000000000000153,43.048711329642415535
0.298000000000000154,42.617822422925897285
0.299000000000000155,42.194522328448009318
0.300000000000000155,41.778672017919660675
0.301000000000000156,41.370128963062576588
0.302000000000000157,40.968747346229321238
0.303000000000000158,40.574378285690684720
0.304000000000000159,40.186870073520843505
0.305000000000000160,39.806068424088479674
0.306000000000000161,39.431816731246343011
0.307000000000000162,39.063956332399776272
0.308000000000000163,38.702326777726355544
0.309000000000000163,38.346766102913505847
0.310000000000000164,37.997111103876747507
0.311000000000000165,37.653197612017564211
0.312000000000000166,37.314860768678173031
0.313000000000000167,36.981935297545717845
0.314000000000000168,36.654255773855020095
0.315000000000000169,36.331656889332670346
0.316000000000000170,36.013973711917664389
0.317000000000000171,35.701041939383628687
0.318000000000000171,35.392698146075147747
0.319000000000000172,35.088780022055019003
0.320000000000000173,34.789126604040532698
0.321000000000000174,34.493578497585623666
0.322000000000000175,34.201978090039290237
0.323000000000000176,33.914169753883101066
0.324000000000000177,33.630000040117081994
0.325000000000000178,33.349317861427991261
0.326000000000000179,33.071974664933996735
0.327000000000000179,32.797824594356058014
0.328000000000000180,32.526724641520154080
0.329000000000000181,32.258534787143005929
0.330000000000000182,31.993118130900519702
0.331000000000000183,31.730341010820335867
0.332000000000000184,31.470073112078988942
0.333000000000000185,31.212187565320238747
0.334000000000000186,30.956561034643602426
0.335000000000000187,30.703073795441827798
0.336000000000000187,30.451609802292733065
0.337000000000000188,30.202056747135021197
0.338000000000000189,29.954306107978471374
0.339000000000000190,29.708253188417860002
0.340000000000000191,29.463797148236171353
0.341000000000000192,29.220841025396747881
0.342000000000000193,28.979291749735391903
0.343000000000000194,28.739060148673594597
0.344000000000000195,28.500060945281795455
0.345000000000000195,28.262212749027362690
0.346000000000000196,28.025438039546646252
0.347000000000000197,27.789663143782952659
0.348000000000000198,27.554818206833989080
0.349000000000000199,27.320837156851808913
0.350000000000000200,27.087657664337690733
0.351000000000000201,26.855221096171447925
0.352000000000000202,26.623472464711756658
0.353000000000000203,26.392360372299396687
0.354000000000000203,26.161836951490521130
0.355000000000000204,25.931857801340846947
0.356000000000000205,25.702381920055209719
0.357000000000000206,25.473371634309767586
0.358000000000000207,25.244792525546298378
0.359000000000000208,25.016613353530232189
0.360000000000000209,24.788805977454735796
0.361000000000000210,24.561345274865423960
0.362000000000000210,24.334209058669816983
0.363000000000000211,24.107377992487464269
0.364000000000000212,23.880835504586283236
0.365000000000000213,23.654567700641337069
0.366000000000000214,23.428563275542536815
0.367000000000000215,23.202813424467851888
0.368000000000000216,22.977311753428750762
0.369000000000000217,22.752054189485125590
0.370000000000000218,22.527038890816793781
0.371000000000000218,22.302266156829510635
0.372000000000000219,22.077738338463433365
0.373000000000000220,21.853459748863013345
0.374000000000000221,21.629436574557793449
0.375000000000000222,21.405676787294758867
0.376000000000000223,21.182190056653539045
0.377000000000000224,20.958987663567860693
0.378000000000000225,20.736082414867432533
0.379000000000000226,20.513488558946733065
0.380000000000000226,20.291221702658852166
0.381000000000000227,20.069298729525012703
0.382000000000000228,19.847737719342738671
0.383000000000000229,19.626557869268463463
0.384000000000000230,19.405779416443333929
0.385000000000000231,19.185423562224123373
0.386000000000000232,18.965512398074988454
0.387000000000000233,18.746068833169108103
0.388000000000000234,18.527116523743700327
0.389000000000000234,18.308679804246057898
0.390000000000000235,18.090783620302509860
0.391000000000000236,17.873453463537590125
0.392000000000000237,17.656715308265084730
0.393000000000000238,17.440595550068497488
0.394000000000000239,17.225120946283503542
0.395000000000000240,17.010318558391141153
0.396000000000000241,16.796215696326264322
0.397000000000000242,16.582839864701899302
0.398000000000000242,16.370218710947000318
0.399000000000000243,16.158379975351298441
0.400000000000000244,15.947351443008063399
0.401000000000000245,15.737160897642581858
0.402000000000000246,15.527836077311695462
0.403000000000000247,15.319404631956427210
0.404000000000000248,15.111894082788513316
0.405000000000000249,14.905331783488431796
0.406000000000000250,14.699744883191186773
0.407000000000000250,14.495160291233849748
0.408000000000000251,14.291604643637452199
0.409000000000000252,14.089104271294184301
0.410000000000000253,13.887685169829344645
0.411000000000000254,13.687372971106507080
0.412000000000000255,13.488192916343018979
0.413000000000000256,13.290169830802017970
0.414000000000000257,13.093328100026397465
0.415000000000000258,12.897691647579136998
0.416000000000000258,12.703283914254210885
0.417000000000000259,12.510127838721151861
0.418000000000000260,12.318245839566568378
0.419000000000000261,12.127659798694873317
0.420000000000000262,11.938391046050952582
0.421000000000000263,11.750460345626597913
0.422000000000000264,11.563887882713116184
0.423000000000000265,11.378693252361824051
0.424000000000000266,11.194895449014872213
0.425000000000000266,11.012512857268330180
0.426000000000000267,10.831563243730048640
0.427000000000000268,10.652063749934862713
0.428000000000000269,10.474030886279997787
0.429000000000000270,10.297480526943932233
0.430000000000000271,10.122427905752205746
0.431000000000000272,9.948887612954179005
0.432000000000000273,9.776873592875272578
0.433000000000000274,9.606399142409461689
0.434000000000000274,9.437476910317489143
0.435000000000000275,9.270118897296859117
0.436000000000000276,9.104336456790075971
0.437000000000000277,8.940140296498224615
0.438000000000000278,8.777540480567779468
0.439000000000000279,8.616546432418918045
0.440000000000000280,8.457166938184348837
0.441000000000000281,8.299410150728530056
0.442000000000000282,8.143283594217340493
0.443000000000000282,7.988794169209612051
0.444000000000000283,7.835948158241953010
0.445000000000000284,7.684751231879562106
0.446000000000000285,7.535208455205953726
0.447000000000000286,7.387324294725656770
0.448000000000000287,7.241102625654294300
0.449000000000000288,7.096546739571401474
0.450000000000000289,6.953659352411941441
0.451000000000000290,6.812442612773208950
0.452000000000000290,6.672898110514464243
0.453000000000000291,6.535026885627462256
0.454000000000000292,6.398829437356671868
0.455000000000000293,6.264305733548480859
0.456000000000000294,6.131455220209835133
0.457000000000000295,6.000276831256813104
0.458000000000000296,5.870768998434923169
0.459000000000000297,5.742929661393064933
0.460000000000000298,5.616756277894035421
0.461000000000000298,5.492245834145060179
0.462000000000000299,5.369394855232296315
0.463000000000000300,5.248199415644127619
0.464000000000000301,5.128655149868382779
0.465000000000000302,5.010757263049571364
0.466000000000000303,4.894500541692403672
0.467000000000000304,4.779879364398657238
0.468000000000000305,4.666887712625194418
0.469000000000000306,4.555519181451010979
0.470000000000000306,4.445766990342120195
0.471000000000000307,4.337623993903508612
0.472000000000000308,4.231082692607843754
0.473000000000000309,4.126135243491017235
0.474000000000000310,4.022773470805516283
0.475000000000000311,3.920988876622396369
0.476000000000000312,3.820772651373940398
0.477000000000000313,3.722115684328536567
0.478000000000000314,3.625008573990832872
0.479000000000000314,3.529441638419670291
0.480000000000000315,3.435404925457363312
0.481000000000000316,3.342888222863963588
0.482000000000000317,3.251881068350690462
0.483000000000000318,3.162372759506941744
0.484000000000000319,3.074352363615785233
0.485000000000000320,2.987808727353186811
0.486000000000000321,2.902730486366353890
0.487000000000000322,2.819106074727211197
0.488000000000000322,2.736923734257150187
0.489000000000000323,2.656171523719476291
0.490000000000000324,2.576837327876375205
0.491000000000000325,2.498908866407494767
0.492000000000000326,2.422373702687383279
0.493000000000000327,2.347219252419419533
0.494000000000000328,2.273432792124132629
0.495000000000000329,2.201001467479858142
0.496000000000000330,2.129912301514250483
0.497000000000000330,2.060152202644876418
0.498000000000000331,1.991707972568068641
0.499000000000000332,1.924566313994591438
0.500000000000000333,1.858713838231469184
0.501000000000000334,1.794137072609366612
0.502000000000000335,1.730822467754841609
0.503000000000000336,1.668756404707395280
0.504000000000000337,1.607925201880927357
0.505000000000000338,1.548315121869836108
0.506000000000000338,1.489912378099740753
0.507000000000000339,1.432703141323171669
0.508000000000000340,1.376673545960765965
0.509000000000000341,1.321809696288261282
0.510000000000000342,1.268097672470311910
0.511000000000000343,1.215523536441551533
0.512000000000000344,1.164073337636090999
0.513000000000000345,1.113733118566305968
0.514000000000000346,1.064488920251933646
0.515000000000000346,1.016326787500877016
0.516000000000000347,0.969232774042777301
0.517000000000000348,0.923192947516787932
0.518000000000000349,0.878193394314953357
0.519000000000000350,0.834220224282659961
0.520000000000000351,0.791259575277803551
0.521000000000000352,0.749297617590054310
0.522000000000000353,0.708320558222229502
0.523000000000000353,0.668314645035116728
0.524000000000000354,0.629266170757808885
0.525000000000000355,0.591161476865166402
0.526000000000000356,0.553986957324388518
0.527000000000000357,0.517729062212450408
0.528000000000000358,0.482374301206401512
0.529000000000000359,0.447909246948416162
0.530000000000000360,0.414320538287655915
0.531000000000000361,0.381594883400789509
0.532000000000000361,0.349719062793279800
0.533000000000000362,0.318679932183454084
0.534000000000000363,0.288464425271400593
0.535000000000000364,0.259059556394633739
0.536000000000000365,0.230452423072805723
0.537000000000000366,0.202630208443279558
0.538000000000000367,0.175580183589897632
0.539000000000000368,0.149289709766728618
0.540000000000000369,0.123746240519157544
0.541000000000000369,0.098937323704127209
0.542000000000000370,0.074850603411872468
0.543000000000000371,0.051473821790925224
0.544000000000000372,0.028794820778691711
0.545000000000000373,0.006801543739483615
0.546000000000000374,-0.014517962987867544
0.547000000000000375,-0.035175548630792190
0.548000000000000376,-0.055182956610210540
0.549000000000000377,-0.074551823252080457
0.550000000000000377,-0.093293676581484783
0.551000000000000378,-0.111419935196978570
0.552000000000000379,-0.128941907223590224
0.553000000000000380,-0.145870789342269963
0.554000000000000381,-0.162217665893958252
0.555000000000000382,-0.177993508056489780
0.556000000000000383,-0.193209173092198705
0.557000000000000384,-0.207875403664680297
0.558000000000000385,-0.222002827222569227
0.559000000000000385,-0.235601955448747541
0.560000000000000386,-0.248683183773119681
0.561000000000000387,-0.261256790947126061
0.562000000000000388,-0.273332938678303161
0.563000000000000389,-0.284921671323257297
0.564000000000000390,-0.296032915637165828
0.565000000000000391,-0.306676480578304989
0.566000000000000392,-0.316862057165872957
0.567000000000000393,-0.326599218389550749
0.568000000000000393,-0.335897419169123079
0.569000000000000394,-0.344765996362653593
0.570000000000000395,-0.353214168821715913
0.571000000000000396,-0.361251037491989224
0.572000000000000397,-0.368885585557988449
0.573000000000000398,-0.376126678630223477
0.574000000000000399,-0.382983064973509646
0.575000000000000400,-0.389463375774928455
0.576000000000000401,-0.395576125450082361
0.577000000000000401,-0.401329711986380844
0.578000000000000402,-0.406732417321811368
0.579000000000000403,-0.411792407758072909
0.580000000000000404,-0.416517734406798013
0.581000000000000405,-0.420916333667399278
0.582000000000000406,-0.424996027735643989
0.583000000000000407,-0.428764525141375585
0.584000000000000408,-0.432229421314568207
0.585000000000000409,-0.435398199178298473
0.586000000000000409,-0.438278229767599448
0.587000000000000410,-0.440876772873191158
0.588000000000000411,-0.443200977708766097
0.589000000000000412,-0.445257883601098470
0.590000000000000413,-0.447054420701638477
0.591000000000000414,-0.448597410718797107
0.592000000000000415,-0.449893567669880923
0.593000000000000416,-0.450949498651651015
0.594000000000000417,-0.451771704628649129
0.595000000000000417,-0.452366581238441701
0.596000000000000418,-0.452740419612637113
0.597000000000000419,-0.452899407213180893
0.598000000000000420,-0.452849628682709504
0.599000000000000421,-0.452597066708444906
0.600000000000000422,-0.452147602898630818
0.601000000000000423,-0.451507018670790239
0.602000000000000424,-0.450680996151093805
0.603000000000000425,-0.449675119084051000
0.604000000000000425,-0.448494873751760004
0.605000000000000426,-0.447145649902110864
0.606000000000000427,-0.445632741685254186
0.607000000000000428,-0.443961348597499916
0.608000000000000429,-0.442136576432348716
0.609000000000000430,-0.440163438237606897
0.610000000000000431,-0.438046855278380609
0.611000000000000432,-0.435791658005070359
0.612000000000000433,-0.433402587025930930
0.613000000000000433,-0.430884294083648089
