# CdSeWurtzite2-10_CS-161778-AC
# h[nm],U(h)[kJ/mol]
0.200000000000000011,75.808123019951324295
0.201000000000000012,75.345309053446015923
0.202000000000000013,74.646489756062720744
0.203000000000000014,73.839336991884650274
0.204000000000000015,72.996284676114072454
0.205000000000000016,72.154897935584102697
0.206000000000000016,71.331644715344097563
0.207000000000000017,70.530996837052811088
0.208000000000000018,69.751268771473206698
0.209000000000000019,68.988214639014273644
0.210000000000000020,68.237115726136124749
0.211000000000000021,67.493877905157177111
0.212000000000000022,66.755502217016541522
0.213000000000000023,66.020178335229701361
0.214000000000000024,65.287168863301772603
0.215000000000000024,64.556594216891539872
0.216000000000000025,63.829186995692239748
0.217000000000000026,63.106056581725759713
0.218000000000000027,62.388485706632046401
0.219000000000000028,61.677768300361080378
0.220000000000000029,60.975090135728365226
0.221000000000000030,60.281449198897078645
0.222000000000000031,59.597610312391395837
0.223000000000000032,58.924087571114100115
0.224000000000000032,58.261148094434318523
0.225000000000000033,57.608831078956903582
0.226000000000000034,56.966976903678073541
0.227000000000000035,56.335261922896030740
0.228000000000000036,55.713235474016869375
0.229000000000000037,55.100356461581235124
0.230000000000000038,54.496027619392165775
0.231000000000000039,53.899626183580934935
0.232000000000000040,53.310530227977324103
0.233000000000000040,52.728140324619332091
0.234000000000000041,52.151896506714102486
0.235000000000000042,51.581290741243890352
0.236000000000000043,51.015875276801999405
0.237000000000000044,50.455267331942181386
0.238000000000000045,49.899150642187947824
0.239000000000000046,49.347274400467192379
0.240000000000000047,48.799450115281430840
0.241000000000000048,48.255546881137981075
0.242000000000000048,47.715485513051568489
0.243000000000000049,47.179231946400634001
0.244000000000000050,46.646790249146164342
0.245000000000000051,46.118195538467119832
0.246000000000000052,45.593507040516307427
0.247000000000000053,45.072801481856565431
0.248000000000000054,44.556166955259719487
0.249000000000000055,44.043697361563708625
0.250000000000000056,43.535487493471649145
0.251000000000000056,43.031628796567694906
0.252000000000000057,42.532205817256482305
0.253000000000000058,42.037293326512383373
0.254000000000000059,41.546954091866446390
0.255000000000000060,41.061237257532013700
0.256000000000000061,40.580177283513378939
0.257000000000000062,40.103793388497699368
0.258000000000000063,39.632089437849039371
0.259000000000000064,39.165054216683202526
0.260000000000000064,38.702662028410244943
0.261000000000000065,38.244873560932553858
0.262000000000000066,37.791636965562133810
0.263000000000000067,37.342889097392443887
0.264000000000000068,36.898556870084647130
0.265000000000000069,36.458558682601179157
0.266000000000000070,36.022805880167325654
0.267000000000000071,35.591204216522072556
0.268000000000000071,35.163655289220052680
0.269000000000000072,34.740057924274644563
0.270000000000000073,34.320309490723204249
0.271000000000000074,33.904307129696327650
0.272000000000000075,33.491948886253609885
0.273000000000000076,33.083134735585943531
0.274000000000000077,32.677767498171803595
0.275000000000000078,32.275753641111506909
0.276000000000000079,31.877003965157506116
0.277000000000000079,31.481434178921592348
0.278000000000000080,31.088965363392105701
0.279000000000000081,30.699524331251893727
0.280000000000000082,30.313043886577940356
0.281000000000000083,29.929462991345690881
0.282000000000000084,29.548726845782709916
0.283000000000000085,29.170786890038936434
0.284000000000000086,28.795600734889500671
0.285000000000000087,28.423132029282282218
0.286000000000000087,28.053350272509351981
0.287000000000000088,27.686230578636394029
0.288000000000000089,27.321753400589358307
0.289000000000000090,26.959904220986736334
0.290000000000000091,26.600673216437392909
0.291000000000000092,26.244054901609523256
0.292000000000000093,25.890047758929920718
0.293000000000000094,25.538653859305572524
0.294000000000000095,25.189878478779721860
0.295000000000000095,24.843729715551653214
0.296000000000000096,24.500218111310825719
0.297000000000000097,24.159356280365795300
0.298000000000000098,23.821158549593629772
0.299000000000000099,23.485640611798899613
0.300000000000000100,23.152819194656249380
0.301000000000000101,22.822711747019393869
0.302000000000000102,22.495336144014380864
0.303000000000000103,22.170710411995536049
0.304000000000000103,21.848852474131870594
0.305000000000000104,21.529779917107497056
0.306000000000000105,21.213509779162961877
0.307000000000000106,20.900058359474776637
0.308000000000000107,20.589441048666344614
0.309000000000000108,20.281672180064838074
0.310000000000000109,19.976764901163051036
0.311000000000000110,19.674731064613503406
0.312000000000000111,19.375581137969980716
0.313000000000000111,19.079324131300619882
0.314000000000000112,18.785967541723554319
0.315000000000000113,18.495517313859327402
0.316000000000000114,18.207977815153864043
0.317000000000000115,17.923351824998526638
0.318000000000000116,17.641640536559627606
0.319000000000000117,17.362843570226509371
0.320000000000000118,17.086958997594372534
0.321000000000000119,16.813983374913362923
0.322000000000000119,16.543911784958787337
0.323000000000000120,16.276737886307202530
0.324000000000000121,16.012453969037736101
0.325000000000000122,15.751051015918239528
0.326000000000000123,15.492518768179143862
0.327000000000000124,15.236845795023967298
0.328000000000000125,14.984019566074147534
0.329000000000000126,14.734026525995725265
0.330000000000000127,14.486852170606272949
0.331000000000000127,14.242481123811822741
0.332000000000000128,14.000897214774841615
0.333000000000000129,13.762083554764860338
0.334000000000000130,13.526022613193529054
0.335000000000000131,13.292696292384386325
0.336000000000000132,13.062086000675407149
0.337000000000000133,12.834172723497806246
0.338000000000000134,12.608937092118521761
0.339000000000000135,12.386359449776422892
0.340000000000000135,12.166419914981318584
0.341000000000000136,11.949098441783513991
0.342000000000000137,11.734374876856836778
0.343000000000000138,11.522229013271710230
0.344000000000000139,11.312640640865701869
0.345000000000000140,11.105589593148392780
0.346000000000000141,10.901055790703658488
0.347000000000000142,10.699019281077365662
0.348000000000000143,10.499460275160739542
0.349000000000000143,10.302359180100092217
0.350000000000000144,10.107696628781864590
0.351000000000000145,9.915453505958696567
0.352000000000000146,9.725610971096347868
0.353000000000000147,9.538150478034616242
0.354000000000000148,9.353053791566367181
0.355000000000000149,9.170303001048248248
0.356000000000000150,8.989880531165095334
0.357000000000000151,8.811769149976488080
0.358000000000000151,8.635951974379418417
0.359000000000000152,8.462412473125240808
0.360000000000000153,8.291134467531941610
0.361000000000000154,8.122102130035221634
0.362000000000000155,7.955299980722367437
0.363000000000000156,7.790712881993544947
0.364000000000000157,7.628326031494369275
0.365000000000000158,7.468124953462094595
0.366000000000000159,7.310095488626295435
0.367000000000000159,7.154223782801651055
0.368000000000000160,7.000496274308121158
0.369000000000000161,6.848899680349765262
0.370000000000000162,6.699420982479684206
0.371000000000000163,6.552047411274612543
0.372000000000000164,6.406766430337661689
0.373000000000000165,6.263565719743547255
0.374000000000000166,6.122433159035030492
0.375000000000000167,5.983356809875023608
0.376000000000000167,5.846324898452825991
0.377000000000000168,5.711325797738186161
0.378000000000000169,5.578348009671451280
0.379000000000000170,5.447380147372757442
0.380000000000000171,5.318410917447726760
0.381000000000000172,5.191429102462318035
0.382000000000000173,5.066423543653742811
0.383000000000000174,4.943383123939680601
0.384000000000000175,4.822296751282733496
0.385000000000000175,4.703153342462396580
0.386000000000000176,4.585941807301696649
0.387000000000000177,4.470651033391492390
0.388000000000000178,4.357269871350447410
0.389000000000000179,4.245787120654792801
0.390000000000000180,4.136191516067508900
0.391000000000000181,4.028471714692669181
0.392000000000000182,3.922616283677039739
0.393000000000000183,3.818613688577003451
0.394000000000000183,3.716452282405780405
0.395000000000000184,3.616120295372381666
0.396000000000000185,3.517605825320695878
0.397000000000000186,3.420896828874254059
0.398000000000000187,3.325981113289253166
0.399000000000000188,3.232846329015959697
0.400000000000000189,3.141479962966353234
0.401000000000000190,3.051869332483110764
0.402000000000000191,2.964001580003588820
0.403000000000000191,2.877863668410040265
0.404000000000000192,2.793442377055699755
0.405000000000000193,2.710724298454823877
0.406000000000000194,2.629695835623085287
0.407000000000000195,2.550343200053607706
0.408000000000000196,2.472652410312536908
0.409000000000000197,2.396609291237050687
0.410000000000000198,2.322199473717718288
0.411000000000000199,2.249408395046406106
0.412000000000000199,2.178221299809870448
0.413000000000000200,2.108623241309074192
0.414000000000000201,2.040599083483208176
0.415000000000000202,1.974133503317357263
0.416000000000000203,1.909210993712296300
0.417000000000000204,1.845815866794564553
0.418000000000000205,1.783932257644984976
0.419000000000000206,1.723544128423555533
0.420000000000000207,1.664635272868704163
0.421000000000000207,1.607189321148878580
0.422000000000000208,1.551189745044689650
0.423000000000000209,1.496619863439748288
0.424000000000000210,1.443462848098828299
0.425000000000000211,1.391701729712071955
0.426000000000000212,1.341319404184266650
0.427000000000000213,1.292298639148714567
0.428000000000000214,1.244622080685414467
0.429000000000000214,1.198272260223833818
0.430000000000000215,1.153231601610904322
0.431000000000000216,1.109482428325421655
0.432000000000000217,1.067006970820429945
0.433000000000000218,1.025787373975828976
0.434000000000000219,0.985805704643796354
0.435000000000000220,0.947043959270297164
0.436000000000000221,0.909484071576480702
0.437000000000000222,0.873107920284298955
0.438000000000000222,0.837897336871275100
0.439000000000000223,0.803834113339955914
0.440000000000000224,0.770900009988106705
0.441000000000000225,0.739076763166382267
0.442000000000000226,0.708346093010680744
0.443000000000000227,0.678689711137106966
0.444000000000000228,0.650089328287877244
0.445000000000000229,0.622526661917273461
0.446000000000000230,0.595983443707204685
0.447000000000000230,0.570441427002453150
0.448000000000000231,0.545882394156393058
0.449000000000000232,0.522288163778439452
0.450000000000000233,0.499640597874890957
0.451000000000000234,0.477921608875693238
0.452000000000000235,0.457113166539742100
0.453000000000000236,0.437197304732271363
0.454000000000000237,0.418156128067998067
0.455000000000000238,0.399971818414468050
0.456000000000000238,0.382626641250346566
0.457000000000000239,0.366102951873873872
0.458000000000000240,0.350383201457236670
0.459000000000000241,0.335449942942955215
0.460000000000000242,0.321285836778778866
0.461000000000000243,0.307873656488112046
0.462000000000000244,0.295196294073184706
0.463000000000000245,0.283236765248819633
0.464000000000000246,0.271978214504672411
0.465000000000000246,0.261403919994505296
0.466000000000000247,0.251497298251139756
0.467000000000000248,0.242241908726170907
0.468000000000000249,0.233621458153796813
0.469000000000000250,0.225619804738403873
0.470000000000000251,0.218220962165848797
0.471000000000000252,0.211409103438619850
0.472000000000000253,0.205168564535264636
0.473000000000000254,0.199483847894874777
0.474000000000000254,0.194339625727390164
0.475000000000000255,0.189720743150963378
0.476000000000000256,0.185612221157599372
0.477000000000000257,0.181999259408642866
0.478000000000000258,0.178867238861765643
0.479000000000000259,0.176201724231298790
0.480000000000000260,0.173988466283936077
0.481000000000000261,0.172213403971933576
0.482000000000000262,0.170862666406127323
0.483000000000000262,0.169922574671109411
0.484000000000000263,0.169379643485196518
0.485000000000000264,0.169220582707692746
0.486000000000000265,0.169432298696273909
0.487000000000000266,0.170001895517294666
0.488000000000000267,0.170916676011850288
0.489000000000000268,0.172164142720647007
0.490000000000000269,0.173731998670657889
0.491000000000000270,0.175608148026665051
0.492000000000000270,0.177780696610848554
0.493000000000000271,0.180237952293574782
0.494000000000000272,0.182968425258602491
0.495000000000000273,0.185960828145991824
0.496000000000000274,0.189204076075934896
0.497000000000000275,0.192687286556834397
0.498000000000000276,0.196399779280912928
0.499000000000000277,0.200331075810656734
0.500000000000000222,0.204470899159448993
0.501000000000000334,0.208809173269625642
0.502000000000000224,0.213336022391334812
0.503000000000000336,0.218041770365433429
0.504000000000000226,0.222916939813725345
0.505000000000000338,0.227952251239804532
0.506000000000000227,0.233138622043712024
0.507000000000000339,0.238467165453649738
0.508000000000000229,0.243929189377899341
0.509000000000000341,0.249516195180161049
0.510000000000000231,0.255219876381319655
0.511000000000000343,0.261032117290844801
0.512000000000000233,0.266944991570779666
0.513000000000000345,0.272950760735364117
0.514000000000000234,0.279041872589198769
0.515000000000000346,0.285210959606962189
0.516000000000000236,0.291450837257434758
0.517000000000000348,0.297754502274734323
0.518000000000000238,0.304115130879470175
0.519000000000000350,0.310526076952603702
0.520000000000000240,0.316980870164641160
0.521000000000000352,0.323473214062753756
0.522000000000000242,0.329996984118456682
0.523000000000000353,0.336546225738289073
0.524000000000000243,0.343115152240014154
0.525000000000000355,0.349698142796655009
0.526000000000000245,0.356289740350800244
0.527000000000000357,0.362884649501406309
0.528000000000000247,0.369477734365361188
0.529000000000000359,0.376064016415966429
0.530000000000000249,0.382638672300471605
0.531000000000000361,0.389197031638708613
0.532000000000000250,0.395734574804865569
0.533000000000000362,0.402246930694299731
0.534000000000000252,0.408729874477354038
0.535000000000000364,0.415179325341957228
0.536000000000000254,0.421591344226806608
0.537000000000000366,0.427962131546919422
0.538000000000000256,0.434288024913136339
0.539000000000000368,0.440565496847288351
0.540000000000000258,0.446791152494521726
0.541000000000000369,0.452961727334382780
0.542000000000000259,0.459074084892027723
0.543000000000000371,0.465125214451065250
0.544000000000000261,0.471112228769344665
0.545000000000000373,0.477032361798994553
0.546000000000000263,0.482882966412010117
0.547000000000000375,0.488661512132617548
0.548000000000000265,0.494365582877484944
0.549000000000000377,0.499992874705057933
0.550000000000000266,0.505541193574934100
0.551000000000000378,0.511008453118433015
0.552000000000000268,0.516392672421286059
0.553000000000000380,0.521691973819380372
0.554000000000000270,0.526904580708487003
0.555000000000000382,0.532028815368843944
0.556000000000000272,0.537063096805329598
0.557000000000000384,0.542005938604129822
0.558000000000000274,0.546855946806505733
0.559000000000000385,0.551611817800467641
0.560000000000000275,0.556272336230953512
0.561000000000000387,0.560836372929156446
0.562000000000000277,0.565302882861611122
0.563000000000000389,0.569670903099555259
0.564000000000000279,0.573939550809123178
0.565000000000000391,0.578108021262850769
0.566000000000000281,0.582175585872934276
0.567000000000000393,0.586141590246693656
0.568000000000000282,0.590005452264612762
0.569000000000000394,0.593766660181342276
0.570000000000000284,0.597424770749989786
0.571000000000000396,0.600979407370023089
0.572000000000000286,0.604430258259028852
0.573000000000000398,0.607777074648660820
0.574000000000000288,0.611019669004927102
0.575000000000000400,0.614157913273069234
0.576000000000000290,0.617191737147215536
0.577000000000000401,0.620121126364951314
0.578000000000000291,0.622946121026971555
0.579000000000000403,0.625666813941895716
0.580000000000000293,0.628283348996381719
0.581000000000000405,0.630795919550597106
0.582000000000000295,0.633204766859088997
0.583000000000000407,0.635510178517127655
0.584000000000000297,0.637712486932527689
0.585000000000000409,0.639812067822929875
0.586000000000000298,0.641809338738582036
0.587000000000000410,0.643704757610530143
0.588000000000000300,0.645498821324228533
0.589000000000000412,0.647192064318490745
0.590000000000000302,0.648785057209705807
0.591000000000000414,0.650278405441222396
0.592000000000000304,0.651672747957848797
0.593000000000000416,0.652968755905318554
0.594000000000000306,0.654167131354591369
0.595000000000000417,0.655268606050911750
0.596000000000000307,0.656273940187422467
0.597000000000000419,0.657183921203208232
0.598000000000000309,0.657999362605604099
0.599000000000000421,0.658721102816606008
0.600000000000000311,0.659350004043168569
0.601000000000000423,0.659886951171246627
0.602000000000000313,0.660332850683346462
0.603000000000000425,0.660688629599414989
0.604000000000000314,0.660955234440813610
0.605000000000000426,0.661133630217215940
0.606000000000000316,0.661224799436158972
0.607000000000000428,0.661229741135033189
0.608000000000000318,0.661149469935290002
0.609000000000000430,0.660985015118618402
0.610000000000000320,0.660737419724835906
0.611000000000000432,0.660407739671265648
0.612000000000000322,0.659997042893348373
0.613000000000000433,0.659506408506198127
0.614000000000000323,0.658936925986905564
0.615000000000000435,0.658289694377256818
0.616000000000000325,0.657565821506670867
0.617000000000000437,0.656766423235041863
0.618000000000000327,0.655892622715222862
0.619000000000000439,0.654945549674919358
0.620000000000000329,0.653926339717674443
0.621000000000000441,0.652836133642677785
0.622000000000000330,0.651676076783176850
0.623000000000000442,0.650447318363122973
0.624000000000000332,0.649151010871876433
0.625000000000000444,0.647788309456606259
0.626000000000000334,0.646360371332169947
0.627000000000000446,0.644868355208165878
0.628000000000000336,0.643313420732893104
0.629000000000000448,0.641696727953920854
0.630000000000000338,0.640019436795037255
0.631000000000000449,0.638282706549235246
0.632000000000000339,0.636487695387540020
0.633000000000000451,0.634635559883320099
0.634000000000000341,0.632727454551889723
0.635000000000000453,0.630764531405051732
0.636000000000000343,0.628747939520388321
0.637000000000000455,0.626678824624972708
0.638000000000000345,0.624558328693249232
0.639000000000000457,0.622387589558838550
0.640000000000000346,0.620167740539967705
0.641000000000000458,0.617899910078301029
0.642000000000000348,0.615585221390867465
0.643000000000000460,0.613224792134862806
0.644000000000000350,0.610819734085067956
0.645000000000000462,0.608371152823591221
0.646000000000000352,0.605880147441733463
0.647000000000000464,0.603347810253698102
0.648000000000000353,0.600775226521887196
0.649000000000000465,0.598163474193575739
0.650000000000000355,0.595513623648692425
0.651000000000000467,0.592826737458475472
0.652000000000000357,0.590103870154764509
0.653000000000000469,0.587346068009699906
0.654000000000000359,0.584554368825591975
0.655000000000000471,0.581729801734738650
0.656000000000000361,0.578873387008944307
0.657000000000000473,0.575986135878552630
0.658000000000000362,0.573069050360729637
0.659000000000000474,0.570123123096817008
0.660000000000000364,0.567149337198514014
0.661000000000000476,0.564148666102692764
0.662000000000000366,0.561122073434628721
0.663000000000000478,0.558070512879433211
0.664000000000000368,0.554994928061514181
0.665000000000000480,0.551896252431817835
0.666000000000000369,0.548775409162699956
0.667000000000000481,0.545633311050197523
0.668000000000000371,0.542470860423535428
0.669000000000000483,0.539288949061656586
0.670000000000000373,0.536088458116599775
