# CdSeWurtzite2-10_HISTIDINEZWITTER
# h[nm],U(h)[kJ/mol]
0.149999999999999994,219.380187564574185899
0.150999999999999995,216.938248552308380113
0.151999999999999996,215.261370798957329953
0.152999999999999997,213.737318023467821604
0.153999999999999998,212.144476257598540769
0.154999999999999999,210.444150690859714814
0.156000000000000000,208.668481319797592732
0.157000000000000001,206.864696959747163874
0.158000000000000002,205.071175187181012234
0.159000000000000002,203.310366083208748478
0.160000000000000003,201.589775934747592601
0.161000000000000004,199.906059131116933258
0.162000000000000005,198.249623438706578327
0.163000000000000006,196.608547911639192307
0.164000000000000007,194.971398477293178075
0.165000000000000008,193.328937117521860500
0.166000000000000009,191.674907953391254978
0.167000000000000010,190.006143875833402035
0.168000000000000010,188.322230655510281849
0.169000000000000011,186.624927894935467521
0.170000000000000012,184.917498616768426700
0.171000000000000013,183.204052936360255899
0.172000000000000014,181.488971472559740050
0.173000000000000015,179.776442776508304178
0.174000000000000016,178.070126061022392605
0.175000000000000017,176.372934902001418322
0.176000000000000018,174.686927994822838173
0.177000000000000018,173.013288075228956586
0.178000000000000019,171.352368474679366273
0.179000000000000020,169.703787394931566723
0.180000000000000021,168.066551996466017727
0.181000000000000022,166.439197149407334564
0.182000000000000023,164.819926724594751022
0.183000000000000024,163.206748286807453496
0.184000000000000025,161.597594790036168888
0.185000000000000026,159.990429253276033705
0.186000000000000026,158.383330366223702868
0.187000000000000027,156.774558533627271117
0.188000000000000028,155.162603039827615703
0.189000000000000029,153.546211843197482949
0.190000000000000030,151.924406044017189288
0.191000000000000031,150.296481361333064797
0.192000000000000032,148.661999055273952308
0.193000000000000033,147.020768687559836962
0.194000000000000034,145.372824965300623035
0.195000000000000034,143.718400696194635202
0.196000000000000035,142.057897625229287542
0.197000000000000036,140.391856646459928015
0.198000000000000037,138.720928605600477113
0.199000000000000038,137.045846642631744317
0.200000000000000039,135.367400777153562785
0.201000000000000040,133.686415218317534936
0.202000000000000041,132.003728688873025021
0.203000000000000042,130.320177890150205258
0.204000000000000042,128.636584101221501442
0.205000000000000043,126.953742799501512195
0.206000000000000044,125.272416109417193297
0.207000000000000045,123.593327827836816368
0.208000000000000046,121.917160736796674314
0.209000000000000047,120.244555892779203532
0.210000000000000048,118.576113574518927862
0.211000000000000049,116.912395575359738586
0.212000000000000050,115.253928539091177186
0.213000000000000050,113.601208057745878932
0.214000000000000051,111.954703274107487232
0.215000000000000052,110.314861758998247865
0.216000000000000053,108.682114462383609066
0.217000000000000054,107.056880566800970200
0.218000000000000055,105.439572100665685639
0.219000000000000056,103.830598196911722653
0.220000000000000057,102.230368908646795489
0.221000000000000058,100.639298517667413080
0.222000000000000058,99.057808293527543242
0.223000000000000059,97.486328680264676905
0.224000000000000060,95.925300904796230839
0.225000000000000061,94.375178015449023405
0.226000000000000062,92.836425371147370811
0.227000000000000063,91.309520611595615946
0.228000000000000064,89.794953146503047492
0.229000000000000065,88.293223207687702825
0.230000000000000066,86.804840511956882665
0.231000000000000066,85.330322585183324691
0.232000000000000067,83.870192799175129039
0.233000000000000068,82.424978172961445466
0.234000000000000069,80.995206989162710443
0.235000000000000070,79.581406274357050279
0.236000000000000071,78.184099189945158059
0.237000000000000072,76.803802377098975285
0.238000000000000073,75.441023296084694039
0.239000000000000073,74.096257596692183256
0.240000000000000074,72.769986552776089184
0.241000000000000075,71.462674590117359230
0.242000000000000076,70.174766933008783099
0.243000000000000077,68.906687391226114414
0.244000000000000078,67.658836305416784285
0.245000000000000079,66.431588665459585741
0.246000000000000080,65.225292413058241436
0.247000000000000081,64.040266936750214199
0.248000000000000081,62.876801764657940907
0.249000000000000082,61.735155457696180292
0.250000000000000111,60.615554703577330997
0.251000000000000112,59.518193609832451330
0.252000000000000113,58.443233192182731273
0.253000000000000114,57.390801052952760131
0.254000000000000115,56.360991242798561984
0.255000000000000115,55.353864297827044538
0.256000000000000116,54.369447443190189517
0.257000000000000117,53.407734953438875891
0.258000000000000118,52.468688659302358701
0.259000000000000119,51.552238590104295213
0.260000000000000120,50.658283740722609423
0.261000000000000121,49.786692951833508403
0.262000000000000122,48.937305892134055796
0.263000000000000123,48.109934131301763216
0.264000000000000123,47.304362292607891050
0.265000000000000124,46.520349274342692070
0.266000000000000125,45.757629529523967449
0.267000000000000126,45.015914393731904397
0.268000000000000127,44.294893451335909162
0.269000000000000128,43.594235930840639526
0.270000000000000129,42.913592120572658928
0.271000000000000130,42.252594796444228109
0.272000000000000131,41.610860654065255915
0.273000000000000131,40.987991738015338683
0.274000000000000132,40.383576861634637112
0.275000000000000133,39.797193011237382620
0.276000000000000134,39.228406729190112401
0.277000000000000135,38.676775470828040682
0.278000000000000136,38.141848930698060371
0.279000000000000137,37.623170334119123481
0.280000000000000138,37.120277690533725945
0.281000000000000139,36.632705005587830271
0.282000000000000139,36.159983449318310988
0.283000000000000140,35.701642478247279655
0.284000000000000141,35.257210909579093538
0.285000000000000142,34.826217946068531717
0.286000000000000143,34.408194150477910966
0.287000000000000144,34.002672368865809460
0.288000000000000145,33.609188602250824829
0.289000000000000146,33.227282826472603006
0.290000000000000147,32.856499760325576176
0.291000000000000147,32.496389582274744612
0.292000000000000148,32.146508596272340696
0.293000000000000149,31.806419847384795219
0.294000000000000150,31.475693688108776769
0.295000000000000151,31.153908296405994349
0.296000000000000152,30.840650146618695970
0.297000000000000153,30.535514434543340911
0.298000000000000154,30.238105458038706530
0.299000000000000155,29.948036954628680206
0.300000000000000155,29.664932397629296901
0.301000000000000156,29.388425252386195297
0.302000000000000157,29.118159194251962418
0.303000000000000158,28.853788289966054492
0.304000000000000159,28.594977144121180856
0.305000000000000160,28.341401012413221849
0.306000000000000161,28.092745883374561799
0.307000000000000162,27.848708530286774732
0.308000000000000163,27.608996534957050528
0.309000000000000163,27.373328285024264517
0.310000000000000164,27.141432946437312523
0.311000000000000165,26.913050412718870774
0.312000000000000166,26.687931232594724662
0.313000000000000167,26.465836517531251104
0.314000000000000168,26.246537830683035253
0.315000000000000169,26.029817058708907496
0.316000000000000170,25.815466267868952599
0.317000000000000171,25.603287545766960420
0.318000000000000171,25.393092830053475950
0.319000000000000172,25.184703725353884352
0.320000000000000173,24.977951309634580213
0.321000000000000174,24.772675931168244290
0.322000000000000175,24.568726997207100737
0.323000000000000176,24.365962755420625285
0.324000000000000177,24.164250069102386931
0.325000000000000178,23.963464187098985292
0.326000000000000179,23.763488509363291712
0.327000000000000179,23.564214348983746561
0.328000000000000180,23.365540691492736158
0.329000000000000181,23.167373952208329513
0.330000000000000182,22.969627732317160707
0.331000000000000183,22.772222574360064584
0.332000000000000184,22.575085717737799484
0.333000000000000185,22.378150854811362791
0.334000000000000186,22.181357888129141998
0.335000000000000187,21.984652689273708859
0.336000000000000187,21.787986859781817373
0.337000000000000188,21.591317494554537859
0.338000000000000189,21.394606948138353175
0.339000000000000190,21.197822604224217713
0.340000000000000191,21.000936648679275009
0.341000000000000192,20.803925846394317745
0.342000000000000193,20.606771322201048235
0.343000000000000194,20.409458346084797142
0.344000000000000195,20.211976122892313157
0.345000000000000195,20.014317586708113339
0.346000000000000196,19.816479200050260090
0.347000000000000197,19.618460758013036127
0.348000000000000198,19.420265197463628226
0.349000000000000199,19.221898411379644500
0.350000000000000200,19.023369068395957981
0.351000000000000201,18.824688437612085323
0.352000000000000202,18.625870218694934977
0.353000000000000203,18.426930377296827146
0.354000000000000203,18.227886985794633290
0.355000000000000204,18.028760069342958161
0.356000000000000205,17.829571457222424868
0.357000000000000206,17.630344639452697919
0.358000000000000207,17.431104628630414766
0.359000000000000208,17.231877826942255894
0.360000000000000209,17.032691898295478694
0.361000000000000210,16.833575645500253870
0.362000000000000210,16.634558892431307697
0.363000000000000211,16.435672371090301880
0.364000000000000212,16.236947613484595365
0.365000000000000213,16.038416848233204348
0.366000000000000214,15.840112901806497447
0.367000000000000215,15.642069104302336768
0.368000000000000216,15.444319199657888575
0.369000000000000217,15.246897260194021584
0.370000000000000218,15.049837605386429118
0.371000000000000218,14.853174724756001979
0.372000000000000219,14.656943204769365963
0.373000000000000220,14.461177659639350424
0.374000000000000221,14.265912665914536106
0.375000000000000222,14.071182700746570404
0.376000000000000223,13.877022083723328905
0.377000000000000224,13.683464922156971966
0.378000000000000225,13.490545059715415732
0.379000000000000226,13.298296028287049708
0.380000000000000226,13.106751002968815456
0.381000000000000227,12.915942760069157202
0.382000000000000228,12.725903638018280617
0.383000000000000229,12.536665501079649943
0.384000000000000230,12.348259705757985927
0.385000000000000231,12.160717069800798029
0.386000000000000232,11.974067843692097313
0.387000000000000233,11.788341684538742982
0.388000000000000234,11.603567632251913011
0.389000000000000234,11.419774087928033168
0.390000000000000235,11.236988794335642794
0.391000000000000236,11.055238818416729174
0.392000000000000237,10.874550535713273902
0.393000000000000238,10.694949616631896916
0.394000000000000239,10.516461014461734536
0.395000000000000240,10.339108955062918938
0.396000000000000241,10.162916928145341089
0.397000000000000242,9.987907680059480597
0.398000000000000242,9.814103208023581715
0.399000000000000243,9.641524755713652084
0.400000000000000244,9.470192810144778761
0.401000000000000245,9.300127099774872619
0.402000000000000246,9.131346593764105180
0.403000000000000247,8.963869502325071181
0.404000000000000248,8.797713278101607415
0.405000000000000249,8.632894618515795315
0.406000000000000250,8.469429469025037349
0.407000000000000250,8.307333027233173794
0.408000000000000251,8.146619747801555178
0.409000000000000252,7.987303348108277135
0.410000000000000253,7.829396814605329880
0.411000000000000254,7.672912409825852542
0.412000000000000255,7.517861679995244906
0.413000000000000256,7.364255463201795138
0.414000000000000257,7.212103898084521347
0.415000000000000258,7.061416432997299708
0.416000000000000258,6.912201835610630951
0.417000000000000259,6.764468202913400674
0.418000000000000260,6.618222971579387881
0.419000000000000261,6.473472928664048887
0.420000000000000262,6.330224222599566630
0.421000000000000263,6.188482374456651058
0.422000000000000264,6.048252289444093321
0.423000000000000265,5.909538268617508194
0.424000000000000266,5.772344020770772133
0.425000000000000266,5.636672674484733747
0.426000000000000267,5.502526790308918336
0.427000000000000268,5.369908373053464246
0.428000000000000269,5.238818884169589296
0.429000000000000270,5.109259254197963784
0.430000000000000271,4.981229895265683716
0.431000000000000272,4.854730713613381710
0.432000000000000273,4.729761122135305307
0.433000000000000274,4.606320052915966912
0.434000000000000274,4.484405969747962573
0.435000000000000275,4.364016880616736316
0.436000000000000276,4.245150350138572115
0.437000000000000277,4.127803511939172942
0.438000000000000278,4.011973080961065641
0.439000000000000279,3.897655365688618367
0.440000000000000280,3.784846280280446340
0.441000000000000281,3.673541356599602459
0.442000000000000282,3.563735756132519583
0.443000000000000282,3.455424281788695762
0.444000000000000283,3.348601389573216291
0.445000000000000284,3.243261200125376664
0.446000000000000285,3.139397510116754386
0.447000000000000286,3.037003803502978716
0.448000000000000287,2.936073262623764446
0.449000000000000288,2.836598779146414451
0.450000000000000289,2.738572964848316804
0.451000000000000290,2.641988162234639947
0.452000000000000290,2.546836454987530640
0.453000000000000291,2.453109678243946767
0.454000000000000292,2.360799428699266400
0.455000000000000293,2.269897074534346082
0.456000000000000294,2.180393765164182263
0.457000000000000295,2.092280440806290720
0.458000000000000296,2.005547841867715952
0.459000000000000297,1.920186518149427313
0.460000000000000298,1.836186837867417765
0.461000000000000298,1.753538996490011215
0.462000000000000299,1.672233025391069550
0.463000000000000300,1.592258800319151568
0.464000000000000301,1.513606049682705512
0.465000000000000302,1.436264362651845428
0.466000000000000303,1.360223197077174317
0.467000000000000304,1.285471887226445453
0.468000000000000305,1.211999651340131212
0.469000000000000306,1.139795599006830473
0.470000000000000306,1.068848738359822637
0.471000000000000307,0.999147983096223991
0.472000000000000308,0.930682159320170066
0.473000000000000309,0.863440012211590391
0.474000000000000310,0.797410212522535966
0.475000000000000311,0.732581362902566702
0.476000000000000312,0.668942004055486095
0.477000000000000313,0.606480620729027198
0.478000000000000314,0.545185647539968232
0.479000000000000314,0.485045474636512153
0.480000000000000315,0.426048453200332300
0.481000000000000316,0.368182900790445466
0.482000000000000317,0.311437106531309627
0.483000000000000318,0.255799336147433165
0.484000000000000319,0.201257836846914173
0.485000000000000320,0.147800842056423631
0.486000000000000321,0.095416576009926368
0.487000000000000322,0.044093258193759380
0.488000000000000322,-0.006180892349421407
0.489000000000000323,-0.055417652855451152
0.490000000000000324,-0.103628792809546913
0.491000000000000325,-0.150826070050780331
0.492000000000000326,-0.197021227007645627
0.493000000000000327,-0.242225987062118786
0.494000000000000328,-0.286452051039674527
0.495000000000000329,-0.329711093822788903
0.496000000000000330,-0.372014761085233459
0.497000000000000330,-0.413374666144956326
0.498000000000000331,-0.453802386932592394
0.499000000000000332,-0.493309463073538457
0.500000000000000333,-0.531907393080923496
0.501000000000000334,-0.569607631656908531
0.502000000000000335,-0.606421587100151038
0.503000000000000336,-0.642360618816729678
0.504000000000000337,-0.677436034932390907
0.505000000000000338,-0.711659090003517236
0.506000000000000338,-0.745040982824644815
0.507000000000000339,-0.777592854330153571
0.508000000000000340,-0.809325785587740598
0.509000000000000341,-0.840250795881672174
0.510000000000000342,-0.870378840883229921
0.511000000000000343,-0.899720810906504354
0.512000000000000344,-0.928287529247067811
0.513000000000000345,-0.956089750601556987
0.514000000000000346,-0.983138159566086856
0.515000000000000346,-1.009443369211220576
0.516000000000000347,-1.035015919731656853
0.517000000000000348,-1.059866277168549864
0.518000000000000349,-1.084004832202443591
0.519000000000000350,-1.107441899014972142
0.520000000000000351,-1.130187714217257167
0.521000000000000352,-1.152252435843398093
0.522000000000000353,-1.173646142406862491
0.523000000000000353,-1.194378832018283321
0.524000000000000354,-1.214460421562712833
0.525000000000000355,-1.233900745934651377
0.526000000000000356,-1.252709557329090506
0.527000000000000357,-1.270896524587008525
0.528000000000000358,-1.288471232593565663
0.529000000000000359,-1.305443181727480084
0.530000000000000360,-1.321821787359899858
0.531000000000000361,-1.337616379401386002
0.532000000000000361,-1.352836201895376345
0.533000000000000362,-1.367490412656694243
0.534000000000000363,-1.381588082953656649
0.535000000000000364,-1.395138197232426824
0.536000000000000365,-1.408149652882100034
0.537000000000000366,-1.420631260039337151
0.538000000000000367,-1.432591741431044063
0.539000000000000368,-1.444039732254043251
0.540000000000000369,-1.454983780090210121
0.541000000000000369,-1.465432344856121061
0.542000000000000370,-1.475393798785729960
0.543000000000000371,-1.484876426445174147
0.544000000000000372,-1.493888424778359703
0.545000000000000373,-1.502437903182354706
0.546000000000000374,-1.510532883611401367
0.547000000000000375,-1.518181300708532078
0.548000000000000376,-1.525391001963787740
0.549000000000000377,-1.532169747897939915
0.550000000000000377,-1.538525212270885234
0.551000000000000378,-1.544464982313515922
0.552000000000000379,-1.549996558982455142
0.553000000000000380,-1.555127357236442798
0.554000000000000381,-1.559864706333646378
0.555000000000000382,-1.564215850149108800
0.556000000000000383,-1.568187947511237024
0.557000000000000384,-1.571788072556848048
0.558000000000000385,-1.575023215103676932
0.559000000000000385,-1.577900281039783081
0.560000000000000386,-1.580426092729038334
0.561000000000000387,-1.582607389431937683
0.562000000000000388,-1.584450827741014312
0.563000000000000389,-1.585962982030328261
0.564000000000000390,-1.587150344918101252
0.565000000000000391,-1.588019327742081099
0.566000000000000392,-1.588576261046852567
0.567000000000000393,-1.588827395082611726
0.568000000000000393,-1.588778900314650855
0.569000000000000394,-1.588436867943120001
0.570000000000000395,-1.587807310432467256
0.571000000000000396,-1.586896162049918235
0.572000000000000397,-1.585709279412651496
0.573000000000000398,-1.584252442042971332
0.574000000000000399,-1.582531352931131341
0.575000000000000400,-1.580551639105209238
0.576000000000000401,-1.578318852207640122
0.577000000000000401,-1.575838469078013615
0.578000000000000402,-1.573115892341511612
0.579000000000000403,-1.570156451002736819
0.580000000000000404,-1.566965401044527528
0.581000000000000405,-1.563547926031166879
0.582000000000000406,-1.559909137715896454
0.583000000000000407,-1.556054076652056972
0.584000000000000408,-1.551987712807779252
0.585000000000000409,-1.547714946183677664
0.586000000000000409,-1.543240607433276512
0.587000000000000410,-1.538569458485939290
0.588000000000000411,-1.533706193171764820
0.589000000000000412,-1.528655437848461585
0.590000000000000413,-1.523421752029577192
0.591000000000000414,-1.518009629014040129
0.592000000000000415,-1.512423496516707377
0.593000000000000416,-1.506667717299515541
0.594000000000000417,-1.500746589803117370
0.595000000000000417,-1.494664348778841578
0.596000000000000418,-1.488425165920409077
0.597000000000000419,-1.482033150495641438
0.598000000000000420,-1.475492349977501894
0.599000000000000421,-1.468806750674625183
0.600000000000000422,-1.461980278360871743
0.601000000000000423,-1.455016798903845832
0.602000000000000424,-1.447920118892196850
0.603000000000000425,-1.440693986261482262
0.604000000000000425,-1.433342090918387601
0.605000000000000426,-1.425868065363245840
0.606000000000000427,-1.418275485310677153
0.607000000000000428,-1.410567870307982474
0.608000000000000429,-1.402748684351616815
0.609000000000000430,-1.394821336501014475
0.610000000000000431,-1.386789181490180933
0.611000000000000432,-1.378655520336538709
0.612000000000000433,-1.370423600947082265
0.613000000000000433,-1.362096618721737595
