# CdSeWurtzite2-10_BSAI10
# h[nm],U(h)[kJ/mol]
0.149999999999999994,187.321580807322646933
0.150999999999999995,186.273059542387898091
0.151999999999999996,185.040490778620863921
0.152999999999999997,183.759269845134241450
0.153999999999999998,182.489496128039974110
0.154999999999999999,181.250818777076347033
0.156000000000000000,180.043120650620409151
0.157000000000000001,178.858276068383077018
0.158000000000000002,177.686412862317411054
0.159000000000000002,176.518895018802055574
0.160000000000000003,175.349432845732650321
0.161000000000000004,174.174193912522980554
0.162000000000000005,172.991440709336870896
0.163000000000000006,171.800998631888376167
0.164000000000000007,170.603718506010011424
0.165000000000000008,169.401012871680904937
0.166000000000000009,168.194495396708163071
0.167000000000000010,166.985725220635998767
0.168000000000000010,165.776044236595168968
0.169000000000000011,164.566489757603591215
0.170000000000000012,163.357764128757338540
0.171000000000000013,162.150244407236101551
0.172000000000000014,160.944017879471942933
0.173000000000000015,159.738932125900390702
0.174000000000000016,158.534651144761710384
0.175000000000000017,157.330711496941432870
0.176000000000000018,156.126574456992415207
0.177000000000000018,154.921671750501189990
0.178000000000000019,153.715443663753006831
0.179000000000000020,152.507369184496354819
0.180000000000000021,151.296988433057492784
0.181000000000000022,150.083918028645513232
0.182000000000000023,148.867860257413497038
0.183000000000000024,147.648607009768767284
0.184000000000000025,146.426039469674151405
0.185000000000000026,145.200124496017281217
0.186000000000000026,143.970908556925991206
0.187000000000000027,142.738509978181753013
0.188000000000000028,141.503110158267816132
0.189000000000000029,140.264944293273174480
0.190000000000000030,139.024292050339880689
0.191000000000000031,137.781468532047739473
0.192000000000000032,136.536815788024171070
0.193000000000000033,135.290695054990663948
0.194000000000000034,134.043479842508361344
0.195000000000000034,132.795549928430034470
0.196000000000000035,131.547286284753170094
0.197000000000000036,130.299066920262021085
0.198000000000000037,129.051263600016397959
0.199000000000000038,127.804239382349038578
0.200000000000000039,126.558346900558646553
0.201000000000000040,125.313927307982794446
0.202000000000000041,124.071309800725003925
0.203000000000000042,122.830811631216718638
0.204000000000000042,121.592738527315802344
0.205000000000000043,120.357385435179736533
0.206000000000000044,119.125037509178653750
0.207000000000000045,117.895971278194195975
0.208000000000000046,116.670455924412593163
0.209000000000000047,115.448754617858725169
0.210000000000000048,114.231125857186768258
0.211000000000000049,113.017824774444648028
0.212000000000000050,111.809104368504250715
0.213000000000000050,110.605216638488059289
0.214000000000000051,109.406413594733635364
0.215000000000000052,108.212948130564512894
0.216000000000000053,107.025074743341477301
0.217000000000000054,105.843050097934522569
0.218000000000000055,104.667133429879712025
0.219000000000000056,103.497586789072627766
0.220000000000000057,102.334675127920732507
0.221000000000000058,101.178666240456905712
0.222000000000000058,100.029830561027864633
0.223000000000000059,98.888440832859117791
0.224000000000000060,97.754771658083754460
0.225000000000000061,96.629098941757746388
0.226000000000000062,95.511699242990545144
0.227000000000000063,94.402849046646224451
0.228000000000000064,93.302823969144981220
0.229000000000000065,92.211897911752103596
0.230000000000000066,91.130342174417179990
0.231000000000000066,90.058424542745797226
0.232000000000000067,88.996408360080238253
0.233000000000000068,87.944551595959623569
0.234000000000000069,86.903105921444605997
0.235000000000000070,85.872315800952435438
0.236000000000000071,84.852417609369666707
0.237000000000000072,83.843638782309952262
0.238000000000000073,82.846197006478448088
0.239000000000000073,81.860299456205780189
0.240000000000000074,80.886142081327989217
0.241000000000000075,79.923908950734954715
0.242000000000000076,78.973771655081421272
0.243000000000000077,78.035888771371929806
0.244000000000000078,77.110405391387658369
0.245000000000000079,76.197452715228735087
0.246000000000000080,75.297147710602104098
0.247000000000000081,74.409592837889746875
0.248000000000000081,73.534875840492773591
0.249000000000000082,72.673069599456539436
0.250000000000000111,71.824232050945440164
0.251000000000000112,70.988406164748241167
0.252000000000000113,70.165619981657414428
0.253000000000000114,69.355886707275530512
0.254000000000000115,68.559204859555592293
0.255000000000000115,67.775558467178996125
0.256000000000000116,67.004917315713527159
0.257000000000000117,66.247237238366324164
0.258000000000000118,65.502460448058727138
0.259000000000000119,64.770515907490306518
0.260000000000000120,64.051319733831434178
0.261000000000000121,63.344775634681603549
0.262000000000000122,62.650775371953329795
0.263000000000000123,61.969199250385031519
0.264000000000000123,61.299916627449604789
0.265000000000000124,60.642786441505357686
0.266000000000000125,59.997657755130489932
0.267000000000000126,59.364370310689174914
0.268000000000000127,58.742755095294270973
0.269000000000000128,58.132634912459288046
0.270000000000000129,57.533824957863316740
0.271000000000000130,56.946133396792085080
0.272000000000000131,56.369361940960359902
0.273000000000000131,55.803306422565029266
0.274000000000000132,55.247757363564517163
0.275000000000000133,54.702500538326603419
0.276000000000000134,54.167317527930755716
0.277000000000000135,53.641986264556820174
0.278000000000000136,53.126281564531197432
0.279000000000000137,52.619975648740776819
0.280000000000000138,52.122838649259350063
0.281000000000000139,51.634639101161248220
0.282000000000000139,51.155144418622761293
0.283000000000000140,50.684121354532550185
0.284000000000000141,50.221336442948199874
0.285000000000000142,49.766556423845898394
0.286000000000000143,49.319548649714754163
0.287000000000000144,48.880081473646711743
0.288000000000000145,48.447924618665453522
0.289000000000000146,48.022849528126101859
0.290000000000000147,47.604629697098417296
0.291000000000000147,47.193040984722983922
0.292000000000000148,46.787861907599740618
0.293000000000000149,46.388873914334276094
0.294000000000000150,45.995861641426039057
0.295000000000000151,45.608613150737753017
0.296000000000000152,45.226920148834892643
0.297000000000000153,44.850578188528885448
0.298000000000000154,44.479386852997237156
0.299000000000000155,44.113149922890464438
0.300000000000000155,43.751675526866009136
0.301000000000000156,43.394776276017793748
0.302000000000000157,43.042269382692630586
0.303000000000000158,42.693976764205459062
0.304000000000000159,42.349725131981443838
0.305000000000000160,42.009346066666573449
0.306000000000000161,41.672676079758588230
0.307000000000000162,41.339556662317598068
0.308000000000000163,41.009834321321065431
0.309000000000000163,40.683360604229768853
0.310000000000000164,40.359992112332406577
0.311000000000000165,40.039590503434041580
0.312000000000000166,39.722022484450775437
0.313000000000000167,39.407159794467077063
0.314000000000000168,39.094879178805825859
0.315000000000000169,38.785062354652730221
0.316000000000000170,38.477595968767218437
0.317000000000000171,38.172371547801645875
0.318000000000000171,37.869285441738618658
0.319000000000000172,37.568238760944346666
0.320000000000000173,37.269137307322289132
0.321000000000000174,36.971891500037983747
0.322000000000000175,36.676416296271113993
0.323000000000000176,36.382631107436871787
0.324000000000000177,36.090459711302607104
0.325000000000000178,35.799830160411104885
0.326000000000000179,35.510674687205984412
0.327000000000000179,35.222929606238992051
0.328000000000000180,34.936535213823226798
0.329000000000000181,34.651435685480677762
0.330000000000000182,34.367578971516664410
0.331000000000000183,34.084916691038216641
0.332000000000000184,33.803404024717977450
0.333000000000000185,33.522999606590062172
0.334000000000000186,33.243665415149131093
0.335000000000000187,32.965366664009479791
0.336000000000000187,32.688071692365888055
0.337000000000000188,32.411751855484723706
0.338000000000000189,32.136381415439046805
0.339000000000000190,31.861937432288677030
0.340000000000000191,31.588399655892608564
0.341000000000000192,31.315750418529052723
0.342000000000000193,31.043974528485215103
0.343000000000000194,30.773059164767772700
0.344000000000000195,30.502993773073249884
0.345000000000000195,30.233769963146073678
0.346000000000000196,29.965381407641967115
0.347000000000000197,29.697823742603560504
0.348000000000000198,29.431094469645664446
0.349000000000000199,29.165192859937867809
0.350000000000000200,28.900119860063181676
0.351000000000000201,28.635877999823161844
0.352000000000000202,28.372471302051007314
0.353000000000000203,28.109905194487119218
0.354000000000000203,27.848186423763376496
0.355000000000000204,27.587322971536035965
0.356000000000000205,27.327323972799899110
0.357000000000000206,27.068199636410259501
0.358000000000000207,26.809961167833318285
0.359000000000000208,26.552620694139942970
0.360000000000000209,26.296191191252169972
0.361000000000000210,26.040686413447410530
0.362000000000000210,25.786120825119930089
0.363000000000000211,25.532509534795508443
0.364000000000000212,25.279868231390608457
0.365000000000000213,25.028213122703778737
0.366000000000000214,24.777560876123626343
0.367000000000000215,24.527928561534118046
0.368000000000000216,24.279333596395275663
0.369000000000000217,24.031793692974382282
0.370000000000000218,23.785326807700421625
0.371000000000000218,23.539951092611893557
0.372000000000000219,23.295684848866503813
0.373000000000000220,23.052546482278586382
0.374000000000000221,22.810554460849452596
0.375000000000000222,22.569727274253295946
0.376000000000000223,22.330083395240382771
0.377000000000000224,22.091641242918363730
0.378000000000000225,21.854419147870807194
0.379000000000000226,21.618435319071799938
0.380000000000000226,21.383707812554320071
0.381000000000000227,21.150254501789643058
0.382000000000000228,20.918093049734444833
0.383000000000000229,20.687240882502017314
0.384000000000000230,20.457715164613588854
0.385000000000000231,20.229532775785525445
0.386000000000000232,20.002710289208582850
0.387000000000000233,19.777263951274441922
0.388000000000000234,19.553209662706073857
0.389000000000000234,19.330562961047554893
0.390000000000000235,19.109339004469838130
0.391000000000000236,18.889552556849178444
0.392000000000000237,18.671217974075041468
0.393000000000000238,18.454349191545102116
0.394000000000000239,18.238959712805222324
0.395000000000000240,18.025062599292631660
0.396000000000000241,17.812670461141717482
0.397000000000000242,17.601795449011596872
0.398000000000000242,17.392449246896045878
0.399000000000000243,17.184643065876667123
0.400000000000000244,16.978387638780656488
0.401000000000000245,16.773693215705858250
0.402000000000000246,16.570569560376156915
0.403000000000000247,16.369025947290730016
0.404000000000000248,16.169071159632320445
0.405000000000000249,15.970713487899512728
0.406000000000000250,15.773960729229603572
0.407000000000000250,15.578820187378870088
0.408000000000000251,15.385298673328247077
0.409000000000000252,15.193402506483163705
0.410000000000000253,15.003137516436845900
0.411000000000000254,14.814509045267708842
0.412000000000000255,14.627521950341938251
0.413000000000000256,14.442180607593115838
0.414000000000000257,14.258488915252041096
0.415000000000000258,14.076450298000002803
0.416000000000000258,13.896067711520412757
0.417000000000000259,13.717343647423641428
0.418000000000000260,13.540280138521492148
0.419000000000000261,13.364878764427814417
0.420000000000000262,13.191140657463231278
0.421000000000000263,13.019066508842083607
0.422000000000000264,12.848656575120973145
0.423000000000000265,12.679910684888600514
0.424000000000000266,12.512828245677670935
0.425000000000000266,12.347408251080196351
0.426000000000000267,12.183649288048131965
0.427000000000000268,12.021549544362198247
0.428000000000000269,11.861106816252322105
0.429000000000000270,11.702318516153663808
0.430000000000000271,11.545181680583088024
0.431000000000000272,11.389692978121345845
0.432000000000000273,11.235848717487016302
0.433000000000000274,11.083644855688790543
0.434000000000000274,10.933077006243198781
0.435000000000000275,10.784140447445675903
0.436000000000000276,10.636830130683154749
0.437000000000000277,10.491140688777054635
0.438000000000000278,10.347066444346149083
0.439000000000000279,10.204601418179120031
0.440000000000000280,10.063739337607209734
0.441000000000000281,9.924473644867893185
0.442000000000000282,9.786797505450916645
0.443000000000000282,9.650703816418486625
0.444000000000000283,9.516185214691883942
0.445000000000000284,9.383234085297260663
0.446000000000000285,9.251842569563523355
0.447000000000000286,9.122002573266039249
0.448000000000000287,8.993705774709860989
0.449000000000000288,8.866943632746856707
0.450000000000000289,8.741707394721283109
0.451000000000000290,8.617988104338840216
0.452000000000000290,8.495776609454432915
0.453000000000000291,8.375063569774340522
0.454000000000000292,8.255839464468740729
0.455000000000000293,8.138094599690717246
0.456000000000000294,8.021819115998463090
0.457000000000000295,7.907002995677271606
0.458000000000000296,7.793636069958624901
0.459000000000000297,7.681708026133485134
0.460000000000000298,7.571208414557520250
0.461000000000000298,7.462126655546008180
0.462000000000000299,7.354452046156457534
0.463000000000000300,7.248173766857211930
0.464000000000000301,7.143280888080471236
0.465000000000000302,7.039762376658432963
0.466000000000000303,6.937607102141354787
0.467000000000000304,6.836803842996514113
0.468000000000000305,6.737341292687399452
0.469000000000000306,6.639208065632372424
0.470000000000000306,6.542392703042312796
0.471000000000000307,6.446883678636995185
0.472000000000000308,6.352669404239950524
0.473000000000000309,6.259738235251674610
0.474000000000000310,6.168078476001410237
0.475000000000000311,6.077678384977473591
0.476000000000000312,5.988526179936717320
0.477000000000000313,5.900610042893123186
0.478000000000000314,5.813918124986448888
0.479000000000000314,5.728438551231241682
0.480000000000000315,5.644159425147014630
0.481000000000000316,5.561068833270367939
0.482000000000000317,5.479154849549882300
0.483000000000000318,5.398405539624709704
0.484000000000000319,5.318808964987844945
0.485000000000000320,5.240353187035224458
0.486000000000000321,5.163026271001653456
0.487000000000000322,5.086816289784790612
0.488000000000000322,5.011711327658479931
0.489000000000000323,4.937699483876601292
0.490000000000000324,4.864768876168827028
0.491000000000000325,4.792907644129670963
0.492000000000000326,4.722103952502134661
0.493000000000000327,4.652345994357469650
0.494000000000000328,4.583621994172516700
0.495000000000000329,4.515920210806037005
0.496000000000000330,4.449228940375689945
0.497000000000000330,4.383536519036958623
0.498000000000000331,4.318831325665936305
0.499000000000000332,4.255101784447187008
0.500000000000000333,4.192336367368458383
0.501000000000000334,4.130523596623881133
0.502000000000000335,4.069652046927093814
0.503000000000000336,4.009710347736137770
0.504000000000000337,3.950687185391482448
0.505000000000000338,3.892571305169072016
0.506000000000000338,3.835351513249833033
0.507000000000000339,3.779016678607324486
0.508000000000000340,3.723555734815249707
0.509000000000000341,3.668957681776260582
0.510000000000000342,3.615211587373919677
0.511000000000000343,3.562306589049174299
0.512000000000000344,3.510231895303201899
0.513000000000000345,3.458976787128041686
0.514000000000000346,3.408530619366656911
0.515000000000000346,3.358882822004075841
0.516000000000000347,3.310022901391096894
0.517000000000000348,3.261940441402136237
0.518000000000000349,3.214625104528784139
0.519000000000000350,3.168066632910564895
0.520000000000000351,3.122254849304503921
0.521000000000000352,3.077179657994824513
0.522000000000000353,3.032831045644488466
0.523000000000000353,2.989199082089845305
0.524000000000000354,2.946273921079968439
0.525000000000000355,2.904045800962044233
0.526000000000000356,2.862505045314291063
0.527000000000000357,2.821642063527743716
0.528000000000000358,2.781447351338291796
0.529000000000000359,2.741911491310353277
0.530000000000000360,2.703025153273566517
0.531000000000000361,2.664779094713687346
0.532000000000000361,2.627164161119119878
0.533000000000000362,2.590171286284293828
0.534000000000000363,2.553791492571208632
0.535000000000000364,2.518015891130248818
0.536000000000000365,2.482835682081696582
0.537000000000000366,2.448242154658911929
0.538000000000000367,2.414226687314582342
0.539000000000000368,2.380780747790971041
0.540000000000000369,2.347895893155505398
0.541000000000000369,2.315563769802630567
0.542000000000000370,2.283776113423249043
0.543000000000000371,2.252524748942553945
0.544000000000000372,2.221801590427535444
0.545000000000000373,2.191598640965054301
0.546000000000000374,2.161907992511539867
0.547000000000000375,2.132721825715337971
0.548000000000000376,2.104032409712589313
0.549000000000000377,2.075832101897717052
0.550000000000000377,2.048113347669263895
0.551000000000000378,2.020868680152255958
0.552000000000000379,1.994090719897688491
0.553000000000000380,1.967772174560240783
0.554000000000000381,1.941905838554976116
0.555000000000000382,1.916484592693790789
0.556000000000000383,1.891501403802610115
0.557000000000000384,1.866949324319900017
0.558000000000000385,1.842821491877498108
0.559000000000000385,1.819111128864338012
0.560000000000000386,1.795811541973881376
0.561000000000000387,1.772916121736021866
0.562000000000000388,1.750418342034120611
0.563000000000000389,1.728311759607801701
0.564000000000000390,1.706590013542310658
0.565000000000000391,1.685246824744982774
0.566000000000000392,1.664275995409518760
0.567000000000000393,1.643671408468610595
0.568000000000000393,1.623427027035645454
0.569000000000000394,1.603536893835962207
0.570000000000000395,1.583995130628263137
0.571000000000000396,1.564795937616813237
0.572000000000000397,1.545933592854822791
0.573000000000000398,1.527402451639702452
0.574000000000000399,1.509196945900567410
0.575000000000000400,1.491311583578589950
0.576000000000000401,1.473740948000637374
0.577000000000000401,1.456479697246626070
0.578000000000000402,1.439522563511150377
0.579000000000000403,1.422864352459771498
0.580000000000000404,1.406499942580315299
0.581000000000000405,1.390424284529822696
0.582000000000000406,1.374632400477261651
0.583000000000000407,1.359119383442676909
0.584000000000000408,1.343880396632938679
0.585000000000000409,1.328910672774581636
0.586000000000000409,1.314205513444096640
0.587000000000000410,1.299760288395880981
0.588000000000000411,1.285570434888425151
0.589000000000000412,1.271631457008765453
0.590000000000000413,1.257938924995794627
0.591000000000000414,1.244488474562555291
0.592000000000000415,1.231275806217834390
0.593000000000000416,1.218296684587426792
0.594000000000000417,1.205546937735263224
0.595000000000000417,1.193022456484630345
0.596000000000000418,1.180719193739898643
0.597000000000000419,1.168633163808782793
0.598000000000000420,1.156760441725589672
0.599000000000000421,1.145097162575482219
0.600000000000000422,1.133639520820125757
0.601000000000000423,1.122383769624906824
0.602000000000000424,1.111326220187801583
0.603000000000000425,1.100463241070242626
0.604000000000000425,1.089791257530133395
0.605000000000000426,1.079306750857115693
0.606000000000000427,1.069006257710311658
0.607000000000000428,1.058886369458804655
0.608000000000000429,1.048943731524751843
0.609000000000000430,1.039175042729641341
0.610000000000000431,1.029577054643489253
0.611000000000000432,1.020146570937366048
0.612000000000000433,1.010880446739270910
0.613000000000000433,1.001775587993479766
0.614000000000000434,0.992828950823530176
0.615000000000000435,0.984037540898937024
