# CdSeWurtzite2-10_BSAIV9
# h[nm],U(h)[kJ/mol]
0.149999999999999994,206.727830984935337710
0.150999999999999995,206.491915387552978700
0.151999999999999996,205.099344695723772247
0.152999999999999997,203.422735424364503842
0.153999999999999998,201.801308373315407607
0.154999999999999999,200.316409858503476471
0.156000000000000000,198.942576979821296845
0.157000000000000001,197.624679589300882299
0.158000000000000002,196.312821555094558335
0.159000000000000002,194.974407296804798762
0.160000000000000003,193.594903377071318573
0.161000000000000004,192.173864801699608051
0.162000000000000005,190.719744757709037231
0.163000000000000006,189.245187436299204364
0.164000000000000007,187.763465013116899627
0.165000000000000008,186.286164508270019269
0.166000000000000009,184.821965024674284450
0.167000000000000010,183.376247492427381758
0.168000000000000010,181.951270551412733312
0.169000000000000011,180.546680902737932684
0.170000000000000012,179.160177178209210069
0.171000000000000013,177.788198247735039104
0.172000000000000014,176.426552594189985257
0.173000000000000015,175.070942088283004523
0.174000000000000016,173.717360845038484740
0.175000000000000017,172.362368763856807163
0.176000000000000018,171.003251305637547830
0.177000000000000018,169.638083614479228345
0.178000000000000019,168.265719706454490279
0.179000000000000020,166.885727366887294920
0.180000000000000021,165.498287617203743594
0.181000000000000022,164.104074892158166676
0.182000000000000023,162.704130958466350876
0.183000000000000024,161.299742483844596563
0.184000000000000025,159.892329271676487679
0.185000000000000026,158.483347647920680856
0.186000000000000026,157.074211385220621651
0.187000000000000027,155.666230884304980009
0.188000000000000028,154.260570080729110032
0.189000000000000029,152.858219661873988571
0.190000000000000030,151.459984611029028656
0.191000000000000031,150.066483785575115917
0.192000000000000032,148.678159129786877202
0.193000000000000033,147.295292169269998794
0.194000000000000034,145.918025589477082349
0.195000000000000034,144.546387927884950386
0.196000000000000035,143.180319677912052612
0.197000000000000036,141.819699388586428768
0.198000000000000037,140.464368629203988803
0.199000000000000038,139.114154959622680963
0.200000000000000039,137.768892295503349033
0.201000000000000040,136.428438278264621886
0.202000000000000041,135.092688449005294160
0.203000000000000042,133.761587183502399512
0.204000000000000042,132.435135472481647412
0.205000000000000043,131.113395729631207587
0.206000000000000044,129.796493881937749393
0.207000000000000045,128.484619045915962943
0.208000000000000046,127.178021122406192944
0.209000000000000047,125.877006655033866878
0.210000000000000048,124.581933296252856280
0.211000000000000049,123.293203212988174755
0.212000000000000050,122.011255743846689370
0.213000000000000050,120.736559593971307436
0.214000000000000051,119.469604823847632247
0.215000000000000052,118.210894856411414366
0.216000000000000053,116.960938694031113982
0.217000000000000054,115.720243504463951467
0.218000000000000055,114.489307703577196662
0.219000000000000056,113.268614633140913384
0.220000000000000057,112.058626904797435486
0.221000000000000058,110.859781456706542713
0.222000000000000058,109.672485347517564946
0.223000000000000059,108.497112293298982877
0.224000000000000060,107.333999936830693400
0.225000000000000061,106.183447825144611443
0.226000000000000062,105.045716060235051259
0.227000000000000063,103.921024579272739174
0.228000000000000064,102.809553014240691482
0.229000000000000065,101.711441076440976872
0.230000000000000066,100.626789408580023633
0.231000000000000066,99.555660845899609512
0.232000000000000067,98.498082027862807308
0.233000000000000068,97.454045303026489933
0.234000000000000069,96.423510871735430783
0.235000000000000070,95.406409113986171633
0.236000000000000071,94.402643053062632816
0.237000000000000072,93.412090909201793920
0.238000000000000073,92.434608701473166548
0.239000000000000073,91.470032860141571973
0.240000000000000074,90.518182815932277663
0.241000000000000075,89.578863536747974194
0.242000000000000076,88.651867986434297109
0.243000000000000077,87.736979484094916870
0.244000000000000078,86.833973946181544079
0.245000000000000079,85.942621997087968566
0.246000000000000080,85.062690937244440192
0.247000000000000081,84.193946560714195471
0.248000000000000081,83.336154817037694897
0.249000000000000082,82.489083314540266656
0.250000000000000111,81.652502664523055387
0.251000000000000112,80.826187667696515859
0.252000000000000113,80.009918345901056114
0.253000000000000114,79.203480823602717464
0.254000000000000115,78.406668064862543588
0.255000000000000115,77.619280472477285571
0.256000000000000116,76.841126356783689744
0.257000000000000117,76.072022282234428303
0.258000000000000118,75.311793300299171960
0.259000000000000119,74.560273077539093833
0.260000000000000120,73.817303927865765445
0.261000000000000121,73.082736758033462365
0.262000000000000122,72.356430935354225653
0.263000000000000123,71.638254086468535320
0.264000000000000123,70.928081835775856234
0.265000000000000124,70.225797491833105823
0.266000000000000125,69.531291689681324897
0.267000000000000126,68.844461996670332837
0.268000000000000127,68.165212488926584911
0.269000000000000128,67.493453305162617539
0.270000000000000129,66.829100184061474010
0.271000000000000130,66.172073990995912141
0.272000000000000131,65.522300239364710706
0.273000000000000131,64.879708611354061532
0.274000000000000132,64.244232482461868017
0.275000000000000133,63.615808453665998456
0.276000000000000134,62.994375894672067773
0.277000000000000135,62.379876501249192700
0.278000000000000136,61.772253869252018887
0.279000000000000137,61.171453087539212845
0.280000000000000138,60.577420351630983930
0.281000000000000139,59.990102599603403632
0.282000000000000139,59.409447171396266185
0.283000000000000140,58.835401492412700009
0.284000000000000141,58.267912782014079198
0.285000000000000142,57.706927787262067397
0.286000000000000143,57.152392542031371647
0.287000000000000144,56.604252151409184535
0.288000000000000145,56.062450601112686854
0.289000000000000146,55.526930591491428402
0.290000000000000147,54.997633395536070111
0.291000000000000147,54.474498740188963097
0.292000000000000148,53.957464710143881348
0.293000000000000149,53.446467673230245055
0.294000000000000150,52.941442226400546645
0.295000000000000151,52.442321161279004116
0.296000000000000152,51.949035448179962771
0.297000000000000153,51.461514237469813793
0.298000000000000154,50.979684877120611475
0.299000000000000155,50.503472945290383223
0.300000000000000155,50.032802296759051330
0.301000000000000156,49.567595122053745627
0.302000000000000157,49.107772018106793155
0.303000000000000158,48.653252069309004924
0.304000000000000159,48.203952937842863946
0.305000000000000160,47.759790962210331600
0.306000000000000161,47.320681262901537423
0.307000000000000162,46.886537854188794938
0.308000000000000163,46.457273761069046714
0.309000000000000163,46.032801140421042874
0.310000000000000164,45.613031405487312497
0.311000000000000165,45.197875352837129981
0.312000000000000166,44.787243291013773216
0.313000000000000167,44.381045170116436793
0.314000000000000168,43.979190711615551379
0.315000000000000169,43.581589537747845498
0.316000000000000170,43.188151299885120693
0.317000000000000171,42.798785805317599795
0.318000000000000171,42.413403141938992746
0.319000000000000172,42.031913800365366285
0.320000000000000173,41.654228793064085323
0.321000000000000174,41.280259770111811690
0.322000000000000175,40.909919131241181844
0.323000000000000176,40.543120133876520583
0.324000000000000177,40.179776996895824936
0.325000000000000178,39.819804999893520403
0.326000000000000179,39.463120577752633267
0.327000000000000179,39.109641410368041647
0.328000000000000180,38.759286507393461818
0.329000000000000181,38.411976287914527006
0.330000000000000182,38.067632654976939932
0.331000000000000183,37.726179064925609907
0.332000000000000184,37.387540591533543477
0.333000000000000185,37.051643984922456809
0.334000000000000186,36.718417725297172183
0.335000000000000187,36.387792071534889260
0.336000000000000187,36.059699104688085924
0.337000000000000188,35.734072766475428296
0.338000000000000189,35.410848892849550396
0.339000000000000190,35.089965242743453189
0.340000000000000191,34.771361522108989561
0.341000000000000192,34.454979403371190472
0.342000000000000193,34.140762540431090599
0.343000000000000194,33.828656579357740952
0.344000000000000195,33.518609164916981058
0.345000000000000195,33.210569943089879530
0.346000000000000196,32.904490559738917455
0.347000000000000197,32.600324655583300171
0.348000000000000198,32.298027857648364147
0.349000000000000199,31.997557767355271352
0.350000000000000200,31.698873945419439480
0.351000000000000201,31.401937893725950346
0.352000000000000202,31.106713034350928382
0.353000000000000203,30.813164685896698103
0.354000000000000203,30.521260037307591517
0.355000000000000204,30.230968119331794952
0.356000000000000205,29.942259773792081035
0.357000000000000206,29.655107620826203885
0.358000000000000207,29.369486024254420897
0.359000000000000208,29.085371055228893766
0.360000000000000209,28.802740454315447494
0.361000000000000210,28.521573592155256449
0.362000000000000210,28.241851428849308547
0.363000000000000211,27.963556472204725623
0.364000000000000212,27.686672734977442190
0.365000000000000213,27.411185691241382045
0.366000000000000214,27.137082232009571925
0.367000000000000215,26.864350620228076849
0.368000000000000216,26.592980445258536548
0.369000000000000217,26.322962576960897252
0.370000000000000218,26.054289119482525905
0.371000000000000218,25.786953364855406790
0.372000000000000219,25.520949746498143185
0.373000000000000220,25.256273792714814874
0.374000000000000221,24.992922080278006547
0.375000000000000222,24.730892188178597024
0.376000000000000223,24.470182651620053349
0.377000000000000224,24.210792916330920121
0.378000000000000225,23.952723293264256199
0.379000000000000226,23.695974913748585777
0.380000000000000226,23.440549685150664061
0.381000000000000227,23.186450247106165534
0.382000000000000228,22.933679928370185763
0.383000000000000229,22.682242704335855876
0.384000000000000230,22.432143155265009682
0.385000000000000231,22.183386425271599762
0.386000000000000232,21.935978182094778788
0.387000000000000233,21.689924577694895902
0.388000000000000234,21.445232209702673742
0.389000000000000234,21.201908083748460143
0.390000000000000235,20.959959576695080585
0.391000000000000236,20.719394400795426492
0.392000000000000237,20.480220568792510960
0.393000000000000238,20.242446359977339654
0.394000000000000239,20.006080287217276492
0.395000000000000240,19.771131064965000945
0.396000000000000241,19.537607578256096730
0.397000000000000242,19.305518852700583210
0.398000000000000242,19.074874025472251304
0.399000000000000243,18.845682317297093533
0.400000000000000244,18.617953005440405434
0.401000000000000245,18.391695397690590141
0.402000000000000246,18.166918807335843411
0.403000000000000247,17.943632529127985009
0.404000000000000248,17.721845816227080661
0.405000000000000249,17.501567858118303178
0.406000000000000250,17.282807759491593202
0.407000000000000250,17.065574520073596432
0.408000000000000251,16.849877015399801650
0.409000000000000252,16.635723978514555199
0.410000000000000253,16.423123982584705516
0.411000000000000254,16.212085424412833845
0.412000000000000255,16.002616508834435649
0.413000000000000256,15.794725233983124113
0.414000000000000257,15.588419377407273458
0.415000000000000258,15.383706483020748834
0.416000000000000258,15.180593848870206131
0.417000000000000259,14.979088515700642148
0.418000000000000260,14.779197256300841801
0.419000000000000261,14.580926565609635404
0.420000000000000262,14.384282651564200606
0.421000000000000263,14.189271426670694964
0.422000000000000264,13.995898500278030951
0.423000000000000265,13.804169171534857341
0.424000000000000266,13.614088423010310080
0.425000000000000266,13.425660914958490011
0.426000000000000267,13.238890980207054682
0.427000000000000268,13.053782619650046826
0.428000000000000269,12.870339498325312988
0.429000000000000270,12.688564942056904883
0.430000000000000271,12.508461934642829405
0.431000000000000272,12.330033115568937774
0.432000000000000273,12.153280778229639481
0.433000000000000274,11.978206868636545934
0.434000000000000274,11.804812984596036785
0.435000000000000275,11.633100375337464882
0.436000000000000276,11.463069941573474253
0.437000000000000277,11.294722235974376190
0.438000000000000278,11.128057464038969115
0.439000000000000279,10.963075485344168314
0.440000000000000280,10.799775815156289482
0.441000000000000281,10.638157626387251042
0.442000000000000282,10.478219751878949495
0.443000000000000282,10.319960686999831267
0.444000000000000283,10.163378592537604561
0.445000000000000284,10.008471297872777228
0.446000000000000285,9.855236304417651638
0.447000000000000286,9.703670789306162447
0.448000000000000287,9.553771609320016012
0.449000000000000288,9.405535305037066252
0.450000000000000289,9.258958105188272114
0.451000000000000290,9.114035931209862440
0.452000000000000290,8.970764401977659119
0.453000000000000291,8.829138838711118709
0.454000000000000292,8.689154270034720184
0.455000000000000293,8.550805437184816782
0.456000000000000294,8.414086799350595669
0.457000000000000295,8.278992539137743023
0.458000000000000296,8.145516568144287817
0.459000000000000297,8.013652532638005255
0.460000000000000298,7.883393819325334562
0.461000000000000298,7.754733561202138858
0.462000000000000299,7.627664643476824047
0.463000000000000300,7.502179709556810572
0.464000000000000301,7.378271167089581084
0.465000000000000302,7.255931194050033284
0.466000000000000303,7.135151744865913415
0.467000000000000304,7.015924556573582827
0.468000000000000305,6.898241154996884283
0.469000000000000306,6.782092860941693502
0.470000000000000306,6.667470796399472377
0.471000000000000307,6.554365890753253154
0.472000000000000308,6.442768886979862941
0.473000000000000309,6.332670347842186409
0.474000000000000310,6.224060662066111860
0.475000000000000311,6.116930050496348414
0.476000000000000312,6.011268572226398099
0.477000000000000313,5.907066130697194772
0.478000000000000314,5.804312479760336707
0.479000000000000314,5.702997229701061599
0.480000000000000315,5.603109853216972525
0.481000000000000316,5.504639691348542030
0.482000000000000317,5.407575959357611595
0.483000000000000318,5.311907752550399486
0.484000000000000319,5.217624052041694327
0.485000000000000320,5.124713730457218119
0.486000000000000321,5.033165557571102511
0.487000000000000322,4.942968205875855503
0.488000000000000322,4.854110256082358354
0.489000000000000323,4.766580202547403111
0.490000000000000324,4.680366458626681769
0.491000000000000325,4.595457361951253539
0.492000000000000326,4.511841179625548648
0.493000000000000327,4.429506113345295759
0.494000000000000328,4.348440304433852432
0.495000000000000329,4.268631838795449163
0.496000000000000330,4.190068751784283840
0.497000000000000330,4.112739032988025123
0.498000000000000331,4.036630630925198915
0.499000000000000332,3.961731457655169208
0.500000000000000333,3.888029393300166170
0.501000000000000334,3.815512290478811686
0.502000000000000335,3.744167978650399853
0.503000000000000336,3.673984268369777872
0.504000000000000337,3.604948955452271342
0.505000000000000338,3.537049825048657503
0.506000000000000338,3.470274655629916882
0.507000000000000339,3.404611222881747779
0.508000000000000340,3.340047303509032783
0.509000000000000341,3.276570678950137427
0.510000000000000342,3.214169139001534781
0.511000000000000343,3.152830485352743128
0.512000000000000344,3.092542535032202444
0.513000000000000345,3.033293123764309485
0.514000000000000346,2.975070109238105776
0.515000000000000346,2.917861374288292176
0.516000000000000347,2.861654829988973692
0.517000000000000348,2.806438418660911260
0.518000000000000349,2.752200116792889784
0.519000000000000350,2.698927937877955152
0.520000000000000351,2.646609935165397332
0.521000000000000352,2.595234204329061267
0.522000000000000353,2.544788886053168220
0.523000000000000353,2.495262168536206637
0.524000000000000354,2.446642289914103152
0.525000000000000355,2.398917540603407339
0.526000000000000356,2.352076265565663071
0.527000000000000357,2.306106866493816909
0.528000000000000358,2.260997803921794169
0.529000000000000359,2.216737599258247204
0.530000000000000360,2.173314836745648293
0.531000000000000361,2.130718165345663717
0.532000000000000361,2.088936300552040493
0.533000000000000362,2.047958026132103537
0.534000000000000363,2.007772195798017911
0.535000000000000364,1.968367734808840863
0.536000000000000365,1.929733641504750796
0.537000000000000366,1.891858988774369976
0.538000000000000367,1.854732925456601622
0.539000000000000368,1.818344677677883769
0.540000000000000369,1.782683550126328953
0.541000000000000369,1.747738927263657205
0.542000000000000370,1.713500274476418728
0.543000000000000371,1.679957139167353564
0.544000000000000372,1.647099151788364413
0.545000000000000373,1.614916026816111572
0.546000000000000374,1.583397563671478547
0.547000000000000375,1.552533647584101617
0.548000000000000376,1.522314250403089986
0.549000000000000377,1.492729431355184433
0.550000000000000377,1.463769337751361865
0.551000000000000378,1.435424205643298867
0.552000000000000379,1.407684360430562442
0.553000000000000380,1.380540217419884197
0.554000000000000381,1.353982282337570897
0.555000000000000382,1.328001151796101897
0.556000000000000383,1.302587513716240597
0.557000000000000384,1.277732147705459953
0.558000000000000385,1.253425925394115126
0.559000000000000385,1.229659810730176162
0.560000000000000386,1.206424860233689333
0.561000000000000387,1.183712223212091352
0.562000000000000388,1.161513141937362326
0.563000000000000389,1.139818951785968704
0.564000000000000390,1.118621081342822121
0.565000000000000391,1.097911052470066151
0.566000000000000392,1.077680480341828062
0.567000000000000393,1.057921073445780236
0.568000000000000393,1.038624633552651222
0.569000000000000394,1.019783055654499559
0.570000000000000395,1.001388327872703821
0.571000000000000396,0.983432531336742022
0.572000000000000397,0.965907840034430309
0.573000000000000398,0.948806520634746464
0.574000000000000399,0.932120932283982517
0.575000000000000400,0.915843526376148853
0.576000000000000401,0.899966846298494660
0.577000000000000401,0.884483527152889693
0.578000000000000402,0.869386295454050995
0.579000000000000403,0.854667968805313927
0.580000000000000404,0.840321455552686891
0.581000000000000405,0.826339754418194516
0.582000000000000406,0.812715954112968930
0.583000000000000407,0.799443232931146719
0.584000000000000408,0.786514858325049415
0.585000000000000409,0.773924186462529362
0.586000000000000409,0.761664661767175399
0.587000000000000410,0.749729816441923935
0.588000000000000411,0.738113269977031083
0.589000000000000412,0.726808728642722612
0.590000000000000413,0.715809984967502255
0.591000000000000414,0.705110917202544485
0.592000000000000415,0.694705488772829449
0.593000000000000416,0.684587747715724171
0.594000000000000417,0.674751826107514163
0.595000000000000417,0.665191939478410932
0.596000000000000418,0.655902386216841271
0.597000000000000419,0.646877546963245509
0.598000000000000420,0.638111883994234241
0.599000000000000421,0.629599940597391550
0.600000000000000422,0.621336340437396828
0.601000000000000423,0.613315786913940619
0.602000000000000424,0.605533062511826037
0.603000000000000425,0.597983028143842743
0.604000000000000425,0.590660622486891995
0.605000000000000426,0.583560861311716139
0.606000000000000427,0.576678836806704509
0.607000000000000428,0.570009716896383356
0.608000000000000429,0.563548744554622227
0.609000000000000430,0.557291237113454740
0.610000000000000431,0.551232585567464239
0.611000000000000432,0.545368253874427222
0.612000000000000433,0.539693778252452683
0.613000000000000433,0.534204766473986292
0.614000000000000434,0.528896897157079104
0.615000000000000435,0.523765919054238305
