# CdSeWurtzite2-10_SYRINGYL-AC
# h[nm],U(h)[kJ/mol]
0.149999999999999994,195.920786669129626034
0.150999999999999995,194.849706990995457545
0.151999999999999996,193.484121871166337314
0.152999999999999997,191.951287365368216342
0.153999999999999998,190.348106557157194629
0.154999999999999999,188.736881810927371816
0.156000000000000000,187.150587860257132888
0.157000000000000001,185.601158073004796734
0.158000000000000002,184.087548965392045375
0.159000000000000002,182.602226742298682893
0.160000000000000003,181.135736883181834855
0.161000000000000004,179.679517786608386132
0.162000000000000005,178.227321031491271697
0.163000000000000006,176.775640077788352755
0.164000000000000007,175.323508628093577499
0.165000000000000008,173.871957398066626865
0.166000000000000009,172.423340086862026510
0.167000000000000010,170.980669077586327376
0.168000000000000010,169.547044220565396699
0.169000000000000011,168.125214990604774812
0.170000000000000012,166.717286163281784184
0.171000000000000013,165.324557764314079122
0.172000000000000014,163.947479015872033870
0.173000000000000015,162.585691090066319475
0.174000000000000016,161.238132764610128334
0.175000000000000017,159.903185021488468465
0.176000000000000018,158.578834067928454488
0.177000000000000018,157.262836346141142485
0.178000000000000019,155.952873258201975659
0.179000000000000020,154.646687199555714187
0.180000000000000021,153.342193861876069150
0.181000000000000022,152.037568540279551144
0.182000000000000023,150.731306346188631551
0.183000000000000024,149.422257820603533673
0.184000000000000025,148.109642527471038420
0.185000000000000026,146.793043861593957899
0.186000000000000026,145.472388612027913268
0.187000000000000027,144.147914858850015207
0.188000000000000028,142.820131619874985063
0.189000000000000029,141.489773366154366840
0.190000000000000030,140.157752142484866908
0.191000000000000031,138.825109603123280522
0.192000000000000032,137.492970835568883103
0.193000000000000033,136.162501420408403874
0.194000000000000034,134.834868779526118487
0.195000000000000034,133.511208509243999742
0.196000000000000035,132.192596085256155902
0.197000000000000036,130.880024064930580607
0.198000000000000037,129.574384699294796519
0.199000000000000038,128.276457699451441385
0.200000000000000039,126.986902776588252095
0.201000000000000040,125.706256486664031513
0.202000000000000041,124.434932855367193838
0.203000000000000042,123.173227231063293630
0.204000000000000042,121.921322808318862485
0.205000000000000043,120.679299277650486033
0.206000000000000044,119.447143084230248178
0.207000000000000045,118.224758815674050538
0.208000000000000046,117.011981283518366581
0.209000000000000047,115.808587911792983505
0.210000000000000048,114.614311096942998347
0.211000000000000049,113.428850254372122208
0.212000000000000050,112.251883316602885543
0.213000000000000050,111.083077495361024489
0.214000000000000051,109.922099163967459390
0.215000000000000052,108.768622756708651877
0.216000000000000053,107.622338618021331058
0.217000000000000054,106.482959766206732866
0.218000000000000055,105.350227563979913725
0.219000000000000056,104.223916311561922043
0.220000000000000057,103.103836797424179395
0.221000000000000058,101.989838857455737298
0.222000000000000058,100.881813005534382910
0.223000000000000059,99.779691207570706979
0.224000000000000060,98.683446877390267105
0.225000000000000061,97.593094176664607176
0.226000000000000062,96.508686702821989911
0.227000000000000063,95.430315648783064830
0.228000000000000064,94.358107516772591339
0.229000000000000065,93.292221465627832799
0.230000000000000066,92.232846367215998384
0.231000000000000066,91.180197643009805120
0.232000000000000067,90.134513946755944858
0.233000000000000068,89.096053753686490495
0.234000000000000069,88.065091911017262305
0.235000000000000070,87.041916198688880968
0.236000000000000071,86.026823943541074868
0.237000000000000072,85.020118724463131343
0.238000000000000073,84.022107200608900257
0.239000000000000073,83.033096089560288533
0.240000000000000074,82.053389317412523951
0.241000000000000075,81.083285358174421731
0.242000000000000076,80.123074775643317480
0.243000000000000077,79.173037977043904334
0.244000000000000078,78.233443184216156396
0.245000000000000079,77.304544624996594848
0.246000000000000080,76.386580944655591452
0.247000000000000081,75.479773834813698841
0.248000000000000081,74.584326875154829395
0.249000000000000082,73.700424581458179318
0.250000000000000111,72.828231651970867233
0.251000000000000112,71.967892402913705041
0.252000000000000113,71.119530382936019919
0.253000000000000114,70.283248155587813244
0.254000000000000115,69.459127238337686094
0.255000000000000115,68.647228186312460707
0.256000000000000116,67.847590808747639812
0.257000000000000117,67.060234506098623797
0.258000000000000118,66.285158715850272415
0.259000000000000119,65.522343455261776057
0.260000000000000120,64.771749949575067262
0.261000000000000121,64.033321334587895990
0.262000000000000122,63.306983422926940364
0.263000000000000123,62.592645523845156674
0.264000000000000123,61.890201306895221478
0.265000000000000124,61.199529700388140441
0.266000000000000125,60.520495816124864064
0.267000000000000126,59.852951892478834850
0.268000000000000127,59.196738248501461044
0.269000000000000128,58.551684242317435292
0.270000000000000129,57.917609227662197213
0.271000000000000130,57.294323502988561359
0.272000000000000131,56.681629248129539178
0.273000000000000131,56.079321444043749523
0.274000000000000132,55.487188771689261557
0.275000000000000133,54.905014486566493304
0.276000000000000134,54.332577265942042288
0.277000000000000135,53.769652026208220263
0.278000000000000136,53.216010708251246797
0.279000000000000137,52.671423029090234991
0.280000000000000138,52.135657198412467039
0.281000000000000139,51.608480598965186914
0.282000000000000139,51.089660430073180919
0.283000000000000140,50.578964313834163136
0.284000000000000141,50.076160863800851075
0.285000000000000142,49.581020216191461714
0.286000000000000143,49.093314523879612921
0.287000000000000144,48.612818413601225132
0.288000000000000145,48.139309406981482198
0.289000000000000146,47.672568306130195026
0.290000000000000147,47.212379544679876631
0.291000000000000147,46.758531505249564475
0.292000000000000148,46.310816804408865721
0.293000000000000149,45.869032546293439623
0.294000000000000150,45.432980546084742457
0.295000000000000151,45.002467524615973105
0.296000000000000152,44.577305275403020346
0.297000000000000153,44.157310805424820899
0.298000000000000154,43.742306450993439171
0.299000000000000155,43.332119970060688274
0.300000000000000155,42.926584612307060240
0.301000000000000156,42.525539168349993702
0.302000000000000157,42.128827999392832737
0.303000000000000158,41.736301048616134324
0.304000000000000159,41.347813835586350706
0.305000000000000160,40.963227434927162562
0.306000000000000161,40.582408440465613353
0.307000000000000162,40.205228916027522246
0.308000000000000163,39.831566334018319253
0.309000000000000163,39.461303502883538386
0.310000000000000164,39.094328484500486809
0.311000000000000165,38.730534502508461969
0.312000000000000166,38.369819842539889976
0.313000000000000167,38.012087745269312222
0.314000000000000168,37.657246293151537486
0.315000000000000169,37.305208291674475163
0.316000000000000170,36.955891145907209250
0.317000000000000171,36.609216733078561390
0.318000000000000171,36.265111271878154753
0.319000000000000172,35.923505189127666881
0.320000000000000173,35.584332984428655777
0.321000000000000174,35.247533093351805178
0.322000000000000175,34.913047749692417199
0.323000000000000176,34.580822847278838594
0.324000000000000177,34.250807801782471529
0.325000000000000178,33.922955412942975784
0.326000000000000179,33.597221727587296414
0.327000000000000179,33.273565903788210107
0.328000000000000180,32.951950076476983043
0.329000000000000181,32.632339224794307597
0.330000000000000182,32.314701041435370144
0.331000000000000183,31.999005804217905080
0.332000000000000184,31.685226250076237164
0.333000000000000185,31.373337451660585629
0.334000000000000186,31.063316696697700792
0.335000000000000187,30.755143370247726153
0.336000000000000187,30.448798839972283758
0.337000000000000188,30.144266344509635047
0.338000000000000189,29.841530885035659537
0.339000000000000190,29.540579120072834485
0.340000000000000191,29.241399263594409774
0.341000000000000192,28.943980986457141569
0.342000000000000193,28.648315321182515447
0.343000000000000194,28.354394570095042383
0.344000000000000195,28.062212216815197507
0.345000000000000195,27.771762841094279395
0.346000000000000196,27.483042036969749233
0.347000000000000197,27.196046334211207096
0.348000000000000198,26.910773123019829711
0.349000000000000199,26.627220581937301347
0.350000000000000200,26.345387608914400346
0.351000000000000201,26.065273755483936213
0.352000000000000202,25.786879163978511542
0.353000000000000203,25.510204507728840184
0.354000000000000203,25.235250934175404325
0.355000000000000204,24.962020010822989491
0.356000000000000205,24.690513673965153174
0.357000000000000206,24.420734180103423228
0.358000000000000207,24.152684059984732556
0.359000000000000208,23.886366075179047641
0.360000000000000209,23.621783177118082619
0.361000000000000210,23.358938468515898279
0.362000000000000210,23.097835167091197661
0.363000000000000211,22.838476571511737490
0.364000000000000212,22.580866029480993973
0.365000000000000213,22.325006907888013785
0.366000000000000214,22.070902564941690116
0.367000000000000215,21.818556324211993314
0.368000000000000216,21.567971450500952102
0.369000000000000217,21.319151127468298768
0.370000000000000218,21.072098436936933297
0.371000000000000218,20.826816339805596101
0.372000000000000219,20.583307658496988068
0.373000000000000220,20.341575060871594616
0.374000000000000221,20.101621045538760058
0.375000000000000222,19.863447928498779049
0.376000000000000223,19.627057831050592540
0.377000000000000224,19.392452668902699031
0.378000000000000225,19.159634142425584713
0.379000000000000226,18.928603727986654803
0.380000000000000226,18.699362670309945145
0.381000000000000227,18.471911975805120676
0.382000000000000228,18.246252406812033087
0.383000000000000229,18.022384476708879220
0.384000000000000230,17.800308445834055249
0.385000000000000231,17.580024318173411046
0.386000000000000232,17.361531838766786962
0.387000000000000233,17.144830491788997762
0.388000000000000234,16.929919499262773286
0.389000000000000234,16.716797820362589988
0.390000000000000235,16.505464151269908513
0.391000000000000236,16.295916925542535125
0.392000000000000237,16.088154314961830238
0.393000000000000238,15.882174230823599359
0.394000000000000239,15.677974325639848274
0.395000000000000240,15.475551995220001800
0.396000000000000241,15.274904381102032858
0.397000000000000242,15.076028373304907859
0.398000000000000242,14.878920613375601789
0.399000000000000243,14.683577497705055492
0.400000000000000244,14.489995181088687559
0.401000000000000245,14.298169580508528043
0.402000000000000246,14.108096379115380614
0.403000000000000247,13.919771030389961552
0.404000000000000248,13.733188762464020982
0.405000000000000249,13.548344582582780404
0.406000000000000250,13.365233281691535794
0.407000000000000250,13.183849439130023384
0.408000000000000251,13.004187427419257261
0.409000000000000252,12.826241417126500011
0.410000000000000253,12.650005381794725778
0.411000000000000254,12.475473102924098612
0.412000000000000255,12.302638174993523634
0.413000000000000256,12.131494010511264747
0.414000000000000257,11.962033845084318884
0.415000000000000258,11.794250742496940276
0.416000000000000258,11.628137599789484469
0.417000000000000259,11.463687152329196550
0.418000000000000260,11.300891978865399423
0.419000000000000261,11.139744506561910953
0.420000000000000262,10.980237016000300443
0.421000000000000263,10.822361646147863112
0.422000000000000264,10.666110399285004817
0.423000000000000265,10.511475145886805649
0.424000000000000266,10.358447629454383687
0.425000000000000266,10.207019471291847168
0.426000000000000267,10.057182175225038989
0.427000000000000268,9.908927132258753545
0.428000000000000269,9.762245625169457597
0.429000000000000270,9.617128833030742285
0.430000000000000271,9.473567835669173931
0.431000000000000272,9.331553618048493703
0.432000000000000273,9.191077074580348949
0.433000000000000274,9.052129013359998311
0.434000000000000274,8.914700160325708111
0.435000000000000275,8.778781163340827476
0.436000000000000276,8.644362596197542103
0.437000000000000277,8.511434962541802207
0.438000000000000278,8.379988699718811773
0.439000000000000279,8.250014182538881968
0.440000000000000280,8.121501726963366252
0.441000000000000281,7.994441593710843286
0.442000000000000282,7.868823991783438387
0.443000000000000282,7.744639081913796019
0.444000000000000283,7.621876979932819651
0.445000000000000284,7.500527760058881555
0.446000000000000285,7.380581458108840032
0.447000000000000286,7.262028074631674990
0.448000000000000287,7.144857577965429307
0.449000000000000288,7.029059907218186076
0.450000000000000289,6.914624975174080035
0.451000000000000290,6.801542671125138106
0.452000000000000290,6.689802863629966012
0.453000000000000291,6.579395403200360093
0.454000000000000292,6.470310124916823113
0.455000000000000293,6.362536850974071179
0.456000000000000294,6.256065393157790311
0.457000000000000295,6.150885555253573500
0.458000000000000296,6.046987135389433554
0.459000000000000297,5.944359928312938912
0.460000000000000298,5.842993727604199883
0.461000000000000298,5.742878327825968299
0.462000000000000299,5.644003526612022092
0.463000000000000300,5.546359126695088904
0.464000000000000301,5.449934937875486440
0.465000000000000302,5.354720778931823411
0.466000000000000303,5.260706479474846375
0.467000000000000304,5.167881881745693740
0.468000000000000305,5.076236842359870494
0.469000000000000306,4.985761233998005970
0.470000000000000306,4.896444947044654050
0.471000000000000307,4.808277891176325980
0.472000000000000308,4.721249996899953061
0.473000000000000309,4.635351217042801508
0.474000000000000310,4.550571528195183291
0.475000000000000311,4.466900932106859123
0.476000000000000312,4.384329457038555589
0.477000000000000313,4.302847159069242089
0.478000000000000314,4.222444123360723722
0.479000000000000314,4.143110465380242857
0.480000000000000315,4.064836332082307990
0.481000000000000316,3.987611903050699791
0.482000000000000317,3.911427391601704606
0.483000000000000318,3.836273045849464047
0.484000000000000319,3.762139149734474053
0.485000000000000320,3.689016024016196216
0.486000000000000321,3.616894027230566966
0.487000000000000322,3.545763556613428680
0.488000000000000322,3.475615048990732703
0.489000000000000323,3.406438981636315422
0.490000000000000324,3.338225873098135565
0.491000000000000325,3.270966283993803181
0.492000000000000326,3.204650817776125926
0.493000000000000327,3.139270121469520447
0.494000000000000328,3.074814886378035350
0.495000000000000329,3.011275848765657237
0.496000000000000330,2.948643790509790197
0.497000000000000330,2.886909539728294671
0.498000000000000331,2.826063971381223006
0.499000000000000332,2.766098007847478613
0.500000000000000333,2.707002619477264282
0.501000000000000334,2.648768825121036397
0.502000000000000335,2.591387692635295004
0.503000000000000336,2.534850339366140126
0.504000000000000337,2.479147932610887839
0.505000000000000338,2.424271690058518836
0.506000000000000338,2.370212880209416006
0.507000000000000339,2.316962822774890185
0.508000000000000340,2.264512889057169520
0.509000000000000341,2.212854502310138916
0.510000000000000342,2.161979138081551621
0.511000000000000343,2.111878324536979878
0.512000000000000344,2.062543642766154761
0.513000000000000345,2.013966727072050489
0.514000000000000346,1.966139265243095791
0.515000000000000346,1.919052998809121391
0.516000000000000347,1.872699723281284978
0.517000000000000348,1.827071288376479474
0.518000000000000349,1.782159598226564112
0.519000000000000350,1.737956611572810228
0.520000000000000351,1.694454341946042941
0.521000000000000352,1.651644857832588631
0.522000000000000353,1.609520282826709003
0.523000000000000353,1.568072795769548833
0.524000000000000354,1.527294630875184911
0.525000000000000355,1.487178077843912538
0.526000000000000356,1.447715481963248507
0.527000000000000357,1.408899244196807121
0.528000000000000358,1.370721821261446483
0.529000000000000359,1.333175725692934854
0.530000000000000360,1.296253525900481707
0.531000000000000361,1.259947846210304867
0.532000000000000361,1.224251366898582605
0.533000000000000362,1.189156824214045338
0.534000000000000363,1.154657010390466310
0.535000000000000364,1.120744773649204662
0.536000000000000365,1.087413018192246117
0.537000000000000366,1.054654704185739700
0.538000000000000367,1.022462847734494584
0.539000000000000368,0.990830520847431728
0.540000000000000369,0.959750851394434945
0.541000000000000369,0.929217023054596858
0.542000000000000370,0.899222275256330028
0.543000000000000371,0.869759903109246779
0.544000000000000372,0.840823257328278784
0.545000000000000373,0.812405744150056286
0.546000000000000374,0.784500825241809197
0.547000000000000375,0.757102017602984123
0.548000000000000376,0.730202893459730995
0.549000000000000377,0.703797080152481103
0.550000000000000377,0.677878260016666956
0.551000000000000378,0.652440170257005514
0.552000000000000379,0.627476602815203455
0.553000000000000380,0.602981404231505591
0.554000000000000381,0.578948475500127957
0.555000000000000382,0.555371771918689472
0.556000000000000383,0.532245302931963371
0.557000000000000384,0.509563131969880123
0.558000000000000385,0.487319376280150596
0.559000000000000385,0.465508206755489762
0.560000000000000386,0.444123847755636791
0.561000000000000387,0.423160576924352216
0.562000000000000388,0.402612725001521288
0.563000000000000389,0.382474675630371408
0.564000000000000390,0.362740865160151305
0.565000000000000391,0.343405782444228591
0.566000000000000392,0.324463968633819544
0.567000000000000393,0.305910016967410991
0.568000000000000393,0.287738572556097694
0.569000000000000394,0.269944332164857137
0.570000000000000395,0.252522043989907907
0.571000000000000396,0.235466507432338018
0.572000000000000397,0.218772572867983406
0.573000000000000398,0.202435141413808750
0.574000000000000399,0.186449164690800750
0.575000000000000400,0.170809644583543030
0.576000000000000401,0.155511632996567811
0.577000000000000401,0.140550231607522280
0.578000000000000402,0.125920591617380090
0.579000000000000403,0.111617913497713508
0.580000000000000404,0.097637446735089034
0.581000000000000405,0.083974489572838526
0.582000000000000406,0.070624388750093428
0.583000000000000407,0.057582539238396846
0.584000000000000408,0.044844383975792511
0.585000000000000409,0.032405413598605423
0.586000000000000409,0.020261166171000444
0.587000000000000410,0.008407226912282462
0.588000000000000411,-0.003160772077734486
0.589000000000000412,-0.014447152095519222
0.590000000000000413,-0.025456188112372592
0.591000000000000414,-0.036192109054867125
0.592000000000000415,-0.046659098087043729
0.593000000000000416,-0.056861292894203982
0.594000000000000417,-0.066802785968300180
0.595000000000000417,-0.076487624894899645
0.596000000000000418,-0.085919812641430462
0.597000000000000419,-0.095103307846913246
0.598000000000000420,-0.104042025112850503
0.599000000000000421,-0.112739835295404017
0.600000000000000422,-0.121200565798653279
0.601000000000000423,-0.129428000868879289
0.602000000000000424,-0.137425881889904872
0.603000000000000425,-0.145197907679322169
0.604000000000000425,-0.152747734785525363
0.605000000000000426,-0.160078977785581250
0.606000000000000427,-0.167195209583830745
0.607000000000000428,-0.174099961711035228
0.608000000000000429,-0.180796724624291139
0.609000000000000430,-0.187288948007280964
0.610000000000000431,-0.193580041071147096
0.611000000000000432,-0.199673372855691367
0.612000000000000433,-0.205572272530929745
0.613000000000000433,-0.211280029698982824
0.614000000000000434,-0.216799894696166395
