# CdSeWurtzite2-10_FLUOROFORM-AC
# h[nm],U(h)[kJ/mol]
0.149999999999999994,116.548354283157053146
0.150999999999999995,115.951002903145678147
0.151999999999999996,114.574300888319697833
0.152999999999999997,113.054136830465523644
0.153999999999999998,111.619005766444118422
0.154999999999999999,110.307304235179955754
0.156000000000000000,109.084352170045761454
0.157000000000000001,107.900423086116234117
0.158000000000000002,106.715530681757599041
0.159000000000000002,105.506631399145064165
0.160000000000000003,104.266453847125831089
0.161000000000000004,102.999125042830399934
0.162000000000000005,101.715294986785266929
0.163000000000000006,100.428003879358470840
0.164000000000000007,99.149716904249274307
0.165000000000000008,97.890524501149144498
0.166000000000000009,96.657312450249349922
0.167000000000000010,95.453644807470936939
0.168000000000000010,94.280110988159236740
0.169000000000000011,93.134928341089391779
0.170000000000000012,92.014641681720817701
0.171000000000000013,90.914809842167088050
0.172000000000000014,89.830610870748841990
0.173000000000000015,88.757330198720268299
0.174000000000000016,87.690719984747858007
0.175000000000000017,86.627234021216736437
0.176000000000000018,85.564152486954895949
0.177000000000000018,84.499615940407991843
0.178000000000000019,83.432589607614346505
0.179000000000000020,82.362778356868901142
0.180000000000000021,81.290510659933616466
0.181000000000000022,80.216606992108353325
0.182000000000000023,79.142245004370806782
0.183000000000000024,78.068830738105390310
0.184000000000000025,76.997882352348284485
0.185000000000000026,75.930930408630786133
0.186000000000000026,74.869436756698078739
0.187000000000000027,73.814732487354476120
0.188000000000000028,72.767974238882246141
0.189000000000000029,71.730117316295633145
0.190000000000000030,70.701903555390657630
0.191000000000000031,69.683861581473564684
0.192000000000000032,68.676317023326717504
0.193000000000000033,67.679410298615536590
0.194000000000000034,66.693119745804239074
0.195000000000000034,65.717288104519795411
0.196000000000000035,64.751650612446766786
0.197000000000000036,63.795863269581403188
0.198000000000000037,62.849530102790325259
0.199000000000000038,61.912228532586297547
0.200000000000000039,60.983532191299730130
0.201000000000000040,60.063030762071477398
0.202000000000000041,59.150346598583794844
0.203000000000000042,58.245148045422979521
0.204000000000000042,57.347159509140418265
0.205000000000000043,56.456168432202822771
0.206000000000000044,55.572029398534048994
0.207000000000000045,54.694665653091817603
0.208000000000000046,53.824068351919663655
0.209000000000000047,52.960293876405572178
0.210000000000000048,52.103459548999957462
0.211000000000000049,51.253738080142944966
0.212000000000000050,50.411351060120850320
0.213000000000000050,49.576561787247115376
0.214000000000000051,48.749667697075700801
0.215000000000000052,47.930992627966816144
0.216000000000000053,47.120879127614387016
0.217000000000000054,46.319680974239545890
0.218000000000000055,45.527756055951847713
0.219000000000000056,44.745459722965811977
0.220000000000000057,43.973138700441595006
0.221000000000000058,43.211125625047820620
0.222000000000000058,42.459734246134445357
0.223000000000000059,41.719255312769782051
0.224000000000000060,40.989953150851391683
0.225000000000000061,40.272062919999441988
0.226000000000000062,39.565788527877671754
0.227000000000000063,38.871301169813889942
0.228000000000000064,38.188738453942690398
0.229000000000000065,37.518204066369449379
0.230000000000000066,36.859767926865551146
0.231000000000000066,36.213466783141122107
0.232000000000000067,35.579305190609247234
0.233000000000000068,34.957256824558669450
0.234000000000000069,34.347266072611049026
0.235000000000000070,33.749249857081466075
0.236000000000000071,33.163099639233493576
0.237000000000000072,32.588683560277544871
0.238000000000000073,32.025848677179880042
0.239000000000000073,31.474423254815690143
0.240000000000000074,30.934219079612915948
0.241000000000000075,30.405033763515110223
0.242000000000000076,29.886653010763843952
0.243000000000000077,29.378852823608628597
0.244000000000000078,28.881401626545102346
0.245000000000000079,28.394062292020187499
0.246000000000000080,27.916594053699391509
0.247000000000000081,27.448754296339991754
0.248000000000000081,26.990300214043418947
0.249000000000000082,26.540990331159086679
0.250000000000000111,26.100585882376758917
0.251000000000000112,25.668852050575491575
0.252000000000000113,25.245559062798061944
0.253000000000000114,24.830483146297670061
0.254000000000000115,24.423407347965937930
0.255000000000000115,24.024122221611573735
0.256000000000000116,23.632426388525811234
0.257000000000000117,23.248126977560769291
0.258000000000000118,22.871039951570768523
0.259000000000000119,22.500990327540396407
0.260000000000000120,22.137812298058634042
0.261000000000000121,21.781349262011872270
0.262000000000000122,21.431453772470696606
0.263000000000000123,21.087987409751757895
0.264000000000000123,20.750820587555967478
0.265000000000000124,20.419832299932792807
0.266000000000000125,20.094909816605074582
0.267000000000000126,19.775948333922851674
0.268000000000000127,19.462850588404293717
0.269000000000000128,19.155526439479480416
0.270000000000000129,18.853892427682016120
0.271000000000000130,18.557871314144932740
0.272000000000000131,18.267391606855404973
0.273000000000000131,17.982387078713561124
0.274000000000000132,17.702796282029432007
0.275000000000000133,17.428562063682580430
0.276000000000000134,17.159631084765443632
0.277000000000000135,16.895953348137066286
0.278000000000000136,16.637481736930684662
0.279000000000000137,16.384171566689737176
0.280000000000000138,16.135980153453818531
0.281000000000000139,15.892866399779389752
0.282000000000000139,15.654790400362420755
0.283000000000000140,15.421713068630563015
0.284000000000000141,15.193595785393023689
0.285000000000000142,14.970400070375760038
0.286000000000000143,14.752087277229174234
0.287000000000000144,14.538618312374392616
0.288000000000000145,14.329953377852074681
0.289000000000000146,14.126051738154506765
0.290000000000000147,13.926871510856448921
0.291000000000000147,13.732369480712492305
0.292000000000000148,13.542500936757610575
0.293000000000000149,13.357219531832546622
0.294000000000000150,13.176477163855860653
0.295000000000000151,13.000223878078383422
0.296000000000000152,12.828407789484007395
0.297000000000000153,12.660975024440594083
0.298000000000000154,12.497869680656737756
0.299000000000000155,12.339033804462809840
0.300000000000000155,12.184407384407032637
0.301000000000000156,12.033928360139258373
0.302000000000000157,11.887532645544590437
0.303000000000000158,11.745154165086731268
0.304000000000000159,11.606724902324790705
0.305000000000000160,11.472174959577685627
0.306000000000000161,11.341432627725520632
0.307000000000000162,11.214424465157799560
0.308000000000000163,11.091075384902525869
0.309000000000000163,10.971308748998270133
0.310000000000000164,10.855046469202045856
0.311000000000000165,10.742209113159459477
0.312000000000000166,10.632716015199040527
0.313000000000000167,10.526485390949755327
0.314000000000000168,10.423434455019389588
0.315000000000000169,10.323479541010573968
0.316000000000000170,10.226536223191327935
0.317000000000000171,10.132519439177240628
0.318000000000000171,10.041343613022650771
0.319000000000000172,9.952922778158320938
0.320000000000000173,9.867170699652671573
0.321000000000000174,9.784000995313007820
0.322000000000000175,9.703327255181118716
0.323000000000000176,9.625063159015397218
0.324000000000000177,9.549122591387957826
0.325000000000000178,9.475419754060451893
0.326000000000000179,9.403869275336480982
0.327000000000000179,9.334386316121323190
0.328000000000000180,9.266886672451231988
0.329000000000000181,9.201286874284521744
0.330000000000000182,9.137504280375701171
0.331000000000000183,9.075457169080836550
0.332000000000000184,9.015064824968535007
0.333000000000000185,8.956247621135233317
0.334000000000000186,8.898927097146458465
0.335000000000000187,8.843026032547419035
0.336000000000000187,8.788468515906449952
0.337000000000000188,8.735180009373742394
0.338000000000000189,8.683087408755188363
0.339000000000000190,8.632119099117456784
0.340000000000000191,8.582205005955396260
0.341000000000000192,8.533276641966461185
0.342000000000000193,8.485267149489500227
0.343000000000000194,8.438111338676517192
0.344000000000000195,8.391745721476528530
0.345000000000000195,8.346108541519594581
0.346000000000000196,8.301139799997633517
0.347000000000000197,8.256781277645778516
0.348000000000000198,8.212976552934469154
0.349000000000000199,8.169671016588029744
0.350000000000000200,8.126811882550203592
0.351000000000000201,8.084348195521050329
0.352000000000000202,8.042230835193009852
0.353000000000000203,8.000412517316259908
0.354000000000000203,7.958847791725732534
0.355000000000000204,7.917493037463307459
0.356000000000000205,7.876306455129666872
0.357000000000000206,7.835248056600457645
0.358000000000000207,7.794279652241473677
0.359000000000000208,7.753364835756762830
0.360000000000000209,7.712468966802743964
0.361000000000000210,7.671559151500085605
0.362000000000000210,7.630604220973312479
0.363000000000000211,7.589574708046325391
0.364000000000000212,7.548442822219675108
0.365000000000000213,7.507182423053025744
0.366000000000000214,7.465768992073580357
0.367000000000000215,7.424179603328393107
0.368000000000000216,7.382392892695401443
0.369000000000000217,7.340389026065009759
0.370000000000000218,7.298149666500611588
0.371000000000000218,7.255657940483219548
0.372000000000000219,7.212898403341787557
0.373000000000000220,7.169857003967408104
0.374000000000000221,7.126521048905864575
0.375000000000000222,7.082879165919689690
0.376000000000000223,7.038921267106839075
0.377000000000000224,6.994638511659957203
0.378000000000000225,6.950023268346170013
0.379000000000000226,6.905069077784093956
0.380000000000000226,6.859770614590855686
0.381000000000000227,6.814123649468655231
0.382000000000000228,6.768125011296746152
0.383000000000000229,6.721772549291287646
0.384000000000000230,6.675065095292216810
0.385000000000000231,6.628002426232816546
0.386000000000000232,6.580585226844559266
0.387000000000000233,6.532815052646471443
0.388000000000000234,6.484694293265303777
0.389000000000000234,6.436226136129585385
0.390000000000000235,6.387414530577866678
0.391000000000000236,6.338264152418456199
0.392000000000000237,6.288780368975236179
0.393000000000000238,6.238969204651494849
0.394000000000000239,6.188837307040979674
0.395000000000000240,6.138391913613013173
0.396000000000000241,6.087640818995994962
0.397000000000000242,6.036592342881311524
0.398000000000000242,5.985255298567428994
0.399000000000000243,5.933638962161809083
0.400000000000000244,5.881753042456232095
0.401000000000000245,5.829607651489011388
0.402000000000000246,5.777213275806003523
0.403000000000000247,5.724580748430069477
0.404000000000000248,5.671721221547392666
0.405000000000000249,5.618646139917055748
0.406000000000000250,5.565367215008974355
0.407000000000000250,5.511896399873644548
0.408000000000000251,5.458245864745896014
0.409000000000000252,5.404427973383432615
0.410000000000000253,5.350455260139758806
0.411000000000000254,5.296340407769883463
0.412000000000000255,5.242096225966137446
0.413000000000000256,5.187735630620293747
0.414000000000000257,5.133271623807448059
0.415000000000000258,5.078717274485848421
0.416000000000000258,5.024085699906499336
0.417000000000000259,4.969390047725054771
0.418000000000000260,4.914643478808290666
0.419000000000000261,4.859859150726364874
0.420000000000000262,4.805050201921796216
0.421000000000000263,4.750229736545221293
0.422000000000000264,4.695410809947796693
0.423000000000000265,4.640606414819321124
0.424000000000000266,4.585829467960975236
0.425000000000000266,4.531092797681118611
0.426000000000000267,4.476409131802165930
0.427000000000000268,4.421791086266404491
0.428000000000000269,4.367251154328247509
0.429000000000000270,4.312801696320265776
0.430000000000000271,4.258454929980063142
0.431000000000000272,4.204222921324995532
0.432000000000000273,4.150117576061545854
0.433000000000000274,4.096150631516087159
0.434000000000000274,4.042333649073659885
0.435000000000000275,3.988678007111416068
0.436000000000000276,3.935194894413290623
0.437000000000000277,3.881895304052457529
0.438000000000000278,3.828790027728227408
0.439000000000000279,3.775889650543997611
0.440000000000000280,3.723204546212937949
0.441000000000000281,3.670744872678286530
0.442000000000000282,3.618520568134981463
0.443000000000000282,3.566541347439780907
0.444000000000000283,3.514816698896834346
0.445000000000000284,3.463355881406042780
0.446000000000000285,3.412167921961560157
0.447000000000000286,3.361261613487980249
0.448000000000000287,3.310645513001940543
0.449000000000000288,3.260327940087044851
0.450000000000000289,3.210316975670155948
0.451000000000000290,3.160620461087388477
0.452000000000000290,3.111245997428192744
0.453000000000000291,3.062200945146316577
0.454000000000000292,3.013492423926455999
0.455000000000000293,2.965127312795728720
0.456000000000000294,2.917112250469336754
0.457000000000000295,2.869453635919907875
0.458000000000000296,2.822157629160351178
0.459000000000000297,2.775230152230227176
0.460000000000000298,2.728676890375824726
0.461000000000000298,2.682503293414500778
0.462000000000000299,2.636714577273905125
0.463000000000000300,2.591315725697089789
0.464000000000000301,2.546311492104631036
0.465000000000000302,2.501706401605215735
0.466000000000000303,2.457504753146277920
0.467000000000000304,2.413710621796581801
0.468000000000000305,2.370327861152868643
0.469000000000000306,2.327360105862857687
0.470000000000000306,2.284810774257169275
0.471000000000000307,2.242683071082972823
0.472000000000000308,2.200979990332336822
0.473000000000000309,2.159704318158487180
0.474000000000000310,2.118858635873487550
0.475000000000000311,2.078445323020864599
0.476000000000000312,2.038466560517242954
0.477000000000000313,1.998924333856813007
0.478000000000000314,1.959820436373156394
0.479000000000000314,1.921156472552738137
0.480000000000000315,1.882933861394838315
0.481000000000000316,1.845153839812752494
0.482000000000000317,1.807817466071367729
0.483000000000000318,1.770925623256328851
0.484000000000000319,1.734479022770254009
0.485000000000000320,1.698478207851646049
0.486000000000000321,1.662923557112220063
0.487000000000000322,1.627815288088700019
0.488000000000000322,1.593153460805170285
0.489000000000000323,1.558937981342298329
0.490000000000000324,1.525168605409878975
0.491000000000000325,1.491844941919347800
0.492000000000000326,1.458966456553003166
0.493000000000000327,1.426532475326879545
0.494000000000000328,1.394542188144326733
0.495000000000000329,1.362994652337505830
0.496000000000000330,1.331888796194175439
0.497000000000000330,1.301223422467157942
0.498000000000000331,1.270997211864240528
0.499000000000000332,1.241208726516108030
0.500000000000000333,1.211856413420222767
0.501000000000000334,1.182938607858668112
0.502000000000000335,1.154453536787954038
0.503000000000000336,1.126399322199095110
0.504000000000000337,1.098773984446170360
0.505000000000000338,1.071575445541868676
0.506000000000000338,1.044801532418491163
0.507000000000000339,1.018449980153015799
0.508000000000000340,0.992518435155007039
0.509000000000000341,0.967004458316057858
0.510000000000000342,0.941905528119790447
0.511000000000000343,0.917219043711261173
0.512000000000000344,0.892942327924936330
0.513000000000000345,0.869072630270325219
0.514000000000000346,0.845607129874449526
0.515000000000000346,0.822542938380540156
0.516000000000000347,0.799877102802223128
0.517000000000000348,0.777606608332664484
0.518000000000000349,0.755728381108156988
0.519000000000000350,0.734239290925714605
0.520000000000000351,0.713136153914286863
0.521000000000000352,0.692415735159224832
0.522000000000000353,0.672074751279825078
0.523000000000000353,0.652109872959604209
0.524000000000000354,0.632517727429252830
0.525000000000000355,0.613294900902058848
0.526000000000000356,0.594437940961807798
0.527000000000000357,0.575943358903055258
0.528000000000000358,0.557807632023828104
0.529000000000000359,0.540027205870796778
0.530000000000000360,0.522598496437027049
0.531000000000000361,0.505517892312399741
0.532000000000000361,0.488781756786888011
0.533000000000000362,0.472386429906887062
0.534000000000000363,0.456328230484828623
0.535000000000000364,0.440603458062287789
0.536000000000000365,0.425208394826940506
0.537000000000000366,0.410139307483610438
0.538000000000000367,0.395392449079805974
0.539000000000000368,0.380964060786019743
0.540000000000000369,0.366850373631268434
0.541000000000000369,0.353047610194172745
0.542000000000000370,0.339551986250101578
0.543000000000000371,0.326359712374712174
0.544000000000000372,0.313466995504420975
0.545000000000000373,0.300870040454226717
0.546000000000000374,0.288565051393385619
0.547000000000000375,0.276548233279450439
0.548000000000000376,0.264815793251141296
0.549000000000000377,0.253363941980627838
0.550000000000000377,0.242188894985672393
0.551000000000000378,0.231286873902281809
0.552000000000000379,0.220654107718298048
0.553000000000000380,0.210286833968579778
0.554000000000000381,0.200181299892298437
0.555000000000000382,0.190333763552884033
0.556000000000000383,0.180740494921290129
0.557000000000000384,0.171397776923028128
0.558000000000000385,0.162301906449684730
0.559000000000000385,0.153449195335409183
0.560000000000000386,0.144835971298997945
0.561000000000000387,0.136458578852173051
0.562000000000000388,0.128313380174656044
0.563000000000000389,0.120396755956549792
0.564000000000000390,0.112705106208754249
0.565000000000000391,0.105234851041883098
0.566000000000000392,0.097982431414357696
0.567000000000000393,0.090944309850205657
0.568000000000000393,0.084116971127217027
0.569000000000000394,0.077496922935987048
0.570000000000000395,0.071080696510456232
0.571000000000000396,0.064864847230550859
0.572000000000000397,0.058845955197437495
0.573000000000000398,0.053020625782046936
0.574000000000000399,0.047385490147370389
0.575000000000000400,0.041937205745145409
0.576000000000000401,0.036672456787470754
0.577000000000000401,0.031587954693884937
0.578000000000000402,0.026680438514520444
0.579000000000000403,0.021946675329847176
0.580000000000000404,0.017383460627513902
0.581000000000000405,0.012987618656919886
0.582000000000000406,0.008756002761930004
0.583000000000000407,0.004685495692380304
0.584000000000000408,0.000773009894786703
0.585000000000000409,-0.002984512217154545
0.586000000000000409,-0.006590098011787426
0.587000000000000410,-0.010046744407976548
0.588000000000000411,-0.013357417662255977
0.589000000000000412,-0.016525053174292492
0.590000000000000413,-0.019552555310038699
0.591000000000000414,-0.022442797242204150
0.592000000000000415,-0.025198620807547090
0.593000000000000416,-0.027822836380488613
0.594000000000000417,-0.030318222762635495
0.595000000000000417,-0.032687527087781665
0.596000000000000418,-0.034933464741859856
0.597000000000000419,-0.037058719297524911
0.598000000000000420,-0.039065942462838101
0.599000000000000421,-0.040957754043711644
0.600000000000000422,-0.042736741919648248
0.601000000000000423,-0.044405462032386732
0.602000000000000424,-0.045966438387065690
0.603000000000000425,-0.047422163065515700
0.604000000000000425,-0.048775096251245674
0.605000000000000426,-0.050027666265814966
0.606000000000000427,-0.051182269616201516
0.607000000000000428,-0.052241271052720452
0.608000000000000429,-0.053207003637313968
0.609000000000000430,-0.054081768821631834
0.610000000000000431,-0.054867836534786787
0.611000000000000432,-0.055567445280274408
0.612000000000000433,-0.056182802241812144
0.613000000000000433,-0.056716083397779740
0.614000000000000434,-0.057169433643897052
0.615000000000000435,-0.057544966923859284
0.616000000000000436,-0.057844766367614944
0.617000000000000437,-0.058070884437034641
0.618000000000000438,-0.058225343078594526
