# hydroxyapatite-010-ph5_THRSCA-JS
# h[nm],U(h)[kJ/mol]
0.149999999999999994,81.009163005201088481
0.150999999999999995,79.374412154486819304
0.151999999999999996,78.001388440158194726
0.152999999999999997,76.711578626255345625
0.153999999999999998,75.432738860016200988
0.154999999999999999,74.144776096543481003
0.156000000000000000,72.849937276773886197
0.157000000000000001,71.557444076863035320
0.158000000000000002,70.276395952285128033
0.159000000000000002,69.013160705237595494
0.160000000000000003,67.771007080524142907
0.161000000000000004,66.550699336862621180
0.162000000000000005,65.351366711042345514
0.163000000000000006,64.171313763578595513
0.164000000000000007,63.008638951953535923
0.165000000000000008,61.861636401662096318
0.166000000000000009,60.729007321894641791
0.167000000000000010,59.609926782788249966
0.168000000000000010,58.504013546463433215
0.169000000000000011,57.411244340062317804
0.170000000000000012,56.331844603955950390
0.171000000000000013,55.266178188209053701
0.172000000000000014,54.214650093841818546
0.173000000000000015,53.177629692956827512
0.174000000000000016,52.155396967167654054
0.175000000000000017,51.148110990353863770
0.176000000000000018,50.155797864212310344
0.177000000000000018,49.178354289964943291
0.178000000000000019,48.215562647791401218
0.179000000000000020,47.267113621160746106
0.180000000000000021,46.332632858782744734
0.181000000000000022,45.411708771126960471
0.182000000000000023,44.503919210452082211
0.183000000000000024,43.608855415278114265
0.184000000000000025,42.726142170416245847
0.185000000000000026,41.855453619704078960
0.186000000000000026,40.996524562086293031
0.187000000000000027,40.149157363711587720
0.188000000000000028,39.313224836365947112
0.189000000000000029,38.488669576285097662
0.190000000000000030,37.675500339141493100
0.191000000000000031,36.873786058929212572
0.192000000000000032,36.083648112069582226
0.193000000000000033,35.305251393664335069
0.194000000000000034,34.538794719360353724
0.195000000000000034,33.784501001185375912
0.196000000000000035,33.042607574952207017
0.197000000000000036,32.313356985039362712
0.198000000000000037,31.596988462986434598
0.199000000000000038,30.893730271815208255
0.200000000000000039,30.203793029878124088
0.201000000000000040,29.527364077233158923
0.202000000000000041,28.864602904400719297
0.203000000000000042,28.215637627821756439
0.204000000000000042,27.580562468055735081
0.205000000000000043,26.959436165187742773
0.206000000000000044,26.352281250377039612
0.207000000000000045,25.759084082237187374
0.208000000000000046,25.179795551030260015
0.209000000000000047,24.614332351737857607
0.210000000000000048,24.062578728234960579
0.211000000000000049,23.524388594386806517
0.212000000000000050,22.999587943326901041
0.213000000000000050,22.487977462941369566
0.214000000000000051,21.989335283232190221
0.215000000000000052,21.503419789384263794
0.216000000000000053,21.029972442706100111
0.217000000000000054,20.568720559897410993
0.218000000000000055,20.119380009122977526
0.219000000000000056,19.681657788988719204
0.220000000000000057,19.255254463613766802
0.221000000000000058,18.839866433500993992
0.222000000000000058,18.435188027779702225
0.223000000000000059,18.040913408614141389
0.224000000000000060,17.656738283137293877
0.225000000000000061,17.282361422199130629
0.226000000000000062,16.917485988540157393
0.227000000000000063,16.561820679751317442
0.228000000000000064,16.215080693603219686
0.229000000000000065,15.876988525066966673
0.230000000000000066,15.547274605655299951
0.231000000000000066,15.225677796632940186
0.232000000000000067,14.911945748228086828
0.233000000000000068,14.605835137268400103
0.234000000000000069,14.307111795707317725
0.235000000000000070,14.015550742341584822
0.236000000000000071,13.730936129685272107
0.237000000000000072,13.453061117492726595
0.238000000000000073,13.181727683843991628
0.239000000000000073,12.916746384048568785
0.240000000000000074,12.657936066908643369
0.241000000000000075,12.405123557134903223
0.242000000000000076,12.158143311941511655
0.243000000000000077,11.916837059078318362
0.244000000000000078,11.681053422799623220
0.245000000000000079,11.450647543530255490
0.246000000000000080,11.225480696279314330
0.247000000000000081,11.005419912175465669
0.248000000000000081,10.790337606860736841
0.249000000000000082,10.580111218884763247
0.250000000000000111,10.374622860690601911
0.251000000000000112,10.173758984278133966
0.252000000000000113,9.977410063170598420
0.253000000000000114,9.785470291895409289
0.254000000000000115,9.597837303818517185
0.255000000000000115,9.414411907842897165
0.256000000000000116,9.235097844192601713
0.257000000000000117,9.059801559252942837
0.258000000000000118,8.888431999222374813
0.259000000000000119,8.720900422149309605
0.260000000000000120,8.557120227775444121
0.261000000000000121,8.397006804483893916
0.262000000000000122,8.240477392551714075
0.263000000000000123,8.087450962831576717
0.264000000000000123,7.937848109932143181
0.265000000000000124,7.791590958930259880
0.266000000000000125,7.648603084627407789
0.267000000000000126,7.508809442356183972
0.268000000000000127,7.372136309347849803
0.269000000000000128,7.238511235687771439
0.270000000000000129,7.107863003909665522
0.271000000000000130,6.980121596310938870
0.272000000000000131,6.855218169108648674
0.273000000000000131,6.733085032597132980
0.274000000000000132,6.613655636513668057
0.275000000000000133,6.496864559865945132
0.276000000000000134,6.382647504524444848
0.277000000000000135,6.270941291932964567
0.278000000000000136,6.161683862340668227
0.279000000000000137,6.054814276009047092
0.280000000000000138,5.950272715896333331
0.281000000000000139,5.848000491369651499
0.282000000000000139,5.747940042541626937
0.283000000000000140,5.650034944872553311
0.284000000000000141,5.554229913721763445
0.285000000000000142,5.460470808572023493
0.286000000000000143,5.368704636688754306
0.287000000000000144,5.278879556011558449
0.288000000000000145,5.190944877108419675
0.289000000000000146,5.104851064054079401
0.290000000000000147,5.020549734121994234
0.291000000000000147,4.937993656205611259
0.292000000000000148,4.857136747908009866
0.293000000000000149,4.777934071260655280
0.294000000000000150,4.700341827051034649
0.295000000000000151,4.624317347756231378
0.296000000000000152,4.549819089094691904
0.297000000000000153,4.476806620221772448
0.298000000000000154,4.405240612606281303
0.299000000000000155,4.335082827635217129
0.300000000000000155,4.266296103002249929
0.301000000000000156,4.198844337942691851
0.302000000000000157,4.132692477383216989
0.303000000000000158,4.067806495079279827
0.304000000000000159,4.004153375816470906
0.305000000000000160,3.941701096754569367
0.306000000000000161,3.880418607994529534
0.307000000000000162,3.820275812449341224
0.308000000000000163,3.761243545099718144
0.309000000000000163,3.703293551714953225
0.310000000000000164,3.646398467117993647
0.311000000000000165,3.590531793072191391
0.312000000000000166,3.535667875864953569
0.313000000000000167,3.481781883661172916
0.314000000000000168,3.428849783696422460
0.315000000000000169,3.376848319376989593
0.316000000000000170,3.325754987350486580
0.317000000000000171,3.275548014607497116
0.318000000000000171,3.226206335671249370
0.319000000000000172,3.177709569928610644
0.320000000000000173,3.130037999152275763
0.321000000000000174,3.083172545260314035
0.322000000000000175,3.037094748355631424
0.323000000000000176,2.991786745084398902
0.324000000000000177,2.947231247348947925
0.325000000000000178,2.903411521407268658
0.326000000000000179,2.860311367387796011
0.327000000000000179,2.817915099245070998
0.328000000000000180,2.776207525178659541
0.329000000000000181,2.735173928534688326
0.330000000000000182,2.694800049206601322
0.331000000000000183,2.655072065548849114
0.332000000000000184,2.615976576814754040
0.333000000000000185,2.577500586127285942
0.334000000000000186,2.539631483989132299
0.335000000000000187,2.502357032336347320
0.336000000000000187,2.465665349137737827
0.337000000000000188,2.429544893540376727
0.338000000000000189,2.393984451559734161
0.339000000000000190,2.358973122311378123
0.340000000000000191,2.324500304779759663
0.341000000000000192,2.290555685118081719
0.342000000000000193,2.257129224472179452
0.343000000000000194,2.224211147320057869
0.344000000000000195,2.191791930317957604
0.345000000000000195,2.159862291642611787
0.346000000000000196,2.128413180818876427
0.347000000000000197,2.097435769021024576
0.348000000000000198,2.066921439835478491
0.349000000000000199,2.036861780472238870
0.350000000000000200,2.007248573411834602
0.351000000000000201,1.978073788474267847
0.352000000000000202,1.949329575296220085
0.353000000000000203,1.921008256202467290
0.354000000000000203,1.893102319457427241
0.355000000000000204,1.865604412882650776
0.356000000000000205,1.838507337826016386
0.357000000000000206,1.811804043468406622
0.358000000000000207,1.785487621453840434
0.359000000000000208,1.759551300828983589
0.360000000000000209,1.733988443278192904
0.361000000000000210,1.708792538640516501
0.362000000000000210,1.683957200695122225
0.363000000000000211,1.659476163202047605
0.364000000000000212,1.635343276185298178
0.365000000000000213,1.611552502445733337
0.366000000000000214,1.588097914291390911
0.367000000000000215,1.564973690473329127
0.368000000000000216,1.542174113315269324
0.369000000000000217,1.519693566025881903
0.370000000000000218,1.497526530182674787
0.371000000000000218,1.475667583377057834
0.372000000000000219,1.454111397010329432
0.373000000000000220,1.432852734230823488
0.374000000000000221,1.411886448002804162
0.375000000000000222,1.391207479298119276
0.376000000000000223,1.370810855401866757
0.377000000000000224,1.350691688323889750
0.378000000000000225,1.330845173308142559
0.379000000000000226,1.311266587432452724
0.380000000000000226,1.291951288291408817
0.381000000000000227,1.272894712755696878
0.382000000000000228,1.254092375801299175
0.383000000000000229,1.235539869402507485
0.384000000000000230,1.217232861482978157
0.385000000000000231,1.199167094919290744
0.386000000000000232,1.181338386591977097
0.387000000000000233,1.163742626479094211
0.388000000000000234,1.146375776787901035
0.389000000000000234,1.129233871120296051
0.390000000000000235,1.112313013668147388
0.391000000000000236,1.095609378434758030
0.392000000000000237,1.079119208479062397
0.393000000000000238,1.062838815179349528
0.394000000000000239,1.046764577513594752
0.395000000000000240,1.030892941353651171
0.396000000000000241,1.015220418770827582
0.397000000000000242,0.999743587350560126
0.398000000000000242,0.984459089514066576
0.399000000000000243,0.969363631845130747
0.400000000000000244,0.954453984420269741
0.401000000000000245,0.939726980140707324
0.402000000000000246,0.925179514064862318
0.403000000000000247,0.910808542740020988
0.404000000000000248,0.896611083532175557
0.405000000000000249,0.882584213953043872
0.406000000000000250,0.868725070983486725
0.407000000000000250,0.855030850392582864
0.408000000000000251,0.841498806051815151
0.409000000000000252,0.828126249243860135
0.410000000000000253,0.814910547965618903
0.411000000000000254,0.801849126225180564
0.412000000000000255,0.788939463332557489
0.413000000000000256,0.776179093183992475
0.414000000000000257,0.763565603539887672
0.415000000000000258,0.751096635296258364
0.416000000000000258,0.738769881749894775
0.417000000000000259,0.726583087857287757
0.418000000000000260,0.714534049487546508
0.419000000000000261,0.702620612669518030
0.420000000000000262,0.690840672833405334
0.421000000000000263,0.679192174047145381
0.422000000000000264,0.667673108247973213
0.423000000000000265,0.656281514469468807
0.424000000000000266,0.645015478064509096
0.425000000000000266,0.633873129924583889
0.426000000000000267,0.622852645695862850
0.427000000000000268,0.611952244992504335
0.428000000000000269,0.601170190607674737
0.429000000000000270,0.590504787722738067
0.430000000000000271,0.579954383115139027
0.431000000000000272,0.569517364365430767
0.432000000000000273,0.559192159063997218
0.433000000000000274,0.548977234017918758
0.434000000000000274,0.538871094458510669
0.435000000000000275,0.528872283250031772
0.436000000000000276,0.518979380100030196
0.437000000000000277,0.509191000771846647
0.438000000000000278,0.499505796299738403
0.439000000000000279,0.489922452207083636
0.440000000000000280,0.480439687728161036
0.441000000000000281,0.471056255033949434
0.442000000000000282,0.461770938462347069
0.443000000000000282,0.452582553753324845
0.444000000000000283,0.443489947289347097
0.445000000000000284,0.434491995341521053
0.446000000000000285,0.425587603321857633
0.447000000000000286,0.416775705041981026
0.448000000000000287,0.408055261978722439
0.449000000000000288,0.399425262546869608
0.450000000000000289,0.390884721379468059
0.451000000000000290,0.382432678615957311
0.452000000000000290,0.374068199198440199
0.453000000000000291,0.365790372176411915
0.454000000000000292,0.357598310020168286
0.455000000000000293,0.349491147943189140
0.456000000000000294,0.341468043233721263
0.457000000000000295,0.333528174595778604
0.458000000000000296,0.325670741499789862
0.459000000000000297,0.317894963543064790
0.460000000000000298,0.310200079820275365
0.461000000000000298,0.302585348304112767
0.462000000000000299,0.295050045236256442
0.463000000000000300,0.287593464528817067
0.464000000000000301,0.280214917176345835
0.465000000000000302,0.272913730678541966
0.466000000000000303,0.265689248473735706
0.467000000000000304,0.258540829383237525
0.468000000000000305,0.251467847066621120
0.469000000000000306,0.244469689487991276
0.470000000000000306,0.237545758393274076
0.471000000000000307,0.230695468798593012
0.472000000000000308,0.223918248489706928
0.473000000000000309,0.217213537532546214
0.474000000000000310,0.210580787794852814
0.475000000000000311,0.204019462478885943
0.476000000000000312,0.197529035665199248
0.477000000000000313,0.191108991867432049
0.478000000000000314,0.184758825598116017
0.479000000000000314,0.178478040945390243
0.480000000000000315,0.172266151160628073
0.481000000000000316,0.166122678256863582
0.482000000000000317,0.160047152617978222
0.483000000000000318,0.154039112618545249
0.484000000000000319,0.148098104254258012
0.485000000000000320,0.142223680782850082
0.486000000000000321,0.136415402375393846
0.487000000000000322,0.130672835777882829
0.488000000000000322,0.124995553983002911
0.489000000000000323,0.119383135911937582
0.490000000000000324,0.113835166106121294
0.491000000000000325,0.108351234428800500
0.492000000000000326,0.102930935776281901
0.493000000000000327,0.097573869798717697
0.494000000000000328,0.092279640630317239
0.495000000000000329,0.087047856628811759
0.496000000000000330,0.081878130124075660
0.497000000000000330,0.076770077175686596
0.498000000000000331,0.071723317339371595
0.499000000000000332,0.066737473442099501
0.500000000000000333,0.061812171365708588
0.501000000000000334,0.056947039838933546
0.502000000000000335,0.052141710237624282
0.503000000000000336,0.047395816393048053
0.504000000000000337,0.042708994408085524
0.505000000000000338,0.038080882481177900
0.506000000000000338,0.033511120737859459
0.507000000000000339,0.028999351069708967
0.508000000000000340,0.024545216980583075
0.509000000000000341,0.020148363439924811
0.510000000000000342,0.015808436743048937
0.511000000000000343,0.011525084378175865
0.512000000000000344,0.007297954900115589
0.513000000000000345,0.003126697810404111
0.514000000000000346,-0.000989036556273548
0.515000000000000346,-0.005049597139490736
0.516000000000000347,-0.009055332254508042
0.517000000000000348,-0.013006589687886472
0.518000000000000349,-0.016903716787403711
0.519000000000000350,-0.020747060546467799
0.520000000000000351,-0.024536967683147969
0.521000000000000352,-0.028273784714012894
0.522000000000000353,-0.031957858022869580
0.523000000000000353,-0.035589533924617930
0.524000000000000354,-0.039169158724316422
0.525000000000000355,-0.042697078771628261
0.526000000000000356,-0.046173640510779809
0.527000000000000357,-0.049599190526190627
0.528000000000000358,-0.052974075583889654
0.529000000000000359,-0.056298642668882272
0.530000000000000360,-0.059573239018569438
0.531000000000000361,-0.062798212152396227
0.532000000000000361,-0.065973909897821786
0.533000000000000362,-0.069100680412764320
0.534000000000000363,-0.072178872204632177
0.535000000000000364,-0.075208834146086395
0.536000000000000365,-0.078190915487629978
0.537000000000000366,-0.081125465867178254
0.538000000000000367,-0.084012835316682535
0.539000000000000368,-0.086853374265986660
0.540000000000000369,-0.089647433543956795
0.541000000000000369,-0.092395364377070216
0.542000000000000370,-0.095097518385501331
0.543000000000000371,-0.097754247576867001
0.544000000000000372,-0.100365904337711614
0.545000000000000373,-0.102932841422831031
0.546000000000000374,-0.105455411942551883
0.547000000000000375,-0.107933969348038256
0.548000000000000376,-0.110368867414758126
0.549000000000000377,-0.112760460224160350
0.550000000000000377,-0.115109102143694159
0.551000000000000378,-0.117415147805220443
0.552000000000000379,-0.119678952081940723
0.553000000000000380,-0.121900870063894870
0.554000000000000381,-0.124081257032121889
0.555000000000000382,-0.126220468431587240
0.556000000000000383,-0.128318859842896232
0.557000000000000384,-0.130376786952944940
0.558000000000000385,-0.132394605524509934
0.559000000000000385,-0.134372671364899693
0.560000000000000386,-0.136311340293715999
0.561000000000000387,-0.138210968109791971
0.562000000000000388,-0.140071910557371421
0.563000000000000389,-0.141894523291613173
0.564000000000000390,-0.143679161843446146
0.565000000000000391,-0.145426181583868830
0.566000000000000392,-0.147135937687725787
0.567000000000000393,-0.148808785097041707
0.568000000000000393,-0.150445078483935707
0.569000000000000394,-0.152045172213198576
0.570000000000000395,-0.153609420304567534
0.571000000000000396,-0.155138176394738453
0.572000000000000397,-0.156631793699198163
0.573000000000000398,-0.158090624973867555
0.574000000000000399,-0.159515022476659551
0.575000000000000400,-0.160905337928939712
0.576000000000000401,-0.162261922476960668
0.577000000000000401,-0.163585126653319118
0.578000000000000402,-0.164875300338433922
0.579000000000000403,-0.166132792722107070
0.580000000000000404,-0.167357952265219934
0.581000000000000405,-0.168551126661545952
0.582000000000000406,-0.169712662799765407
0.583000000000000407,-0.170842906725675453
0.584000000000000408,-0.171942203604646598
0.585000000000000409,-0.173010897684337944
0.586000000000000409,-0.174049332257702749
0.587000000000000410,-0.175057849626328366
0.588000000000000411,-0.176036791064084319
0.589000000000000412,-0.176986496781171898
0.590000000000000413,-0.177907305888526601
0.591000000000000414,-0.178799556362645273
0.592000000000000415,-0.179663585010834653
0.593000000000000416,-0.180499727436895324
0.594000000000000417,-0.181308318007272318
0.595000000000000417,-0.182089689817692080
0.596000000000000418,-0.182844174660266007
0.597000000000000419,-0.183572102991132496
0.598000000000000420,-0.184273803898588051
0.599000000000000421,-0.184949605071775963
0.600000000000000422,-0.185599832769906825
0.601000000000000423,-0.186224811792029682
0.602000000000000424,-0.186824865447377558
0.603000000000000425,-0.187400315526292272
0.604000000000000425,-0.187951482271709380
0.605000000000000426,-0.188478684351253756
0.606000000000000427,-0.188982238829935978
0.607000000000000428,-0.189462461143418304
0.608000000000000429,-0.189919665071945382
0.609000000000000430,-0.190354162714825526
0.610000000000000431,-0.190766264465588781
0.611000000000000432,-0.191156278987726358
0.612000000000000433,-0.191524513191069279
0.613000000000000433,-0.191871272208804233
0.614000000000000434,-0.192196859375104834
0.615000000000000435,-0.192501576203397612
0.616000000000000436,-0.192785722365259288
0.617000000000000437,-0.193049595669960106
0.618000000000000438,-0.193293492044621817
