# hydroxyapatite-010-ph5_METSCA-AC
# h[nm],U(h)[kJ/mol]
0.149999999999999994,123.755154442405682857
0.150999999999999995,121.342797484501218719
0.151999999999999996,119.268969499538940227
0.152999999999999997,117.283044217771958984
0.153999999999999998,115.300111405833646927
0.154999999999999999,113.309821719554591368
0.156000000000000000,111.328399467631356856
0.157000000000000001,109.375653244913308981
0.158000000000000002,107.465786337184610488
0.159000000000000002,105.605293497101044409
0.160000000000000003,103.794065994751093740
0.161000000000000004,102.027580822611383837
0.162000000000000005,100.299104718080783982
0.163000000000000006,98.601453956687322489
0.164000000000000007,96.928184577168593705
0.165000000000000008,95.274254068358004588
0.166000000000000009,93.636264501701390373
0.167000000000000010,92.012412477972844727
0.168000000000000010,90.402259834390491733
0.169000000000000011,88.806416569692032681
0.170000000000000012,87.226202656512811018
0.171000000000000013,85.663332785713151907
0.172000000000000014,84.119649523257379542
0.173000000000000015,82.596916298663828115
0.174000000000000016,81.096671765298282253
0.175000000000000017,79.620140716073876774
0.176000000000000018,78.168193144996834576
0.177000000000000018,76.741341491053304935
0.178000000000000019,75.339765958593758910
0.179000000000000020,73.963358568857032083
0.180000000000000021,72.611777869727347934
0.181000000000000022,71.284507729810414389
0.182000000000000023,69.980915171223514903
0.183000000000000024,68.700303626058399686
0.184000000000000025,67.441959260619981364
0.185000000000000026,66.205189064548164879
0.186000000000000026,64.989350241123986507
0.187000000000000027,63.793871070495505649
0.188000000000000028,62.618263869875889327
0.189000000000000029,61.462130970019543952
0.190000000000000030,60.325164793275902753
0.191000000000000031,59.207143182375240542
0.192000000000000032,58.107921115748126795
0.193000000000000033,57.027419876521719289
0.194000000000000034,55.965614636915219648
0.195000000000000034,54.922521292720674069
0.196000000000000035,53.898183245866974289
0.197000000000000036,52.892658695816479053
0.198000000000000037,51.906008869328331912
0.199000000000000038,50.938287497447014118
0.200000000000000039,49.989531741230152306
0.201000000000000040,49.059754675154010783
0.202000000000000041,48.148939359729205023
0.203000000000000042,47.257034472257821278
0.204000000000000042,46.383951415960098075
0.205000000000000043,45.529562791644409003
0.206000000000000044,44.693702091226370499
0.207000000000000045,43.876164457183186585
0.208000000000000046,43.076708344910983328
0.209000000000000047,42.295057924454312115
0.210000000000000048,41.530906062820534430
0.211000000000000049,40.783917736830808565
0.212000000000000050,40.053733738088574512
0.213000000000000050,39.339974545218318269
0.214000000000000051,38.642244253230373374
0.215000000000000052,37.960134465040901830
0.216000000000000053,37.293228065281965655
0.217000000000000054,36.641102811155235486
0.218000000000000055,36.003334688901091454
0.219000000000000056,35.379500997245244776
0.220000000000000057,34.769183130798140269
0.221000000000000058,34.171969046736414555
0.222000000000000058,33.587455407152070563
0.223000000000000059,33.015249397227940165
0.224000000000000060,32.454970225925379168
0.225000000000000061,31.906250321217406452
0.226000000000000062,31.368736236152095387
0.227000000000000063,30.842089285278422750
0.228000000000000064,30.325985933313127418
0.229000000000000065,29.820117959472526081
0.230000000000000066,29.324192421743230597
0.231000000000000066,28.837931445616597159
0.232000000000000067,28.361071861561150342
0.233000000000000068,27.893364714840895857
0.234000000000000069,27.434574670288412790
0.235000000000000070,26.984479333383017519
0.236000000000000071,26.542868507533484035
0.237000000000000072,26.109543405877012390
0.238000000000000073,25.684315834236951304
0.239000000000000073,25.267007360171014341
0.240000000000000074,24.857448481327299561
0.241000000000000075,24.455477804639844663
0.242000000000000076,24.060941246260945547
0.243000000000000077,23.673691260565711048
0.244000000000000078,23.293586105089598703
0.245000000000000079,22.920489146883550546
0.246000000000000080,22.554268214501082213
0.247000000000000081,22.194794998671238062
0.248000000000000081,21.841944503663963673
0.249000000000000082,21.495594550418086754
0.250000000000000111,21.155625331676084500
0.251000000000000112,20.821919018649783339
0.252000000000000113,20.494359418122037653
0.253000000000000114,20.172831678367607822
0.254000000000000115,19.857222041842838678
0.255000000000000115,19.547417642244315772
0.256000000000000116,19.243306343263199665
0.257000000000000117,18.944776616157600557
0.258000000000000118,18.651717453124483370
0.259000000000000119,18.364018313366273105
0.260000000000000120,18.081569098711106847
0.261000000000000121,17.804260155652379183
0.262000000000000122,17.531982300716652645
0.263000000000000123,17.264626866144546113
0.264000000000000123,17.002085762970509109
0.265000000000000124,16.744251558711134464
0.266000000000000125,16.491017567011795109
0.267000000000000126,16.242277946755834250
0.268000000000000127,15.997927808303591846
0.269000000000000128,15.757863324699595609
0.270000000000000129,15.521981845859858851
0.271000000000000130,15.290182013926699511
0.272000000000000131,15.062363878153357533
0.273000000000000131,14.838429007852372621
0.274000000000000132,14.618280602109695820
0.275000000000000133,14.401823595128485422
0.276000000000000134,14.188964756222606667
0.277000000000000135,13.979612783627979766
0.278000000000000136,13.773678391440398627
0.279000000000000137,13.571074389120093784
0.280000000000000138,13.371715753126665049
0.281000000000000139,13.175519690361758407
0.282000000000000139,12.982405693202105468
0.283000000000000140,12.792295586001415586
0.284000000000000141,12.605113563026881351
0.285000000000000142,12.420786217874425716
0.286000000000000143,12.239242564476933595
0.287000000000000144,12.060414049881799770
0.288000000000000145,11.884234559028111988
0.289000000000000146,11.710640411801067629
0.290000000000000147,11.539570352680829757
0.291000000000000147,11.370965533336725883
0.292000000000000148,11.204769488544833678
0.293000000000000149,11.040928105828939465
0.294000000000000150,10.879389589241181824
0.295000000000000151,10.720104417710349054
0.296000000000000152,10.563025298393339924
0.297000000000000153,10.408107115468428816
0.298000000000000154,10.255306874808898243
0.299000000000000155,10.104583644972228385
0.300000000000000155,9.955898494933640208
0.301000000000000156,9.809214428984381229
0.302000000000000157,9.664496319203914609
0.303000000000000158,9.521710835902727155
0.304000000000000159,9.380826376417976675
0.305000000000000160,9.241812992628663181
0.306000000000000161,9.104642317540363905
0.307000000000000162,8.969287491271831669
0.308000000000000163,8.835723086757875322
0.309000000000000163,8.703925035464099125
0.310000000000000164,8.573870553390342764
0.311000000000000165,8.445538067620493194
0.312000000000000166,8.318907143657515491
0.313000000000000167,8.193958413763631654
0.314000000000000168,8.070673506506873096
0.315000000000000169,7.949034977697181148
0.316000000000000170,7.829026242877203501
0.317000000000000171,7.710631511515686043
0.318000000000000171,7.593835723034679575
0.319000000000000172,7.478624484785378002
0.320000000000000173,7.364984012072136821
0.321000000000000174,7.252901070309285103
0.322000000000000175,7.142362919381167963
0.323000000000000176,7.033357260262571131
0.324000000000000177,6.925872183943875271
0.325000000000000178,6.819896122693586804
0.326000000000000179,6.715417803679352815
0.327000000000000179,6.612426204958531173
0.328000000000000180,6.510910513839348823
0.329000000000000181,6.410860087604822510
0.330000000000000182,6.312264416583320603
0.331000000000000183,6.215113089541942415
0.332000000000000184,6.119395761372008913
0.333000000000000185,6.025102123029662415
0.334000000000000186,5.932221873688789060
0.335000000000000187,5.840744695058480040
0.336000000000000187,5.750660227812585568
0.337000000000000188,5.661958050075178051
0.338000000000000189,5.574627657901952027
0.339000000000000190,5.488658447694794162
0.340000000000000191,5.404039700484323916
0.341000000000000192,5.320760568012872227
0.342000000000000193,5.238810060548931169
0.343000000000000194,5.158177036362628698
0.344000000000000195,5.078850192791132478
0.345000000000000195,5.000818058821868917
0.346000000000000196,4.924068989121602513
0.347000000000000197,4.848591159439125775
0.348000000000000198,4.774372563309655426
0.349000000000000199,4.701401009989598201
0.350000000000000200,4.629664123550953470
0.351000000000000201,4.559149343065588944
0.352000000000000202,4.489843923810814097
0.353000000000000203,4.421734939428753286
0.354000000000000203,4.354809284973527816
0.355000000000000204,4.289053680781877986
0.356000000000000205,4.224454677104275468
0.357000000000000206,4.160998659435414027
0.358000000000000207,4.098671854484914334
0.359000000000000208,4.037460336730761767
0.360000000000000209,3.977350035499925607
0.361000000000000210,3.918326742522882711
0.362000000000000210,3.860376119910384318
0.363000000000000211,3.803483708503176075
0.364000000000000212,3.747634936547221685
0.365000000000000213,3.692815128649191703
0.366000000000000214,3.639009514968924552
0.367000000000000215,3.586203240607758858
0.368000000000000216,3.534381375153422766
0.369000000000000217,3.483528922344572010
0.370000000000000218,3.433630829819633412
0.371000000000000218,3.384671998916935820
0.372000000000000219,3.336637294494772199
0.373000000000000220,3.289511554742067911
0.374000000000000221,3.243279600952126973
0.375000000000000222,3.197926247233823460
0.376000000000000223,3.153436310136088938
0.377000000000000224,3.109794618163633562
0.378000000000000225,3.066986021163161436
0.379000000000000226,3.024995399561167808
0.380000000000000226,2.983807673435738383
0.381000000000000227,2.943407811406530072
0.382000000000000228,2.903780839328270247
0.383000000000000229,2.864911848774683190
0.384000000000000230,2.826786005301054061
0.385000000000000231,2.789388556474744707
0.386000000000000232,2.752704839664498415
0.387000000000000233,2.716720289580163872
0.388000000000000234,2.681420445555931842
0.389000000000000234,2.646790958570911290
0.390000000000000235,2.612817598002116881
0.391000000000000236,2.579486258105741392
0.392000000000000237,2.546782964223532009
0.393000000000000238,2.514693878711919961
0.394000000000000239,2.483205306592397577
0.395000000000000240,2.452303700922297658
0.396000000000000241,2.421975667885912120
0.397000000000000242,2.392207971606525430
0.398000000000000242,2.362987538680498822
0.399000000000000243,2.334301462435235841
0.400000000000000244,2.306137006913252741
0.401000000000000245,2.278481610585126660
0.402000000000000246,2.251322889794649562
0.403000000000000247,2.224648641939722893
0.404000000000000248,2.198446848393111885
0.405000000000000249,2.172705677167409366
0.406000000000000250,2.147413485328953264
0.407000000000000250,2.122558821165629439
0.408000000000000251,2.098130426113889335
0.409000000000000252,2.074117236450393253
0.410000000000000253,2.050508384754007096
0.411000000000000254,2.027293201143998580
0.412000000000000255,2.004461214300477856
0.413000000000000256,1.982002152273150797
0.414000000000000257,1.959905943084779611
0.415000000000000258,1.938162715135523628
0.416000000000000258,1.916762797414750752
0.417000000000000259,1.895696719526646534
0.418000000000000260,1.874955211536208921
0.419000000000000261,1.854529203642107049
0.420000000000000262,1.834409825682962403
0.421000000000000263,1.814588406483496730
0.422000000000000264,1.795056473047150991
0.423000000000000265,1.775805749601522265
0.424000000000000266,1.756828156503064120
0.425000000000000266,1.738115809007435120
0.426000000000000267,1.719661015911722046
0.427000000000000268,1.701456278074784390
0.428000000000000269,1.683494286821841213
0.429000000000000270,1.665767922239300702
0.430000000000000271,1.648270251365826722
0.431000000000000272,1.630994526285407087
0.432000000000000273,1.613934182128207606
0.433000000000000274,1.597082834984773880
0.434000000000000274,1.580434279739092007
0.435000000000000275,1.563982487825882117
0.436000000000000276,1.547721604917348115
0.437000000000000277,1.531645948544511970
0.438000000000000278,1.515750005658119237
0.439000000000000279,1.500028430133944379
0.440000000000000280,1.484476040227239446
0.441000000000000281,1.469087815980914424
0.442000000000000282,1.453858896591830874
0.443000000000000282,1.438784577739622428
0.444000000000000283,1.423860308882114678
0.445000000000000284,1.409081690521440056
0.446000000000000285,1.394444471444752365
0.447000000000000286,1.379944545943233791
0.448000000000000287,1.365577951013129843
0.449000000000000288,1.351340863542205950
0.450000000000000289,1.337229597485060539
0.451000000000000290,1.323240601030502450
0.452000000000000290,1.309370453764060915
0.453000000000000291,1.295615863828676551
0.454000000000000292,1.281973665086339143
0.455000000000000293,1.268440814283466667
0.456000000000000294,1.255014388222574384
0.457000000000000295,1.241691580942749118
0.458000000000000296,1.228469700911284601
0.459000000000000297,1.215346168228716994
0.460000000000000298,1.202318511849420624
0.461000000000000298,1.189384366819764782
0.462000000000000299,1.176541471535764938
0.463000000000000300,1.163787665022057993
0.464000000000000301,1.151120884233866715
0.465000000000000302,1.138539161383620435
0.466000000000000303,1.126040621293712185
0.467000000000000304,1.113623478776808451
0.468000000000000305,1.101286036045079353
0.469000000000000306,1.089026680149541848
0.470000000000000306,1.076843880450675695
0.471000000000000307,1.064736186121431061
0.472000000000000308,1.052702223683546157
0.473000000000000309,1.040740694578111469
0.474000000000000310,1.028850372771247024
0.475000000000000311,1.017030102395586555
0.476000000000000312,1.005278795428319771
0.477000000000000313,0.993595429406352815
0.478000000000000314,0.981979045179222076
0.479000000000000314,0.970428744700145507
0.480000000000000315,0.958943688855751319
0.481000000000000316,0.947523095334769749
0.482000000000000317,0.936166236536059793
0.483000000000000318,0.924872437516192747
0.484000000000000319,0.913641073976833473
0.485000000000000320,0.902471570292064262
0.486000000000000321,0.891363397575758221
0.487000000000000322,0.880316071789074561
0.488000000000000322,0.869329151888133422
0.489000000000000323,0.858402238011785612
0.490000000000000324,0.847534969709481167
0.491000000000000325,0.836727024209117820
0.492000000000000326,0.825978114724758683
0.493000000000000327,0.815287988804018982
0.494000000000000328,0.804656426714984385
0.495000000000000329,0.794083239872376168
0.496000000000000330,0.783568269302789999
0.497000000000000330,0.773111384148609027
0.498000000000000331,0.762712480210443688
0.499000000000000332,0.752371478527634752
0.500000000000000333,0.742088323996518584
0.501000000000000334,0.731862984026136365
0.502000000000000335,0.721695447230894738
0.503000000000000336,0.711585722159863376
0.504000000000000337,0.701533836062222638
0.505000000000000338,0.691539833688456618
0.506000000000000338,0.681603776126822103
0.507000000000000339,0.671725739674618016
0.508000000000000340,0.661905814743811938
0.509000000000000341,0.652144104800467361
0.510000000000000342,0.642440725337553031
0.511000000000000343,0.632795802880539937
0.512000000000000344,0.623209474025341548
0.513000000000000345,0.613681884508038844
0.514000000000000346,0.604213188305826931
0.515000000000000346,0.594803546768721381
0.516000000000000347,0.585453127781430216
0.517000000000000348,0.576162104954838439
0.518000000000000349,0.566930656846605929
0.519000000000000350,0.557758966210277096
0.520000000000000351,0.548647219272395459
0.521000000000000352,0.539595605037011206
0.522000000000000353,0.530604314617110662
0.523000000000000353,0.521673540592321516
0.524000000000000354,0.512803476392415747
0.525000000000000355,0.503994315706008722
0.526000000000000356,0.495246251913946112
0.527000000000000357,0.486559477546780528
0.528000000000000358,0.477934183765843845
0.529000000000000359,0.469370559867322512
0.530000000000000360,0.460868792808853622
0.531000000000000361,0.452429066758042342
0.532000000000000361,0.444051562662420796
0.533000000000000362,0.435736457840286306
0.534000000000000363,0.427483925591933267
0.535000000000000364,0.419294134830702769
0.536000000000000365,0.411167249733411011
0.537000000000000366,0.403103429409575109
0.538000000000000367,0.395102827589014216
0.539000000000000368,0.387165592327233188
0.540000000000000369,0.379291865728208055
0.541000000000000369,0.371481783683981770
0.542000000000000370,0.363735475630699689
0.543000000000000371,0.356053064320525192
0.544000000000000372,0.348434665609020366
0.545000000000000373,0.340880388257527422
0.546000000000000374,0.333390333750085921
0.547000000000000375,0.325964596124476591
0.548000000000000376,0.318603261816901795
0.549000000000000377,0.311306409519945815
0.550000000000000377,0.304074110053310531
0.551000000000000378,0.296906426247002142
0.552000000000000379,0.289803412836477980
0.553000000000000380,0.282765116369419256
0.554000000000000381,0.275791575123711774
0.555000000000000382,0.268882819036222465
0.556000000000000383,0.262038869642071293
0.557000000000000384,0.255259740023924597
0.558000000000000385,0.248545434771063001
0.559000000000000385,0.241895949947765754
0.560000000000000386,0.235311273070725108
0.561000000000000387,0.228791383095138634
0.562000000000000388,0.222336250409149561
0.563000000000000389,0.215945836836272498
0.564000000000000390,0.209620095645557614
0.565000000000000391,0.203358971569109703
0.566000000000000392,0.197162400826717987
0.567000000000000393,0.191030311157236565
0.568000000000000393,0.184962621856505693
0.569000000000000394,0.178959243821451730
0.570000000000000395,0.173020079600135934
0.571000000000000396,0.167145023447488494
0.572000000000000397,0.161333961386416591
0.573000000000000398,0.155586771274094454
0.574000000000000399,0.149903322873132960
0.575000000000000400,0.144283477927416193
0.576000000000000401,0.138727090242378004
0.577000000000000401,0.133234005769425845
0.578000000000000402,0.127804062694376469
0.579000000000000403,0.122437091529635153
0.580000000000000404,0.117132915209881755
0.581000000000000405,0.111891349191139855
0.582000000000000406,0.106712201552934441
0.583000000000000407,0.101595273103420938
0.584000000000000408,0.096540357487248082
0.585000000000000409,0.091547241295997658
0.586000000000000409,0.086615704181016523
0.587000000000000410,0.081745518968450920
0.588000000000000411,0.076936451776369832
0.589000000000000412,0.072188262133731654
0.590000000000000413,0.067500703101129697
0.591000000000000414,0.062873521393095988
0.592000000000000415,0.058306457501848194
0.593000000000000416,0.053799245822333398
0.594000000000000417,0.049351614778440758
0.595000000000000417,0.044963286950208403
0.596000000000000418,0.040633979201974715
0.597000000000000419,0.036363402811260839
0.598000000000000420,0.032151263598347725
0.599000000000000421,0.027997262056362188
0.600000000000000422,0.023901093481809445
0.601000000000000423,0.019862448105442510
0.602000000000000424,0.015881011223330015
0.603000000000000425,0.011956463328043532
0.604000000000000425,0.008088480239913199
0.605000000000000426,0.004276733238176750
0.606000000000000427,0.000520889191982876
0.607000000000000428,-0.003179389308792563
0.608000000000000429,-0.006824443823134014
0.609000000000000430,-0.010414619928764985
0.610000000000000431,-0.013950267092580603
0.611000000000000432,-0.017431738541567137
0.612000000000000433,-0.020859391134335603
0.613000000000000433,-0.024233585233349536
0.614000000000000434,-0.027554684577857182
0.615000000000000435,-0.030823056157626306
0.616000000000000436,-0.034039070087516700
0.617000000000000437,-0.037203099482982629
0.618000000000000438,-0.040315520336491502
0.619000000000000439,-0.043376711394956621
