# hydroxyapatite-010-ph5_CS-3970-AC
# h[nm],U(h)[kJ/mol]
0.149999999999999994,65.161051902474326880
0.150999999999999995,63.858645965943424017
0.151999999999999996,62.743345570976600811
0.152999999999999997,61.682534067986011905
0.153999999999999998,60.626266824837941272
0.154999999999999999,59.563379980357503030
0.156000000000000000,58.498084923662574397
0.157000000000000001,57.438441385343949719
0.158000000000000002,56.391420315203880875
0.159000000000000002,55.361393078508058352
0.160000000000000003,54.350221289403201297
0.161000000000000004,53.357945505415273146
0.162000000000000005,52.383564316715975906
0.163000000000000006,51.425679653021120430
0.164000000000000007,50.482939129197220041
0.165000000000000008,49.554283532107319843
0.166000000000000009,48.639039917540216607
0.167000000000000010,47.736908657075161955
0.168000000000000010,46.847888509802743329
0.169000000000000011,45.972174588975306619
0.170000000000000012,45.110053904267815028
0.171000000000000013,44.261813961566197406
0.172000000000000014,43.427672503011002902
0.173000000000000015,42.607731028847673826
0.174000000000000016,41.801951086166255322
0.175000000000000017,41.010150123279217382
0.176000000000000018,40.232012644785427824
0.177000000000000018,39.467112137813593620
0.178000000000000019,38.714939500789128601
0.179000000000000020,37.974934275878226231
0.180000000000000021,37.246515703591789759
0.181000000000000022,36.529111369353998384
0.182000000000000023,35.822181922769388507
0.183000000000000024,35.125240976813067562
0.184000000000000025,34.437869814600119867
0.185000000000000026,33.759726939903579535
0.186000000000000026,33.090552808730066658
0.187000000000000027,32.430170283879149906
0.188000000000000028,31.778481476617550072
0.189000000000000029,31.135461694627167617
0.190000000000000030,30.501151218154017641
0.191000000000000031,29.875645590498361770
0.192000000000000032,29.259085046646880812
0.193000000000000033,28.651643625039866947
0.194000000000000034,28.053518420355931795
0.195000000000000034,27.464919346131427602
0.196000000000000035,26.886059689738306844
0.197000000000000036,26.317147662044270362
0.198000000000000037,25.758379072124292009
0.199000000000000038,25.209931194888063999
0.200000000000000039,24.671957846899150724
0.201000000000000040,24.144585642896895905
0.202000000000000041,23.627911372099077880
0.203000000000000042,23.122000408500433366
0.204000000000000042,22.626886052161182761
0.205000000000000043,22.142569687893448815
0.206000000000000044,21.669021642773309111
0.207000000000000045,21.206182623535845266
0.208000000000000046,20.753965618209548438
0.209000000000000047,20.312258152461634353
0.210000000000000048,19.880924799293655525
0.211000000000000049,19.459809850285985533
0.212000000000000050,19.048740066976819207
0.213000000000000050,18.647527441708742657
0.214000000000000051,18.255971908004703153
0.215000000000000052,17.873863950947772139
0.216000000000000053,17.500987077909666567
0.217000000000000054,17.137120119138700147
0.218000000000000055,16.782039336069679791
0.219000000000000056,16.435520322692571682
0.220000000000000057,16.097339691885501622
0.221000000000000058,15.767276544286238149
0.222000000000000058,15.445113722067045359
0.223000000000000059,15.130638853938156885
0.224000000000000060,14.823645200888389439
0.225000000000000061,14.523932314643369423
0.226000000000000062,14.231306522651612667
0.227000000000000063,13.945581254667951399
0.228000000000000064,13.666577226763788389
0.229000000000000065,13.394122498923891840
0.230000000000000066,13.128052422356365270
0.231000000000000066,12.868209492307869368
0.232000000000000067,12.614443121597858521
0.233000000000000068,12.366609349314995114
0.234000000000000069,12.124570498203476987
0.235000000000000070,11.888194793247576442
0.236000000000000071,11.657355952875843030
0.237000000000000072,11.431932763082732762
0.238000000000000073,11.211808643631709259
0.239000000000000073,10.996871214382418103
0.240000000000000074,10.787011868691982031
0.241000000000000075,10.582125359792977193
0.242000000000000076,10.382109405057951435
0.243000000000000077,10.186864312131003629
0.244000000000000078,9.996292630046982097
0.245000000000000079,9.810298827671346089
0.246000000000000080,9.628789001080747312
0.247000000000000081,9.451670610865566147
0.248000000000000081,9.278852249770471516
0.249000000000000082,9.110243440594894437
0.250000000000000111,8.945754463849338478
0.251000000000000112,8.785296214302150020
0.252000000000000113,8.628780085250230769
0.253000000000000114,8.476117879102943675
0.254000000000000115,8.327221742674897342
0.255000000000000115,8.182004125437657649
0.256000000000000116,8.040377758876346093
0.257000000000000117,7.902255655031493298
0.258000000000000118,7.767551122274110931
0.259000000000000119,7.636177796358774472
0.260000000000000120,7.508049684821645364
0.261000000000000121,7.383081222834215751
0.262000000000000122,7.261187338685036075
0.263000000000000123,7.142283527138519439
0.264000000000000123,7.026285929008139419
0.265000000000000124,6.913111415379053604
0.266000000000000125,6.802677675019727310
0.267000000000000126,6.694903303631049241
0.268000000000000127,6.589707893693386609
0.269000000000000128,6.487012123784912987
0.270000000000000129,6.386737846357193327
0.271000000000000130,6.288808173064722951
0.272000000000000131,6.193147556853686453
0.273000000000000131,6.099681870119819216
0.274000000000000132,6.008338478345787159
0.275000000000000133,5.919046308724312588
0.276000000000000134,5.831735913363649715
0.277000000000000135,5.746339526757060057
0.278000000000000136,5.662791117277032882
0.279000000000000137,5.581026432528263470
0.280000000000000138,5.500983038460800501
0.281000000000000139,5.422600352206166541
0.282000000000000139,5.345819668654877788
0.283000000000000140,5.270584180843695954
0.284000000000000141,5.196838994265465139
0.285000000000000142,5.124531135253356240
0.286000000000000143,5.053609553625511452
0.287000000000000144,4.984025119805339799
0.288000000000000145,4.915730616657294050
0.289000000000000146,4.848680726298642440
0.290000000000000147,4.782832012164009328
0.291000000000000147,4.718142896612461890
0.292000000000000148,4.654573634376211189
0.293000000000000149,4.592086282156399690
0.294000000000000150,4.530644664674913003
0.295000000000000151,4.470214337492047996
0.296000000000000152,4.410762546898557623
0.297000000000000153,4.352258187187143967
0.298000000000000154,4.294671755603256535
0.299000000000000155,4.237975305268236959
0.300000000000000155,4.182142396359631142
0.301000000000000156,4.127148045824258205
0.302000000000000157,4.072968675889091728
0.303000000000000158,4.019582061624039859
0.304000000000000159,3.966967277798732372
0.305000000000000160,3.915104645263273397
0.306000000000000161,3.863975677070111026
0.307000000000000162,3.813563024541241298
0.308000000000000163,3.763850423471995832
0.309000000000000163,3.714822640649411145
0.310000000000000164,3.666465420850246293
0.311000000000000165,3.618765434470662345
0.312000000000000166,3.571710225926955751
0.313000000000000167,3.525288162954191673
0.314000000000000168,3.479488386917481080
0.315000000000000169,3.434300764238807258
0.316000000000000170,3.389715839030935651
0.317000000000000171,3.345724787018947488
0.318000000000000171,3.302319370819469135
0.319000000000000172,3.259491896637522590
0.320000000000000173,3.217235172431467394
0.321000000000000174,3.175542467587397777
0.322000000000000175,3.134407474135760818
0.323000000000000176,3.093824269534975802
0.324000000000000177,3.053787281039213930
0.325000000000000178,3.014291251660508486
0.326000000000000179,2.975331207728714844
0.327000000000000179,2.936902428046860969
0.328000000000000180,2.899000414633749134
0.329000000000000181,2.861620865040520378
0.330000000000000182,2.824759646223275134
0.331000000000000183,2.788412769949426107
0.332000000000000184,2.752576369711742021
0.333000000000000185,2.717246679120509434
0.334000000000000186,2.682420011741146304
0.335000000000000187,2.648092742341935146
0.336000000000000187,2.614261289514097530
0.337000000000000188,2.580922099624483934
0.338000000000000189,2.548071632059296210
0.339000000000000190,2.515706345715875702
0.340000000000000191,2.483822686698447413
0.341000000000000192,2.452417077172668769
0.342000000000000193,2.421485905333281785
0.343000000000000194,2.391025516438571863
0.344000000000000195,2.361032204865233464
0.345000000000000195,2.331502207136967542
0.346000000000000196,2.302431695880435392
0.347000000000000197,2.273816774662335227
0.348000000000000198,2.245653473661796795
0.349000000000000199,2.217937746132862209
0.350000000000000200,2.190665465612420704
0.351000000000000201,2.163832423829779916
0.352000000000000202,2.137434329274888967
0.353000000000000203,2.111466806383153205
0.354000000000000203,2.085925395295820550
0.355000000000000204,2.060805552156016240
0.356000000000000205,2.036102649901577966
0.357000000000000206,2.011811979517029947
0.358000000000000207,1.987928751708348374
0.359000000000000208,1.964448098965276390
0.360000000000000209,1.941365077977277975
0.361000000000000210,1.918674672370573875
0.362000000000000210,1.896371795734859145
0.363000000000000211,1.874451294909744714
0.364000000000000212,1.852907953502145988
0.365000000000000213,1.831736495607257709
0.366000000000000214,1.810931589706944234
0.367000000000000215,1.790487852720728412
0.368000000000000216,1.770399854185735311
0.369000000000000217,1.750662120543329037
0.370000000000000218,1.731269139511235178
0.371000000000000218,1.712215364521301852
0.372000000000000219,1.693495219204077085
0.373000000000000220,1.675103101902649438
0.374000000000000221,1.657033390199221135
0.375000000000000222,1.639280445439049716
0.376000000000000223,1.621838617237333136
0.377000000000000224,1.604702247955768879
0.378000000000000225,1.587865677136386600
0.379000000000000226,1.571323245881282249
0.380000000000000226,1.555069301167727680
0.381000000000000227,1.539098200089108470
0.382000000000000228,1.523404314012874128
0.383000000000000229,1.507982032647580350
0.384000000000000230,1.492825768011878829
0.385000000000000231,1.477929958298951796
0.386000000000000232,1.463289071630769822
0.387000000000000233,1.448897609697034294
0.388000000000000234,1.434750111274486262
0.389000000000000234,1.420841155622708740
0.390000000000000235,1.407165365753265451
0.391000000000000236,1.393717411569475484
0.392000000000000237,1.380492012874664720
0.393000000000000238,1.367483942247236905
0.394000000000000239,1.354688027781338899
0.395000000000000240,1.342099155692338064
0.396000000000000241,1.329712272786718330
0.397000000000000242,1.317522388796397603
0.398000000000000242,1.305524578577779815
0.399000000000000243,1.293713984176240173
0.400000000000000244,1.282085816756979746
0.401000000000000245,1.270635358403473969
0.402000000000000246,1.259357963785081580
0.403000000000000247,1.248249061695457351
0.404000000000000248,1.237304156463790772
0.405000000000000249,1.226518829240960118
0.406000000000000250,1.215888739162968246
0.407000000000000250,1.205409624394101709
0.408000000000000251,1.195077303052459738
0.409000000000000252,1.184887674020604909
0.410000000000000253,1.174836717644181183
0.411000000000000254,1.164920496321475651
0.412000000000000255,1.155135154986980384
0.413000000000000256,1.145476921492021516
0.414000000000000257,1.135942106885717617
0.415000000000000258,1.126527105599389955
0.416000000000000258,1.117228395537778862
0.417000000000000259,1.108042538080291406
0.418000000000000260,1.098966177995626792
0.419000000000000261,1.089996043273068871
0.420000000000000262,1.081128944873791742
0.421000000000000263,1.072361776405446721
0.422000000000000264,1.063691513723385995
0.423000000000000265,1.055115214461750828
0.424000000000000266,1.046630017497683474
0.425000000000000266,1.038233142351911775
0.426000000000000267,1.029921888528845475
0.427000000000000268,1.021693634799348382
0.428000000000000269,1.013545838429284585
0.429000000000000270,1.005476034356851400
0.430000000000000271,0.997481834321728655
0.431000000000000272,0.989560925948936521
0.432000000000000273,0.981711071790319245
0.433000000000000274,0.973930108326421573
0.434000000000000274,0.966215944931530957
0.435000000000000275,0.958566562804575861
0.436000000000000276,0.950980013868455543
0.437000000000000277,0.943454419640392339
0.438000000000000278,0.935987970075747633
0.439000000000000279,0.928578922387715999
0.440000000000000280,0.921225599845229226
0.441000000000000281,0.913926390551345058
0.442000000000000282,0.906679746204259396
0.443000000000000282,0.899484180843134418
0.444000000000000283,0.892338269580699950
0.445000000000000284,0.885240647324663676
0.446000000000000285,0.878190007489804692
0.447000000000000286,0.871185100702551396
0.448000000000000287,0.864224733499858067
0.449000000000000288,0.857307767024000023
0.450000000000000289,0.850433115714953836
0.451000000000000290,0.843599746001888695
0.452000000000000290,0.836806674995239641
0.453000000000000291,0.830052969180802735
0.454000000000000292,0.823337743117172671
0.455000000000000293,0.816660158137826331
0.456000000000000294,0.810019421059063327
0.457000000000000295,0.803414782894963819
0.458000000000000296,0.796845537580463947
0.459000000000000297,0.790311020703589939
0.460000000000000298,0.783810608247824891
0.461000000000000298,0.777343715345549358
0.462000000000000299,0.770909795043401069
0.463000000000000300,0.764508337080407885
0.464000000000000301,0.758138866679616830
0.465000000000000302,0.751800943353969520
0.466000000000000303,0.745494159727069339
0.467000000000000304,0.739218140369466647
0.468000000000000305,0.732972540651033566
0.469000000000000306,0.726757045609957908
0.470000000000000306,0.720571368838823112
0.471000000000000307,0.714415251388255124
0.472000000000000308,0.708288460688497601
0.473000000000000309,0.702190789489299361
0.474000000000000310,0.696122054818448799
0.475000000000000311,0.690082096959218516
0.476000000000000312,0.684070778447007699
0.477000000000000313,0.678087983085372992
0.478000000000000314,0.672133614981670569
0.479000000000000314,0.666207597602435531
0.480000000000000315,0.660309872848661827
0.481000000000000316,0.654440400151054424
0.482000000000000317,0.648599155585354525
0.483000000000000318,0.642786131007768380
0.484000000000000319,0.637001333210537424
0.485000000000000320,0.631244783097649531
0.486000000000000321,0.625516514880657515
0.487000000000000322,0.619816575294581784
0.488000000000000322,0.614145022833835430
0.489000000000000323,0.608501927008067156
0.490000000000000324,0.602887367617851444
0.491000000000000325,0.597301434050096502
0.492000000000000326,0.591744224593045431
0.493000000000000327,0.586215845770709065
0.494000000000000328,0.580716411696596491
0.495000000000000329,0.575246043446534405
0.496000000000000330,0.569804868450433544
0.497000000000000330,0.564393019902742377
0.498000000000000331,0.559010636191455079
0.499000000000000332,0.553657860345386554
0.500000000000000333,0.548334839499518001
0.501000000000000334,0.543041724378188428
0.502000000000000335,0.537778668795849901
0.503000000000000336,0.532545829175172125
0.504000000000000337,0.527343364082206723
0.505000000000000338,0.522171433778373273
0.506000000000000338,0.517030199788974021
0.507000000000000339,0.511919824487973241
0.508000000000000340,0.506840470698768697
0.509000000000000341,0.501792301310648670
0.510000000000000342,0.496775478910677748
0.511000000000000343,0.491790165430693094
0.512000000000000344,0.486836521809142053
0.513000000000000345,0.481914707667460085
0.514000000000000346,0.477024881000677858
0.515000000000000346,0.472167197881988077
0.516000000000000347,0.467341812180963267
0.517000000000000348,0.462548875295108020
0.518000000000000349,0.457788535894486426
0.519000000000000350,0.453060939679090335
0.520000000000000351,0.448366229148677964
0.521000000000000352,0.443704543384764172
0.522000000000000353,0.439076017844496014
0.523000000000000353,0.434480784166087097
0.524000000000000354,0.429918969985547683
0.525000000000000355,0.425390698764397890
0.526000000000000356,0.420896089628102543
0.527000000000000357,0.416435257214907317
0.528000000000000358,0.412008311534823757
0.529000000000000359,0.407615357838469528
0.530000000000000360,0.403256496495487338
0.531000000000000361,0.398931822882266085
0.532000000000000361,0.394641427278699330
0.533000000000000362,0.390385394773702710
0.534000000000000363,0.386163805179241149
0.535000000000000364,0.381976732952580167
0.536000000000000365,0.377824247126534618
0.537000000000000366,0.373706411247427706
0.538000000000000367,0.369623283320545892
0.539000000000000368,0.365574915762800379
0.540000000000000369,0.361561355362398584
0.541000000000000369,0.357582643245241916
0.542000000000000370,0.353638814847862581
0.543000000000000371,0.349729899896621510
0.544000000000000372,0.345855922392976800
0.545000000000000373,0.342016900604582896
0.546000000000000374,0.338212847062002608
0.547000000000000375,0.334443768560834076
0.548000000000000376,0.330709666169014482
0.549000000000000377,0.327010535239126654
0.550000000000000377,0.323346365425477011
0.551000000000000378,0.319717140705780611
0.552000000000000379,0.316122839407224909
0.553000000000000380,0.312563434236750814
0.554000000000000381,0.309038892315362634
0.555000000000000382,0.305549175216260682
0.556000000000000383,0.302094239006668430
0.557000000000000384,0.298674034293127832
0.558000000000000385,0.295288506270143913
0.559000000000000385,0.291937594771978337
0.560000000000000386,0.288621234327450238
0.561000000000000387,0.285339354217589436
0.562000000000000388,0.282091878535982332
0.563000000000000389,0.278878726251661990
0.564000000000000390,0.275699811274413786
0.565000000000000391,0.272555042522331203
0.566000000000000392,0.269444323991516410
0.567000000000000393,0.266367554827758035
0.568000000000000393,0.263324629400093602
0.569000000000000394,0.260315437376101966
0.570000000000000395,0.257339863798819568
0.571000000000000396,0.254397789165167088
0.572000000000000397,0.251489089505745445
0.573000000000000398,0.248613636465933485
0.574000000000000399,0.245771297388131860
0.575000000000000400,0.242961935395090256
0.576000000000000401,0.240185409474196504
0.577000000000000401,0.237441574562617941
0.578000000000000402,0.234730281633234034
0.579000000000000403,0.232051377781247792
0.580000000000000404,0.229404706311372802
0.581000000000000405,0.226790106825553728
0.582000000000000406,0.224207415311090397
0.583000000000000407,0.221656464229123745
0.584000000000000408,0.219137082603380773
0.585000000000000409,0.216649096109120670
0.586000000000000409,0.214192327162209262
0.587000000000000410,0.211766595008234304
0.588000000000000411,0.209371715811636966
0.589000000000000412,0.207007502744741168
0.590000000000000413,0.204673766076675812
0.591000000000000414,0.202370313262087681
0.592000000000000415,0.200096949029614057
0.593000000000000416,0.197853475470054746
0.594000000000000417,0.195639692124190967
0.595000000000000417,0.193455396070194047
0.596000000000000418,0.191300382010603814
0.597000000000000419,0.189174442358793382
0.598000000000000420,0.187077367324914368
0.599000000000000421,0.185008945001252423
0.600000000000000422,0.182968961446973333
0.601000000000000423,0.180957200772221632
0.602000000000000424,0.178973445221520311
0.603000000000000425,0.177017475256450729
0.604000000000000425,0.175089069637593492
0.605000000000000426,0.173188005505675202
0.606000000000000427,0.171314058461896318
0.607000000000000428,0.169467002647454762
0.608000000000000429,0.167646610822159925
0.609000000000000430,0.165852654442212005
0.610000000000000431,0.164084903737032384
0.611000000000000432,0.162343127785189167
0.612000000000000433,0.160627094589375352
0.613000000000000433,0.158936571150406131
0.614000000000000434,0.157271323540254221
0.615000000000000435,0.155631116974076417
0.616000000000000436,0.154015715881239273
0.617000000000000437,0.152424883975308623
0.618000000000000438,0.150858384323014738
0.619000000000000439,0.149315979412173033
0.620000000000000440,0.147797431218541747
0.621000000000000441,0.146302501271622698
