# hydroxyapatite-010-ph5_CS-6334-AC
# h[nm],U(h)[kJ/mol]
0.149999999999999994,120.078370407864468916
0.150999999999999995,117.587578146548665359
0.151999999999999996,115.272088954628856072
0.152999999999999997,113.025582742333995157
0.153999999999999998,110.808651905072750310
0.154999999999999999,108.612419519487872321
0.156000000000000000,106.439628529877239771
0.157000000000000001,104.295643793356703100
0.158000000000000002,102.184805082006477051
0.159000000000000002,100.109460393253058896
0.160000000000000003,98.070179332097467295
0.161000000000000004,96.066352718959151957
0.162000000000000005,94.096797062728569472
0.163000000000000006,92.160212582583625363
0.164000000000000007,90.255463144943860243
0.165000000000000008,88.381701676998815742
0.166000000000000009,86.538383941302882363
0.167000000000000010,84.725214401210521942
0.168000000000000010,82.942060484135396337
0.169000000000000011,81.188861557010724823
0.170000000000000012,79.465549301684760053
0.171000000000000013,77.771988218192959152
0.172000000000000014,76.107939070698591877
0.173000000000000015,74.473044124243500619
0.174000000000000016,72.866830684332768442
0.175000000000000017,71.288728364964455864
0.176000000000000018,69.738095308614020951
0.177000000000000018,68.214248951338063875
0.178000000000000019,66.716497620310008188
0.179000000000000020,65.244170086552855992
0.180000000000000021,63.796641045467254116
0.181000000000000022,62.373351280899726135
0.182000000000000023,60.973821939244700729
0.183000000000000024,59.597662878492393190
0.184000000000000025,58.244575461081900869
0.185000000000000026,56.914350438142250255
0.186000000000000026,55.606861741986428171
0.187000000000000027,54.322057082355208024
0.188000000000000028,53.059946249233732374
0.189000000000000029,51.820587979406049328
0.190000000000000030,50.604076161624412578
0.191000000000000031,49.410526050278789967
0.192000000000000032,48.240061041113712292
0.193000000000000033,47.092800443733111138
0.194000000000000034,45.968848570971999834
0.195000000000000034,44.868285359328112349
0.196000000000000035,43.791158640512591660
0.197000000000000036,42.737478103420265541
0.198000000000000037,41.707210919010165640
0.199000000000000038,40.700278947503996108
0.200000000000000039,39.716557407173766592
0.201000000000000040,38.755874855633067000
0.202000000000000041,37.818014316591174406
0.203000000000000042,36.902715375983305535
0.204000000000000042,36.009677069756982348
0.205000000000000043,35.138561389930046630
0.206000000000000044,34.288997244491710603
0.207000000000000045,33.460584719086220673
0.208000000000000046,32.652899503123805403
0.209000000000000047,31.865497359091126128
0.210000000000000048,31.097918530612663091
0.211000000000000049,30.349692001618915782
0.212000000000000050,29.620339535308840340
0.213000000000000050,28.909379437076985653
0.214000000000000051,28.216329999932856509
0.215000000000000052,27.540712603987344664
0.216000000000000053,26.882054453209455858
0.217000000000000054,26.239890942817549302
0.218000000000000055,25.613767659366509122
0.219000000000000056,25.003242022868988670
0.220000000000000057,24.407884586213445033
0.221000000000000058,23.827280011813506633
0.222000000000000058,23.261027748942630922
0.223000000000000059,22.708742437697303274
0.224000000000000060,22.170054067107038520
0.225000000000000061,21.644607915690137645
0.226000000000000062,21.132064302857646254
0.227000000000000063,20.632098179102655422
0.228000000000000064,20.144398581983551821
0.229000000000000065,19.668667983610024663
0.230000000000000066,19.204621553758936869
0.231000000000000066,18.751986360957371147
0.232000000000000067,18.310500531942050628
0.233000000000000068,17.879912387895508630
0.234000000000000069,17.459979573820220367
0.235000000000000070,17.050468195385136028
0.236000000000000071,16.651151975598430965
0.237000000000000072,16.261811441754304042
0.238000000000000073,15.882233151292144413
0.239000000000000073,15.512208963510005333
0.240000000000000074,15.151535362501070026
0.241000000000000075,14.800012835241830089
0.242000000000000076,14.457445307455472516
0.243000000000000077,14.123639638705663302
0.244000000000000078,13.798405177142424094
0.245000000000000079,13.481553373420045006
0.246000000000000080,13.172897452531364237
0.247000000000000081,12.872252141646388424
0.248000000000000081,12.579433451499898666
0.249000000000000082,12.294258508433589583
0.250000000000000111,12.016545433854739500
0.251000000000000112,11.746113267618111919
0.252000000000000113,11.482781931660058561
0.253000000000000114,11.226372230108287553
0.254000000000000115,10.976705882045335372
0.255000000000000115,10.733605583114346871
0.256000000000000116,10.496895092212046308
0.257000000000000117,10.266399339610108754
0.258000000000000118,10.041944552976071137
0.259000000000000119,9.823358397921234442
0.260000000000000120,9.610470129881361956
0.261000000000000121,9.403110754330985088
0.262000000000000122,9.201113192538613816
0.263000000000000123,9.004312450285507197
0.264000000000000123,8.812545787189218771
0.265000000000000124,8.625652884494368067
0.266000000000000125,8.443476009411655880
0.267000000000000126,8.265860174301902674
0.268000000000000127,8.092653289211241940
0.269000000000000128,7.923706306466369753
0.270000000000000129,7.758873356232312446
0.271000000000000130,7.598011872119367460
0.272000000000000131,7.440982706099606325
0.273000000000000131,7.287650232156129171
0.274000000000000132,7.137882438239579130
0.275000000000000133,6.991551006246163880
0.276000000000000134,6.848531379859823076
0.277000000000000135,6.708702820217794738
0.278000000000000136,6.571948449464255937
0.279000000000000137,6.438155282351050168
0.280000000000000138,6.307214246128326707
0.281000000000000139,6.179020189041262157
0.282000000000000139,6.053471877812905966
0.283000000000000140,5.930471984547480702
0.284000000000000141,5.809927063534428449
0.285000000000000142,5.691747518470914535
0.286000000000000143,5.575847560650606383
0.287000000000000144,5.462145158689622804
0.288000000000000145,5.350561980376737026
0.289000000000000146,5.241023327246080221
0.290000000000000147,5.133458062475229511
0.291000000000000147,5.027798532712514756
0.292000000000000148,4.923980484432981086
0.293000000000000149,4.821942975415032251
0.294000000000000150,4.721628281918325953
0.295000000000000151,4.622981802129425333
0.296000000000000152,4.525951956425030787
0.297000000000000153,4.430490084983659038
0.298000000000000154,4.336550343255956008
0.299000000000000155,4.244089595781689539
0.300000000000000155,4.153067308817927739
0.301000000000000156,4.063445442218955428
0.302000000000000157,3.975188340983126345
0.303000000000000158,3.888262626856959336
0.304000000000000159,3.802637090360872829
0.305000000000000160,3.718282583575727163
0.306000000000000161,3.635171914003699101
0.307000000000000162,3.553279739792045255
0.308000000000000163,3.472582466583635785
0.309000000000000163,3.393058146234032790
0.310000000000000164,3.314686377611360424
0.311000000000000165,3.237448209672562971
0.312000000000000166,3.161326046987601224
0.313000000000000167,3.086303557862103197
0.314000000000000168,3.012365585188819139
0.315000000000000169,2.939498060138849844
0.316000000000000170,2.867687918785418066
0.317000000000000171,2.796923021735523207
0.318000000000000171,2.727192076828615086
0.319000000000000172,2.658484564945807538
0.320000000000000173,2.590790668958967480
0.321000000000000174,2.524101205835533435
0.322000000000000175,2.458407561902355987
0.323000000000000176,2.393701631260403140
0.324000000000000177,2.329975757331513186
0.325000000000000178,2.267222677508655693
0.326000000000000179,2.205435470872150194
0.327000000000000179,2.144607508926449135
0.328000000000000180,2.084732409304632661
0.329000000000000181,2.025803992381279173
0.330000000000000182,1.967816240728784694
0.331000000000000183,1.910763261346775765
0.332000000000000184,1.854639250590182087
0.333000000000000185,1.799438461717517423
0.334000000000000186,1.745155174977710999
0.335000000000000187,1.691783670151281171
0.336000000000000187,1.639318201459272206
0.337000000000000188,1.587752974752031365
0.338000000000000189,1.537082126888317246
0.339000000000000190,1.487299707214646549
0.340000000000000191,1.438399661054447609
0.341000000000000192,1.390375815116230429
0.342000000000000193,1.343221864730591575
0.343000000000000194,1.296931362826134304
0.344000000000000195,1.251497710555590892
0.345000000000000195,1.206914149484045407
0.346000000000000196,1.163173755252951080
0.347000000000000197,1.120269432634810824
0.348000000000000198,1.078193911895210411
0.349000000000000199,1.036939746380764582
0.350000000000000200,0.996499311253386311
0.351000000000000201,0.956864803293549171
0.352000000000000202,0.918028241697301572
0.353000000000000203,0.879981469794097526
0.354000000000000203,0.842716157614865069
0.355000000000000204,0.806223805242193281
0.356000000000000205,0.770495746876881826
0.357000000000000206,0.735523155557541108
0.358000000000000207,0.701297048472668161
0.359000000000000208,0.667808292806817083
0.360000000000000209,0.635047612065126499
0.361000000000000210,0.603005592823085634
0.362000000000000210,0.571672691850625858
0.363000000000000211,0.541039243562315808
0.364000000000000212,0.511095467747712862
0.365000000000000213,0.481831477538378294
0.366000000000000214,0.453237287570374736
0.367000000000000215,0.425302822303397055
0.368000000000000216,0.398017924459784456
0.369000000000000217,0.371372363549145657
0.370000000000000218,0.345355844446094573
0.371000000000000218,0.319958015991000155
0.372000000000000219,0.295168479585437182
0.373000000000000220,0.270976797756042831
0.374000000000000221,0.247372502662429994
0.375000000000000222,0.224345104526584571
0.376000000000000223,0.201884099962819086
0.377000000000000224,0.179978980189247406
0.378000000000000225,0.158619239103191617
0.379000000000000226,0.137794381204608379
0.380000000000000226,0.117493929352942075
0.381000000000000227,0.097707432344492237
0.382000000000000228,0.078424472298454104
0.383000000000000229,0.059634671841281503
0.384000000000000230,0.041327701080238796
0.385000000000000231,0.023493284357970646
0.386000000000000232,0.006121206781382260
0.387000000000000233,-0.010798679481211205
0.388000000000000234,-0.027276449139379856
0.389000000000000234,-0.043322097960396565
0.390000000000000235,-0.058945537192506503
0.391000000000000236,-0.074156588233967688
0.392000000000000237,-0.088964977549258278
0.393000000000000238,-0.103380331833233224
0.394000000000000239,-0.117412173423219898
0.395000000000000240,-0.131069915958531208
0.396000000000000241,-0.144362860286212008
0.397000000000000242,-0.157300190611290108
0.398000000000000242,-0.169890970889397919
0.399000000000000243,-0.182144141458999292
0.400000000000000244,-0.194068515910197664
0.401000000000000245,-0.205672778186682365
0.402000000000000246,-0.216965479916867654
0.403000000000000247,-0.227955037970199031
0.404000000000000248,-0.238649732234126499
0.405000000000000249,-0.249057703607093561
0.406000000000000250,-0.259186952202572041
0.407000000000000250,-0.269045335759089954
0.408000000000000251,-0.278640568250903164
0.409000000000000252,-0.287980218693898171
0.410000000000000253,-0.297071710141137868
0.411000000000000254,-0.305922318862376863
0.412000000000000255,-0.314539173701755270
0.413000000000000256,-0.322929255607906807
0.414000000000000257,-0.331099397330476219
0.415000000000000258,-0.339056283277281767
0.416000000000000258,-0.346806449526050886
0.417000000000000259,-0.354356283984890275
0.418000000000000260,-0.361712026695515387
0.419000000000000261,-0.368879770273371155
0.420000000000000262,-0.375865460478742919
0.421000000000000263,-0.382674896913116069
0.422000000000000264,-0.389313733834902698
0.423000000000000265,-0.395787481088956006
0.424000000000000266,-0.402101505144210170
0.425000000000000266,-0.408261030233869615
0.426000000000000267,-0.414271139592755244
0.427000000000000268,-0.420136776786415311
0.428000000000000269,-0.425862747126744268
0.429000000000000270,-0.431453719168984340
0.430000000000000271,-0.436914226285029628
0.431000000000000272,-0.442248668308142689
0.432000000000000273,-0.447461313244228776
0.433000000000000274,-0.452556299045015986
0.434000000000000274,-0.457537635438544643
0.435000000000000275,-0.462409205812510549
0.436000000000000276,-0.467174769146179003
0.437000000000000277,-0.471837961986621646
0.438000000000000278,-0.476402300465234130
0.439000000000000279,-0.480871182350611215
0.440000000000000280,-0.485247889133930244
0.441000000000000281,-0.489535588143149625
0.442000000000000282,-0.493737334682549711
0.443000000000000282,-0.497856074194049036
0.444000000000000283,-0.501894644437116400
0.445000000000000284,-0.505855777684031449
0.446000000000000285,-0.509742102927418284
0.447000000000000286,-0.513556148097222165
0.448000000000000287,-0.517300342284166548
0.449000000000000288,-0.520977017967141576
0.450000000000000289,-0.524588413241836249
0.451000000000000290,-0.528136674048213850
0.452000000000000290,-0.531623856394481176
0.453000000000000291,-0.535051928575268509
0.454000000000000292,-0.538422773381956654
0.455000000000000293,-0.541738190303071687
0.456000000000000294,-0.544999897712869830
0.457000000000000295,-0.548209535046282448
0.458000000000000296,-0.551368664958497900
0.459000000000000297,-0.554478775467577734
0.460000000000000298,-0.557541282078572342
0.461000000000000298,-0.560557529887698136
0.462000000000000299,-0.563528795665259041
0.463000000000000300,-0.566456289916008160
0.464000000000000301,-0.569341158915828482
0.465000000000000302,-0.572184486723610886
0.466000000000000303,-0.574987297167316447
0.467000000000000304,-0.577750555803311139
0.468000000000000305,-0.580475171848075400
0.469000000000000306,-0.583162000081524412
0.470000000000000306,-0.585811842721235543
0.471000000000000307,-0.588425451266852861
0.472000000000000308,-0.591003528314167914
0.473000000000000309,-0.593546729338298995
0.474000000000000310,-0.596055664445486633
0.475000000000000311,-0.598530900093133811
0.476000000000000312,-0.600972960777695908
0.477000000000000313,-0.603382330690143354
0.478000000000000314,-0.605759455338693131
0.479000000000000314,-0.608104743138675352
0.480000000000000315,-0.610418566969289422
0.481000000000000316,-0.612701265697204844
0.482000000000000317,-0.614953145666871315
0.483000000000000318,-0.617174482157546223
0.484000000000000319,-0.619365520807010350
0.485000000000000320,-0.621526479002017851
0.486000000000000321,-0.623657547235572318
0.487000000000000322,-0.625758890431105996
0.488000000000000322,-0.627830649233685478
0.489000000000000323,-0.629872941268466491
0.490000000000000324,-0.631885862366524997
0.491000000000000325,-0.633869487758324524
0.492000000000000326,-0.635823873235019876
0.493000000000000327,-0.637749056277928439
0.494000000000000328,-0.639645057156363994
0.495000000000000329,-0.641511879994242529
0.496000000000000330,-0.643349513805668072
0.497000000000000330,-0.645157933499982628
0.498000000000000331,-0.646937100856474157
0.499000000000000332,-0.648686965469263965
0.500000000000000333,-0.650407465662682593
0.501000000000000334,-0.652098529377526881
0.502000000000000335,-0.653760075028660848
0.503000000000000336,-0.655392012334337304
0.504000000000000337,-0.656994243117697829
0.505000000000000338,-0.658566662080871001
0.506000000000000338,-0.660109157552136838
0.507000000000000339,-0.661621612206605425
0.508000000000000340,-0.663103903760846047
0.509000000000000341,-0.664555905641994737
0.510000000000000342,-0.665977487631726039
0.511000000000000343,-0.667368516485650765
0.512000000000000344,-0.668728856528539639
0.513000000000000345,-0.670058370225899536
0.514000000000000346,-0.671356918732388008
0.515000000000000346,-0.672624362417507560
0.516000000000000347,-0.673860561369086342
0.517000000000000348,-0.675065375875062323
0.518000000000000349,-0.676238666883968831
0.519000000000000350,-0.677380296444702434
0.520000000000000351,-0.678490128125960767
0.521000000000000352,-0.679568027415916598
0.522000000000000353,-0.680613862102511624
0.523000000000000353,-0.681627502634926996
0.524000000000000354,-0.682608822466645893
0.525000000000000355,-0.683557698380598766
0.526000000000000356,-0.684474010796836452
0.527000000000000357,-0.685357644063218752
0.528000000000000358,-0.686208486729536160
0.529000000000000359,-0.687026431805551008
0.530000000000000360,-0.687811377003362145
0.531000000000000361,-0.688563224964579002
0.532000000000000361,-0.689281883472700585
0.533000000000000362,-0.689967265651152295
0.534000000000000363,-0.690619290147384435
0.535000000000000364,-0.691237881303483959
0.536000000000000365,-0.691822969313658054
0.537000000000000366,-0.692374490369059181
0.538000000000000367,-0.692892386790274761
0.539000000000000368,-0.693376607147974222
0.540000000000000369,-0.693827106371982416
0.541000000000000369,-0.694243845849278007
0.542000000000000370,-0.694626793511184615
0.543000000000000371,-0.694975923910202020
0.544000000000000372,-0.695291218286793189
0.545000000000000373,-0.695572664626501358
0.546000000000000374,-0.695820257707736367
0.547000000000000375,-0.696033999140552417
0.548000000000000376,-0.696213897396810721
0.549000000000000377,-0.696359967831967963
0.550000000000000377,-0.696472232698894467
0.551000000000000378,-0.696550721153961105
0.552000000000000379,-0.696595469255775201
0.553000000000000380,-0.696606519956795567
0.554000000000000381,-0.696583923088158308
0.555000000000000382,-0.696527735338023479
0.556000000000000383,-0.696438020223634990
0.557000000000000384,-0.696314848057491109
0.558000000000000385,-0.696158295907767011
0.559000000000000385,-0.695968447553345193
0.560000000000000386,-0.695745393433661041
0.561000000000000387,-0.695489230593618779
0.562000000000000388,-0.695200062623816395
0.563000000000000389,-0.694877999596338003
0.564000000000000390,-0.694523157996303375
0.565000000000000391,-0.694135660649431774
0.566000000000000392,-0.693715636645812261
0.567000000000000393,-0.693263221260123852
0.568000000000000393,-0.692778555868456714
0.569000000000000394,-0.692261787861993438
0.570000000000000395,-0.691713070557712251
0.571000000000000396,-0.691132563106279019
0.572000000000000397,-0.690520430397379981
0.573000000000000398,-0.689876842962585557
0.574000000000000399,-0.689201976875989608
0.575000000000000400,-0.688496013652740380
0.576000000000000401,-0.687759140145644876
0.577000000000000401,-0.686991548440027078
0.578000000000000402,-0.686193435746935587
0.579000000000000403,-0.685365004294878455
0.580000000000000404,-0.684506461220259377
0.581000000000000405,-0.683618018456573218
0.582000000000000406,-0.682699892622571136
0.583000000000000407,-0.681752304909469253
0.584000000000000408,-0.680775480967355962
0.585000000000000409,-0.679769650790899016
0.586000000000000409,-0.678735048604466096
0.587000000000000410,-0.677671912746799499
0.588000000000000411,-0.676580485555286382
0.589000000000000412,-0.675461013250018838
0.590000000000000413,-0.674313745817640031
0.591000000000000414,-0.673138936895159135
0.592000000000000415,-0.671936843653772597
0.593000000000000416,-0.670707726682792549
0.594000000000000417,-0.669451849873767824
0.595000000000000417,-0.668169480304904417
0.596000000000000418,-0.666860888125782147
0.597000000000000419,-0.665526346442559258
0.598000000000000420,-0.664166131203607124
0.599000000000000421,-0.662780521085759466
0.600000000000000422,-0.661369797381156088
0.601000000000000423,-0.659934243884770178
0.602000000000000424,-0.658474146782696446
0.603000000000000425,-0.656989794541239625
0.604000000000000425,-0.655481477796826306
0.605000000000000426,-0.653949489246850590
0.606000000000000427,-0.652394123541467308
0.607000000000000428,-0.650815677176334817
0.608000000000000429,-0.649214448386473464
0.609000000000000430,-0.647590737041113584
0.610000000000000431,-0.645944844539728891
0.611000000000000432,-0.644277073709177417
0.612000000000000433,-0.642587728702034178
0.613000000000000433,-0.640877114896153954
0.614000000000000434,-0.639145538795457879
0.615000000000000435,-0.637393307932000885
