# hydroxyapatite-010-ph5_CS-7021-AC
# h[nm],U(h)[kJ/mol]
0.149999999999999994,121.804687385268337607
0.150999999999999995,119.098206059401263701
0.151999999999999996,116.702677705825379917
0.152999999999999997,114.409470100178509711
0.153999999999999998,112.140947464901529429
0.154999999999999999,109.880791929153403430
0.156000000000000000,107.636731884900541445
0.157000000000000001,105.422133857846660021
0.158000000000000002,103.248109533986735187
0.159000000000000002,101.121124547963219698
0.160000000000000003,99.043200707389317472
0.161000000000000004,97.013104396573524468
0.162000000000000005,95.027696539254890240
0.163000000000000006,93.083073399873569542
0.164000000000000007,91.175377295853763826
0.165000000000000008,89.301282779077695295
0.166000000000000009,87.458218559743414744
0.167000000000000010,85.644400593146514211
0.168000000000000010,83.858746920116587376
0.169000000000000011,82.100731534298560632
0.170000000000000012,80.370219131168312288
0.171000000000000013,78.667308328651941451
0.172000000000000014,76.992199233586561036
0.173000000000000015,75.345092410572917174
0.174000000000000016,73.726120194148933251
0.175000000000000017,72.135307433817160927
0.176000000000000018,70.572556668202139463
0.177000000000000018,69.037651907968836440
0.178000000000000019,67.530275253548467163
0.179000000000000020,66.050031152034563320
0.180000000000000021,64.596473957577842384
0.181000000000000022,63.169135422415614300
0.182000000000000023,61.767549691498949471
0.183000000000000024,60.391274228851081318
0.184000000000000025,59.039905829090209011
0.185000000000000026,57.713091448265949168
0.186000000000000026,56.410534026041275979
0.187000000000000027,55.131993778298564735
0.188000000000000028,53.877285633058477288
0.189000000000000029,52.646273583097219273
0.190000000000000030,51.438862755819172889
0.191000000000000031,50.254989973434341266
0.192000000000000032,49.094613510790495070
0.193000000000000033,47.957702668271288360
0.194000000000000034,46.844227674343741796
0.195000000000000034,45.754150325481006689
0.196000000000000035,44.687415666916770363
0.197000000000000036,43.643944920672218757
0.198000000000000037,42.623629780567412695
0.199000000000000038,41.626328119201410516
0.200000000000000039,40.651861089842100228
0.201000000000000040,39.700011556707792693
0.202000000000000041,38.770523749600620533
0.203000000000000042,37.863104012237435825
0.204000000000000042,36.977422496665063534
0.205000000000000043,36.113115647485173554
0.206000000000000044,35.269789317861963696
0.207000000000000045,34.447022363110804122
0.208000000000000046,33.644370565812707241
0.209000000000000047,32.861370757738555426
0.210000000000000048,32.097545017397294487
0.211000000000000049,31.352404836884851136
0.212000000000000050,30.625455167183236682
0.213000000000000050,29.916198266553273299
0.214000000000000051,29.224137291713553566
0.215000000000000052,28.548779585744654241
0.216000000000000053,27.889639629845408564
0.217000000000000054,27.246241638019704112
0.218000000000000055,26.618121784387302142
0.219000000000000056,26.004830062045250827
0.220000000000000057,25.405931780259084718
0.221000000000000058,24.821008713280338753
0.222000000000000058,24.249659919330603941
0.223000000000000059,23.691502252358674241
0.224000000000000060,23.146170592163024082
0.225000000000000061,22.613317820490543397
0.226000000000000062,22.092614571887075670
0.227000000000000063,21.583748788499331539
0.228000000000000064,21.086425107822655889
0.229000000000000065,20.600364111658429067
0.230000000000000066,20.125301463389085654
0.231000000000000066,19.660986959186441680
0.232000000000000067,19.207183517023761254
0.233000000000000068,18.763666125435374710
0.234000000000000069,18.330220771925642254
0.235000000000000070,17.906643368826372864
0.236000000000000071,17.492738692286611268
0.237000000000000072,17.088319347990157837
0.238000000000000073,16.693204775167988174
0.239000000000000073,16.307220298530836544
0.240000000000000074,15.930196235910576874
0.241000000000000075,15.561967067685078092
0.242000000000000076,15.202370672478584979
0.243000000000000077,14.851247632185300418
0.244000000000000078,14.508440608061182076
0.245000000000000079,14.173793788467643040
0.246000000000000080,13.847152407829321774
0.247000000000000081,13.528362335480693446
0.248000000000000081,13.217269732319646636
0.249000000000000082,12.913720772550982829
0.250000000000000111,12.617561427282861786
0.251000000000000112,12.328637306325820333
0.252000000000000113,12.046793554227395617
0.253000000000000114,11.771874796349134584
0.254000000000000115,11.503725130644751218
0.255000000000000115,11.242188160722884405
0.256000000000000116,10.987107065764181613
0.257000000000000117,10.738324702904275654
0.258000000000000118,10.495683737782695033
0.259000000000000119,10.259026799086054638
0.260000000000000120,10.028196653074957112
0.261000000000000121,9.803036394272812259
0.262000000000000122,9.583389648703523278
0.263000000000000123,9.369100786290996297
0.264000000000000123,9.160015139269821915
0.265000000000000124,8.955979223700760272
0.266000000000000125,8.756840961432137860
0.267000000000000126,8.562449900096508415
0.268000000000000127,8.372657428977158034
0.269000000000000128,8.187316988820358077
0.270000000000000129,8.006284273903109039
0.271000000000000130,7.829417424891801147
0.272000000000000131,7.656577211243342340
0.273000000000000131,7.487627202105272772
0.274000000000000132,7.322433924865164201
0.275000000000000133,7.160867010680727951
0.276000000000000134,7.002799326491103038
0.277000000000000135,6.848107093166011516
0.278000000000000136,6.696669989592639816
0.279000000000000137,6.548371242631057854
0.280000000000000138,6.403097702987397888
0.281000000000000139,6.260739907160077777
0.282000000000000139,6.121192125709084664
0.283000000000000140,5.984352398181636445
0.284000000000000141,5.850122555100009336
0.285000000000000142,5.718408227479942596
0.286000000000000143,5.589118844400560171
0.287000000000000144,5.462167619190990031
0.288000000000000145,5.337471524833690140
0.289000000000000146,5.214951259212858403
0.290000000000000147,5.094531200856033948
0.291000000000000147,4.976139355831543654
0.292000000000000148,4.859707296471752258
0.293000000000000149,4.745170092595029310
0.294000000000000150,4.632466235896658624
0.295000000000000151,4.521537558172125770
0.296000000000000152,4.412329144025804339
0.297000000000000153,4.304789238703768284
0.298000000000000154,4.198869151672744771
0.299000000000000155,4.094523156547573706
0.300000000000000155,3.991708387947988879
0.301000000000000156,3.890384735842265407
0.302000000000000157,3.790514737910274157
0.303000000000000158,3.692063470432779049
0.304000000000000159,3.594998438186897793
0.305000000000000160,3.499289463800464794
0.306000000000000161,3.404908576990263835
0.307000000000000162,3.311829904081324827
0.308000000000000163,3.220029558176813023
0.309000000000000163,3.129485530320468722
0.310000000000000164,3.040177581966450493
0.311000000000000165,2.952087139044845543
0.312000000000000166,2.865197187885094365
0.313000000000000167,2.779492173234290764
0.314000000000000168,2.694957898582942768
0.315000000000000169,2.611581428987065578
0.316000000000000170,2.529350996552850894
0.317000000000000171,2.448255908728467656
0.318000000000000171,2.368286459526909304
0.319000000000000172,2.289433843783935885
0.320000000000000173,2.211690074536746042
0.321000000000000174,2.135047903591324570
0.322000000000000175,2.059500745329874150
0.323000000000000176,1.985042603794244132
0.324000000000000177,1.911668003066848254
0.325000000000000178,1.839371920957107331
0.326000000000000179,1.768149725988879428
0.327000000000000179,1.697997117673034406
0.328000000000000180,1.628910070038671165
0.329000000000000181,1.560884778386757432
0.330000000000000182,1.493917609221464549
0.331000000000000183,1.428005053306209415
0.332000000000000184,1.363143681784610761
0.333000000000000185,1.299330105300075644
0.334000000000000186,1.236560936042125469
0.335000000000000187,1.174832752642795297
0.336000000000000187,1.114142067841959349
0.337000000000000188,1.054485298837228857
0.338000000000000189,0.995858740230569195
0.339000000000000190,0.938258539481634735
0.340000000000000191,0.881680674775873308
0.341000000000000192,0.826120935213724428
0.342000000000000193,0.771574903226523334
0.343000000000000194,0.718037939123841285
0.344000000000000195,0.665505167677117093
0.345000000000000195,0.613971466644105512
0.346000000000000196,0.563431457139586755
0.347000000000000197,0.513879495758232663
0.348000000000000198,0.465309668356669814
0.349000000000000199,0.417715785403039053
0.350000000000000200,0.371091378803773020
0.351000000000000201,0.325429700119072796
0.352000000000000202,0.280723720080387040
0.353000000000000203,0.236966129325149488
0.354000000000000203,0.194149340266224824
0.355000000000000204,0.152265490015787236
0.356000000000000205,0.111306444285627040
0.357000000000000206,0.071263802188257411
0.358000000000000207,0.032128901865948523
0.359000000000000208,-0.006107173122974974
0.360000000000000209,-0.043453586728515445
0.361000000000000210,-0.079919742709265523
0.362000000000000210,-0.115515276371408210
0.363000000000000211,-0.150250045806452126
0.364000000000000212,-0.184134122685231855
0.365000000000000213,-0.217177782662988067
0.366000000000000214,-0.249391495447860601
0.367000000000000215,-0.280785914582443397
0.368000000000000216,-0.311371866985751478
0.369000000000000217,-0.341160342300124486
0.370000000000000218,-0.370162482085563349
0.371000000000000218,-0.398389568901231395
0.372000000000000219,-0.425853015311789540
0.373000000000000220,-0.452564352853868201
0.374000000000000221,-0.478535220995701782
0.375000000000000222,-0.503777356120840958
0.376000000000000223,-0.528302580564895985
0.377000000000000224,-0.552122791731990414
0.378000000000000225,-0.575249951315876751
0.379000000000000226,-0.597696074648599307
0.380000000000000226,-0.619473220197996888
0.381000000000000227,-0.640593479233251051
0.382000000000000228,-0.661068965676380182
0.383000000000000229,-0.680911806155686472
0.384000000000000230,-0.700134130275692379
0.385000000000000231,-0.718748061116783910
0.386000000000000232,-0.736765705976046403
0.387000000000000233,-0.754199147359818967
0.388000000000000234,-0.771060434236830905
0.389000000000000234,-0.787361573559932082
0.390000000000000235,-0.803114522062962743
0.391000000000000236,-0.818331178338445042
0.392000000000000237,-0.833023375200618643
0.393000000000000238,-0.847202872337445512
0.394000000000000239,-0.860881349254200678
0.395000000000000240,-0.874070398510537805
0.396000000000000241,-0.886781519251993999
0.397000000000000242,-0.899026111036170361
0.398000000000000242,-0.910815467953207891
0.399000000000000243,-0.922160773039348514
0.400000000000000244,-0.933073092981926644
0.401000000000000245,-0.943563373113526893
0.402000000000000246,-0.953642432692398900
0.403000000000000247,-0.963320960465933629
0.404000000000000248,-0.972609510513420039
0.405000000000000249,-0.981518498363970315
0.406000000000000250,-0.990058197385064176
0.407000000000000250,-0.998238735436926872
0.408000000000000251,-1.006070091787556020
0.409000000000000252,-1.013562094283025683
0.410000000000000253,-1.020724416767383902
0.411000000000000254,-1.027566576746324012
0.412000000000000255,-1.034097933288533611
0.413000000000000256,-1.040327685158610072
0.414000000000000257,-1.046264869175074663
0.415000000000000258,-1.051918358787196084
0.416000000000000258,-1.057296862863947862
0.417000000000000259,-1.062408924688575063
0.418000000000000260,-1.067262921152088762
0.419000000000000261,-1.071867062138992077
0.420000000000000262,-1.076229390098522698
0.421000000000000263,-1.080357779794753892
0.422000000000000264,-1.084259938228757436
0.423000000000000265,-1.087943404726245955
0.424000000000000266,-1.091415551184053978
0.425000000000000266,-1.094683582468812144
0.426000000000000267,-1.097754536961363048
0.427000000000000268,-1.100635287240439686
0.428000000000000269,-1.103332540899224279
0.429000000000000270,-1.105852841488535798
0.430000000000000271,-1.108202569580422070
0.431000000000000272,-1.110387943946106848
0.432000000000000273,-1.112415022842268897
0.433000000000000274,-1.114289705399838848
0.434000000000000274,-1.116017733109527788
0.435000000000000275,-1.117604691398462524
0.436000000000000276,-1.119056011292474562
0.437000000000000277,-1.120376971158598689
0.438000000000000278,-1.121572698522599110
0.439000000000000279,-1.122648171956413865
0.440000000000000280,-1.123608223030511777
0.441000000000000281,-1.124457538326349315
0.442000000000000282,-1.125200661504283328
0.443000000000000282,-1.125841995422272479
0.444000000000000283,-1.126385804301075044
0.445000000000000284,-1.126836215931581675
0.446000000000000285,-1.127197223920158198
0.447000000000000286,-1.127472689968072705
0.448000000000000287,-1.127666346181010582
0.449000000000000288,-1.127781797405106312
0.450000000000000289,-1.127822523585776171
0.451000000000000290,-1.127791882145960933
0.452000000000000290,-1.127693110380478592
0.453000000000000291,-1.127529327863213471
0.454000000000000292,-1.127303538864175891
0.455000000000000293,-1.127018634773430561
0.456000000000000294,-1.126677396529112585
0.457000000000000295,-1.126282497046857234
0.458000000000000296,-1.125836503648038445
0.459000000000000297,-1.125341880484424184
0.460000000000000298,-1.124800990956865032
0.461000000000000298,-1.124216100125831286
0.462000000000000299,-1.123589377111700482
0.463000000000000300,-1.122922897482740101
0.464000000000000301,-1.122218645628979106
0.465000000000000302,-1.121478517120105600
0.466000000000000303,-1.120704321045733254
0.467000000000000304,-1.119897782336446657
0.468000000000000305,-1.119060544064113927
0.469000000000000306,-1.118194169720066578
0.470000000000000306,-1.117300145469865447
0.471000000000000307,-1.116379882383335298
0.472000000000000308,-1.115434718638831812
0.473000000000000309,-1.114465921700609652
0.474000000000000310,-1.113474690468307271
0.475000000000000311,-1.112462157397671847
0.476000000000000312,-1.111429390591673450
0.477000000000000313,-1.110377395861239069
0.478000000000000314,-1.109307118754894184
0.479000000000000314,-1.108219446556745647
0.480000000000000315,-1.107115210252136439
0.481000000000000316,-1.105995186460582147
0.482000000000000317,-1.104860099335431833
0.483000000000000318,-1.103710622429950661
0.484000000000000319,-1.102547380529421250
0.485000000000000320,-1.101370951449021529
0.486000000000000321,-1.100181867797225932
0.487000000000000322,-1.098980618704544110
0.488000000000000322,-1.097767651517420839
0.489000000000000323,-1.096543373457273152
0.490000000000000324,-1.095308153244521687
0.491000000000000325,-1.094062322687660238
0.492000000000000326,-1.092806178237314629
0.493000000000000327,-1.091539982505429718
0.494000000000000328,-1.090263965749574515
0.495000000000000329,-1.088978327322577488
0.496000000000000330,-1.087683237087541110
0.497000000000000330,-1.086378836798531866
0.498000000000000331,-1.085065241447009221
0.499000000000000332,-1.083742540574353042
0.500000000000000333,-1.082410799550672431
0.501000000000000334,-1.081070060820158441
0.502000000000000335,-1.079720345113339475
0.503000000000000336,-1.078361652626497635
0.504000000000000337,-1.076993964168618145
0.505000000000000338,-1.075617242276191377
0.506000000000000338,-1.074231432296268718
0.507000000000000339,-1.072836463438134880
0.508000000000000340,-1.071432249793975000
0.509000000000000341,-1.070018691329010396
0.510000000000000342,-1.068595674841427368
0.511000000000000343,-1.067163074892629071
0.512000000000000344,-1.065720754708158635
0.513000000000000345,-1.064268567049805991
0.514000000000000346,-1.062806355059344954
0.515000000000000346,-1.061333953074328207
0.516000000000000347,-1.059851187416432694
0.517000000000000348,-1.058357877152859450
0.518000000000000349,-1.056853834831188887
0.519000000000000350,-1.055338867188263752
0.520000000000000351,-1.053812775833500082
0.521000000000000352,-1.052275357907199504
0.522000000000000353,-1.050726406714255434
0.523000000000000353,-1.049165712333832712
0.524000000000000354,-1.047593062205462999
0.525000000000000355,-1.046008241692047092
0.526000000000000356,-1.044411034620265744
0.527000000000000357,-1.042801223798903720
0.528000000000000358,-1.041178591515534269
0.529000000000000359,-1.039542920012096028
0.530000000000000360,-1.037893991939800697
0.531000000000000361,-1.036231590793898594
0.532000000000000361,-1.034555501328747074
0.533000000000000362,-1.032865509953670102
0.534000000000000363,-1.031161405110073259
0.535000000000000364,-1.029442977630305789
0.536000000000000365,-1.027710021078684921
0.537000000000000366,-1.025962332075204042
0.538000000000000367,-1.024199710602304858
0.539000000000000368,-1.022421960295255117
0.540000000000000369,-1.020628888716470062
0.541000000000000369,-1.018820307614323850
0.542000000000000370,-1.016996033166781777
0.543000000000000371,-1.015155886210367342
0.544000000000000372,-1.013299692454830758
0.545000000000000373,-1.011427282683961648
0.546000000000000374,-1.009538492942947174
0.547000000000000375,-1.007633164712663731
0.548000000000000376,-1.005711145071346291
0.549000000000000377,-1.003772286843966244
0.550000000000000377,-1.001816448739754506
0.551000000000000378,-0.999843495478203059
0.552000000000000379,-0.997853297903967706
0.553000000000000380,-0.995845733090984786
0.554000000000000381,-0.993820684436181545
0.555000000000000382,-0.991778041743175742
0.556000000000000383,-0.989717701296200736
0.557000000000000384,-0.987639565924740337
0.558000000000000385,-0.985543545059054060
0.559000000000000385,-0.983429554777044523
0.560000000000000386,-0.981297517842707356
0.561000000000000387,-0.979147363736510790
0.562000000000000388,-0.976979028677985140
0.563000000000000389,-0.974792455640860589
0.564000000000000390,-0.972587594360993402
0.565000000000000391,-0.970364401337414528
0.566000000000000392,-0.968122839826737858
0.567000000000000393,-0.965862879831255738
0.568000000000000393,-0.963584498080905072
0.569000000000000394,-0.961287678009451696
0.570000000000000395,-0.958972409725100894
0.571000000000000396,-0.956638689975760848
0.572000000000000397,-0.954286522109271118
0.573000000000000398,-0.951915916028750808
0.574000000000000399,-0.949526888143354619
0.575000000000000400,-0.947119461314630762
0.576000000000000401,-0.944693664798694543
0.577000000000000401,-0.942249534184470106
0.578000000000000402,-0.939787111328151736
0.579000000000000403,-0.937306444284100815
0.580000000000000404,-0.934807587232426962
0.581000000000000405,-0.932290600403344216
0.582000000000000406,-0.929755549998582231
0.583000000000000407,-0.927202508109958634
0.584000000000000408,-0.924631552635338694
0.585000000000000409,-0.922042767192116086
0.586000000000000409,-0.919436241028384393
0.587000000000000410,-0.916812068931990076
0.588000000000000411,-0.914170351137549297
0.589000000000000412,-0.911511193231673955
0.590000000000000413,-0.908834706056451003
0.591000000000000414,-0.906141005611390327
0.592000000000000415,-0.903430212953943212
0.593000000000000416,-0.900702454098714633
0.594000000000000417,-0.897957859915509915
0.595000000000000417,-0.895196566026364215
0.596000000000000418,-0.892418712701581684
0.597000000000000419,-0.889624444755030330
0.598000000000000420,-0.886813911438666835
0.599000000000000421,-0.883987266336509592
0.600000000000000422,-0.881144667258092040
0.601000000000000423,-0.878286276131500898
0.602000000000000424,-0.875412258896143824
0.603000000000000425,-0.872522785395283051
0.604000000000000425,-0.869618029268428017
0.605000000000000426,-0.866698167843709344
0.606000000000000427,-0.863763382030292348
0.607000000000000428,-0.860813856210855710
0.608000000000000429,-0.857849778134346375
0.609000000000000430,-0.854871338808898207
0.610000000000000431,-0.851878732395159100
0.611000000000000432,-0.848872156099966468
0.612000000000000433,-0.845851810070482601
0.613000000000000433,-0.842817897288872131
0.614000000000000434,-0.839770623467529065
