# hydroxyapatite-010-ph5_CS-65596-AC
# h[nm],U(h)[kJ/mol]
0.149999999999999994,125.306011729432000834
0.150999999999999995,122.729701181922635556
0.151999999999999996,120.377570827847506507
0.152999999999999997,118.102718426781692074
0.153999999999999998,115.852704315769443610
0.154999999999999999,113.617844620220580509
0.156000000000000000,111.404222142193134459
0.157000000000000001,109.220831573134958603
0.158000000000000002,107.074419901167132707
0.159000000000000002,104.968217459028892335
0.160000000000000003,102.902398814575946062
0.161000000000000004,100.875114283646013291
0.162000000000000005,98.883524495436944335
0.163000000000000006,96.924605299957462989
0.164000000000000007,94.995668119454066414
0.165000000000000008,93.094625618837838488
0.166000000000000009,91.220064627004404656
0.167000000000000010,89.371192389613767659
0.168000000000000010,87.547713263187404209
0.169000000000000011,85.749679302535255943
0.170000000000000012,83.977344338564279269
0.171000000000000013,82.231039209435166981
0.172000000000000014,80.511076545176180730
0.173000000000000015,78.817686925837961098
0.174000000000000016,77.150983991820112351
0.175000000000000017,75.510953706067695634
0.176000000000000018,73.897461967154114859
0.177000000000000018,72.310274718948690520
0.178000000000000019,70.749085243777045662
0.179000000000000020,69.213544190723368388
0.180000000000000021,67.703288882842812768
0.181000000000000022,66.217969433432386950
0.182000000000000023,64.757270099137130615
0.183000000000000024,63.320925061330271433
0.184000000000000025,61.908728438852008935
0.185000000000000026,60.520538795182993397
0.186000000000000026,59.156278723421948484
0.187000000000000027,57.815930291449816991
0.188000000000000028,56.499527228595503914
0.189000000000000029,55.207144755444403472
0.190000000000000030,53.938887920278531851
0.191000000000000031,52.694879226863214683
0.192000000000000032,51.475246234042266735
0.193000000000000033,50.280109690188069749
0.194000000000000034,49.109572644598728175
0.195000000000000034,47.963710860602553510
0.196000000000000035,46.842564746459025571
0.197000000000000036,45.746132923383711955
0.198000000000000037,44.674367466975169805
0.199000000000000038,43.627170789656915417
0.200000000000000039,42.604394077295197008
0.201000000000000040,41.605837152123982037
0.202000000000000041,40.631249605320398643
0.203000000000000042,39.680333024590517255
0.204000000000000042,38.752744133403162152
0.205000000000000043,37.848098657486474394
0.206000000000000044,36.965975739366378150
0.207000000000000045,36.105922731675605064
0.208000000000000046,35.267460213422410220
0.209000000000000047,34.450087089260101436
0.210000000000000048,33.653285649080501685
0.211000000000000049,32.876526483160020575
0.212000000000000050,32.119273165957579863
0.213000000000000050,31.380986638983820569
0.214000000000000051,30.661129239530179547
0.215000000000000052,29.959168337183250230
0.216000000000000053,29.274579553759984663
0.217000000000000054,28.606849554472262298
0.218000000000000055,27.955478408717624461
0.219000000000000056,27.319981527906229246
0.220000000000000057,26.699891195215673889
0.221000000000000058,26.094757708202230617
0.222000000000000058,25.504150159883245408
0.223000000000000059,24.927656887365436944
0.224000000000000060,24.364885619449093923
0.225000000000000061,23.815463356019598962
0.226000000000000062,23.279036012575794246
0.227000000000000063,22.755267863061938272
0.228000000000000064,22.243840813389962108
0.229000000000000065,21.744453536767593960
0.230000000000000066,21.256820500294718812
0.231000000000000066,20.780670910341573432
0.232000000000000067,20.315747602066394961
0.233000000000000068,19.861805896136282001
0.234000000000000069,19.418612443348997942
0.235000000000000070,18.985944075467767078
0.236000000000000071,18.563586678222652182
0.237000000000000072,18.151334100136296001
0.238000000000000073,17.748987108630274179
0.239000000000000073,17.356352402784136046
0.240000000000000074,16.973241690167728990
0.241000000000000075,16.599470833364101452
0.242000000000000076,16.234859070150029936
0.243000000000000077,15.879228309808848252
0.244000000000000078,15.532402506716588064
0.245000000000000079,15.194207111164356405
0.246000000000000080,14.864468596354120322
0.247000000000000081,14.543014059623791567
0.248000000000000081,14.229670895215104309
0.249000000000000082,13.924266535284342439
0.250000000000000111,13.626628255362405184
0.251000000000000112,13.336583040088488161
0.252000000000000113,13.053957504758695762
0.253000000000000114,12.778577868040661869
0.254000000000000115,12.510269971094283292
0.255000000000000115,12.248859338300636779
0.256000000000000116,11.994171274825262685
0.257000000000000117,11.746030996320003581
0.258000000000000118,11.504263786192337804
0.259000000000000119,11.268695176033405758
0.260000000000000120,11.039151144990078990
0.261000000000000121,10.815458334085992220
0.262000000000000122,10.597444271734454802
0.263000000000000123,10.384937606939224963
0.264000000000000123,10.177768346940476718
0.265000000000000124,9.975768096330865475
0.266000000000000125,9.778770294934778562
0.267000000000000126,9.586610452011354866
0.268000000000000127,9.399126374604113821
0.269000000000000128,9.216158388116570066
0.270000000000000129,9.037549547440619335
0.271000000000000130,8.863145837201921395
0.272000000000000131,8.692796359912936310
0.273000000000000131,8.526353511038010424
0.274000000000000132,8.363673140176036469
0.275000000000000133,8.204614697753649821
0.276000000000000134,8.049041366795815833
0.277000000000000135,7.896820179500847914
0.278000000000000136,7.747822118493184362
0.279000000000000137,7.601922202760066583
0.280000000000000138,7.458999558398245355
0.281000000000000139,7.318937474403329979
0.282000000000000139,7.181623443829312059
0.283000000000000140,7.046949190728355461
0.284000000000000141,6.914810683352703435
0.285000000000000142,6.785108134161366600
0.286000000000000143,6.657745987225451856
0.287000000000000144,6.532632893667775775
0.288000000000000145,6.409681675805198431
0.289000000000000146,6.288809280687821968
0.290000000000000147,6.169936723746313412
0.291000000000000147,6.052989023270344049
0.292000000000000148,5.937895126445583927
0.293000000000000149,5.824587827676654506
0.294000000000000150,5.713003679917827426
0.295000000000000151,5.603082899723450971
0.296000000000000152,5.494769266716694744
0.297000000000000153,5.388010018158022163
0.298000000000000154,5.282755739275050821
0.299000000000000155,5.178960249993156850
0.300000000000000155,5.076580488681659453
0.301000000000000156,4.975576393504604233
0.302000000000000157,4.875910781937458083
0.303000000000000158,4.777549228982835849
0.304000000000000159,4.680459944589052235
0.305000000000000160,4.584613650745724911
0.306000000000000161,4.489983458700750774
0.307000000000000162,4.396544746713004770
0.308000000000000163,4.304275038725492664
0.309000000000000163,4.213153884314126962
0.310000000000000164,4.123162740238518253
0.311000000000000165,4.034284853892726730
0.312000000000000166,3.946505148926406914
0.313000000000000167,3.859810113279972477
0.314000000000000168,3.774187689851578487
0.315000000000000169,3.689627169988727751
0.316000000000000170,3.606119089973490954
0.317000000000000171,3.523655130647413980
0.318000000000000171,3.442228020300600377
0.319000000000000172,3.361831440928520376
0.320000000000000173,3.282459937940912731
0.321000000000000174,3.204108833388516153
0.322000000000000175,3.126774142756135522
0.323000000000000176,3.050452495354444071
0.324000000000000177,2.975141058327740673
0.325000000000000178,2.900837464281001310
0.326000000000000179,2.827539742516432586
0.327000000000000179,2.755246253857994709
0.328000000000000180,2.683955629031312906
0.329000000000000181,2.613666710556354467
0.330000000000000182,2.544378498101411257
0.331000000000000183,2.476090097238427212
0.332000000000000184,2.408800671532697724
0.333000000000000185,2.342509397893274947
0.334000000000000186,2.277215425104686997
0.335000000000000187,2.212917835455656235
0.336000000000000187,2.149615609375992165
0.337000000000000188,2.087307592989488647
0.338000000000000189,2.025992468487211262
0.339000000000000190,1.965668727223343737
0.340000000000000191,1.906334645433862107
0.341000000000000192,1.847988262476572885
0.342000000000000193,1.790627361490456426
0.343000000000000194,1.734249452371349864
0.344000000000000195,1.678851756961295738
0.345000000000000195,1.624431196348596007
0.346000000000000196,1.570984380176650319
0.347000000000000197,1.518507597860232483
0.348000000000000198,1.466996811609109219
0.349000000000000199,1.416447651160338772
0.350000000000000200,1.366855410122101988
0.351000000000000201,1.318215043833860012
0.352000000000000202,1.270521168649598520
0.353000000000000203,1.223768062553039160
0.354000000000000203,1.177949667016021440
0.355000000000000204,1.133059590013752560
0.356000000000000205,1.089091110113006966
0.357000000000000206,1.046037181551944029
0.358000000000000207,1.003890440233107695
0.359000000000000208,0.962643210553583928
0.360000000000000209,0.922287512999147574
0.361000000000000210,0.882815072432175940
0.362000000000000210,0.844217327005610585
0.363000000000000211,0.806485437638254865
0.364000000000000212,0.769610297989379633
0.365000000000000213,0.733582544873440101
0.366000000000000214,0.698392569058392532
0.367000000000000215,0.664030526393914133
0.368000000000000216,0.630486349218325026
0.369000000000000217,0.597749757995948539
0.370000000000000218,0.565810273138877107
0.371000000000000218,0.534657226969996291
0.372000000000000219,0.504279775786331430
0.373000000000000220,0.474666911984322482
0.374000000000000221,0.445807476211004416
0.375000000000000222,0.417690169507372144
0.376000000000000223,0.390303565412269904
0.377000000000000224,0.363636121997557571
0.378000000000000225,0.337676193807184721
0.379000000000000226,0.312412043674967443
0.380000000000000226,0.287831854397584963
0.381000000000000227,0.263923740241539639
0.382000000000000228,0.240675758264198292
0.383000000000000229,0.218075919431095111
0.384000000000000230,0.196112199513198887
0.385000000000000231,0.174772549749320494
0.386000000000000232,0.154044907260602659
0.387000000000000233,0.133917205205192319
0.388000000000000234,0.114377382662838256
0.389000000000000234,0.095413394240174615
0.390000000000000235,0.077013219388987114
0.391000000000000236,0.059164871430681373
0.392000000000000237,0.041856406281461873
0.393000000000000238,0.025075930873640843
0.394000000000000239,0.008811611269629108
0.395000000000000240,-0.006948319534039576
0.396000000000000241,-0.022215554114352200
0.397000000000000242,-0.037001703441989199
0.398000000000000242,-0.051318290014231958
0.399000000000000243,-0.065176741299905000
0.400000000000000244,-0.078588383495179520
0.401000000000000245,-0.091564435588356141
0.402000000000000246,-0.104116003731102497
0.403000000000000247,-0.116254075913233140
0.404000000000000248,-0.127989516937524250
0.405000000000000249,-0.139333063690660508
0.406000000000000250,-0.150295320705938401
0.407000000000000250,-0.160886756013070287
0.408000000000000251,-0.171117697270007058
0.409000000000000252,-0.180998328171452810
0.410000000000000253,-0.190538685128418761
0.411000000000000254,-0.199748654212993954
0.412000000000000255,-0.208637968362181209
0.413000000000000256,-0.217216204834642712
0.414000000000000257,-0.225492782913767897
0.415000000000000258,-0.233476961850683035
0.416000000000000258,-0.241177839040351921
0.417000000000000259,-0.248604348424120658
0.418000000000000260,-0.255765259111790044
0.419000000000000261,-0.262669174216362433
0.420000000000000262,-0.269324529894489406
0.421000000000000263,-0.275739594585753867
0.422000000000000264,-0.281922468443713548
0.423000000000000265,-0.287881082951870926
0.424000000000000266,-0.293623200717640032
0.425000000000000266,-0.299156415437381307
0.426000000000000267,-0.304488152025751579
0.427000000000000268,-0.309625666902567764
0.428000000000000269,-0.314576048430490030
0.429000000000000270,-0.319346217496952800
0.430000000000000271,-0.323942928233769911
0.431000000000000272,-0.328372768868034348
0.432000000000000273,-0.332642162697944610
0.433000000000000274,-0.336757369187387634
0.434000000000000274,-0.340724485173144909
0.435000000000000275,-0.344549446178744279
0.436000000000000276,-0.348238027829127439
0.437000000000000277,-0.351795847360360292
0.438000000000000278,-0.355228365218808129
0.439000000000000279,-0.358540886744336817
0.440000000000000280,-0.361738563932151647
0.441000000000000281,-0.364826397268101399
0.442000000000000282,-0.367809237632457431
0.443000000000000282,-0.370691788267130673
0.444000000000000283,-0.373478606801673163
0.445000000000000284,-0.376174107333364816
0.446000000000000285,-0.378782562556882307
0.447000000000000286,-0.381308105939307085
0.448000000000000287,-0.383754733936098047
0.449000000000000288,-0.386126308244132965
0.450000000000000289,-0.388426558087761886
0.451000000000000290,-0.390659082534140889
0.452000000000000290,-0.392827352834213273
0.453000000000000291,-0.394934714785748264
0.454000000000000292,-0.396984391115138890
0.455000000000000293,-0.398979483874635832
0.456000000000000294,-0.400922976851945001
0.457000000000000295,-0.402817737989172531
0.458000000000000296,-0.404666521808245694
0.459000000000000297,-0.406471971840087931
0.460000000000000298,-0.408236623054898551
0.461000000000000298,-0.409962904291050367
0.462000000000000299,-0.411653140680223573
0.463000000000000300,-0.413309556066463191
0.464000000000000301,-0.414934275417053022
0.465000000000000302,-0.416529327223118195
0.466000000000000303,-0.418096645887994556
0.467000000000000304,-0.419638074101572223
0.468000000000000305,-0.421155365198802145
0.469000000000000306,-0.422650185500767162
0.470000000000000306,-0.424124116636774962
0.471000000000000307,-0.425578657845936459
0.472000000000000308,-0.427015228256960255
0.473000000000000309,-0.428435169144824268
0.474000000000000310,-0.429839746163111602
0.475000000000000311,-0.431230151550948015
0.476000000000000312,-0.432607506313460122
0.477000000000000313,-0.433972862374813695
0.478000000000000314,-0.435327204702915638
0.479000000000000314,-0.436671453405027443
0.480000000000000315,-0.438006465793449706
0.481000000000000316,-0.439333038420695932
0.482000000000000317,-0.440651909083449922
0.483000000000000318,-0.441963758794817863
0.484000000000000319,-0.443269213724335365
0.485000000000000320,-0.444568847105307252
0.486000000000000321,-0.445863181109098949
0.487000000000000322,-0.447152688686039579
0.488000000000000322,-0.448437795372624515
0.489000000000000323,-0.449718881064844755
0.490000000000000324,-0.450996281757403861
0.491000000000000325,-0.452270291248687617
0.492000000000000326,-0.453541162811376242
0.493000000000000327,-0.454809110828671481
0.494000000000000328,-0.456074312396046344
0.495000000000000329,-0.457336908888605620
0.496000000000000330,-0.458597007494009556
0.497000000000000330,-0.459854682711160589
0.498000000000000331,-0.461109977814601724
0.499000000000000332,-0.462362906284923547
0.500000000000000333,-0.463613453205241277
0.501000000000000334,-0.464861576623952388
0.502000000000000335,-0.466107208884026292
0.503000000000000336,-0.467350257919020184
0.504000000000000337,-0.468590608516117002
0.505000000000000338,-0.469828123546436438
0.506000000000000338,-0.471062645162943550
0.507000000000000339,-0.472293995966267643
0.508000000000000340,-0.473521980138739085
0.509000000000000341,-0.474746384547059530
0.510000000000000342,-0.475966979813885138
0.511000000000000343,-0.477183521358782614
0.512000000000000344,-0.478395750408883991
0.513000000000000345,-0.479603394979674580
0.514000000000000346,-0.480806170826343471
0.515000000000000346,-0.482003782366066225
0.516000000000000347,-0.483195923571682784
0.517000000000000348,-0.484382278837231617
0.518000000000000349,-0.485562523815717573
0.519000000000000350,-0.486736326229636362
0.520000000000000351,-0.487903346654647407
0.521000000000000352,-0.489063239276923856
0.522000000000000353,-0.490215652624556797
0.523000000000000353,-0.491360230273571008
0.524000000000000354,-0.492496611528958073
0.525000000000000355,-0.493624432081224973
0.526000000000000356,-0.494743324638917237
0.527000000000000357,-0.495852919537614956
0.528000000000000358,-0.496952845325844716
0.529000000000000359,-0.498042729328405709
0.530000000000000360,-0.499122198187556765
0.531000000000000361,-0.500190878382574478
0.532000000000000361,-0.501248396728111834
0.533000000000000362,-0.502294380851855071
0.534000000000000363,-0.503328459651927518
0.535000000000000364,-0.504350263734521631
0.536000000000000365,-0.505359425832194176
0.537000000000000366,-0.506355581203315697
0.538000000000000367,-0.507338368013080632
0.539000000000000368,-0.508307427696598868
0.540000000000000369,-0.509262405304425680
0.541000000000000369,-0.510202949831067065
0.542000000000000370,-0.511128714526802863
0.543000000000000371,-0.512039357193339817
0.544000000000000372,-0.512934540463672262
0.545000000000000373,-0.513813932066597090
0.546000000000000374,-0.514677205076292332
0.547000000000000375,-0.515524038147354147
0.548000000000000376,-0.516354115735746633
0.549000000000000377,-0.517167128305998980
0.550000000000000377,-0.517962772525111470
0.551000000000000378,-0.518740751443494519
0.552000000000000379,-0.519500774663388953
0.553000000000000380,-0.520242558495086049
0.554000000000000381,-0.520965826101344787
0.555000000000000382,-0.521670307630403340
0.556000000000000383,-0.522355740337848262
0.557000000000000384,-0.523021868697827741
0.558000000000000385,-0.523668444503815222
0.559000000000000385,-0.524295226959374139
0.560000000000000386,-0.524901982759197416
0.561000000000000387,-0.525488486160764046
0.562000000000000388,-0.526054519046927682
0.563000000000000389,-0.526599870979777340
0.564000000000000390,-0.527124339246035967
0.565000000000000391,-0.527627728894334624
0.566000000000000392,-0.528109852764634402
0.567000000000000393,-0.528570531510117569
0.568000000000000393,-0.529009593611774465
0.569000000000000394,-0.529426875386023288
0.570000000000000395,-0.529822220985610493
0.571000000000000396,-0.530195482394017592
0.572000000000000397,-0.530546519413726103
0.573000000000000398,-0.530875199648479623
0.574000000000000399,-0.531181398479892430
0.575000000000000400,-0.531464999038565256
0.576000000000000401,-0.531725892169990000
0.577000000000000401,-0.531963976395475213
0.578000000000000402,-0.532179157868280517
0.579000000000000403,-0.532371350325190562
0.580000000000000404,-0.532540475033790983
0.581000000000000405,-0.532686460735555700
0.582000000000000406,-0.532809243585049996
0.583000000000000407,-0.532908767085361945
0.584000000000000408,-0.532984982020013875
0.585000000000000409,-0.533037846381501756
0.586000000000000409,-0.533067325296652128
0.587000000000000410,-0.533073390949000081
0.588000000000000411,-0.533056022498292759
0.589000000000000412,-0.533015205997376618
0.590000000000000413,-0.532950934306534507
0.591000000000000414,-0.532863207005499495
0.592000000000000415,-0.532752030303263679
0.593000000000000416,-0.532617416945834532
0.594000000000000417,-0.532459386122072886
0.595000000000000417,-0.532277963367798757
0.596000000000000418,-0.532073180468199958
0.597000000000000419,-0.531845075358799546
0.598000000000000420,-0.531593692024986297
0.599000000000000421,-0.531319080400325161
0.600000000000000422,-0.531021296263713083
0.601000000000000423,-0.530700401135486111
0.602000000000000424,-0.530356462172641208
0.603000000000000425,-0.529989552063236169
0.604000000000000425,-0.529599748920054347
0.605000000000000426,-0.529187136173688621
0.606000000000000427,-0.528751802465110332
0.607000000000000428,-0.528293841537766484
0.608000000000000429,-0.527813352129426372
0.609000000000000430,-0.527310437863678816
0.610000000000000431,-0.526785207141347356
0.611000000000000432,-0.526237773031766110
0.612000000000000433,-0.525668253164049526
0.613000000000000433,-0.525076769618441630
0.614000000000000434,-0.524463448817780842
0.615000000000000435,-0.523828421419153756
