# hydroxyapatite-010-ph5_CHOL-JS
# h[nm],U(h)[kJ/mol]
0.149999999999999994,155.359536057154286937
0.150999999999999995,151.766763938913868515
0.151999999999999996,149.073786887197229589
0.152999999999999997,146.708342772011974375
0.153999999999999998,144.416433009613285776
0.154999999999999999,142.107600917403317453
0.156000000000000000,139.767367647004931541
0.157000000000000001,137.410304967897786810
0.158000000000000002,135.056914927344081434
0.159000000000000002,132.723852086517041471
0.160000000000000003,130.421149396539021836
0.161000000000000004,128.152738600890586440
0.162000000000000005,125.918198366946967326
0.163000000000000006,123.714662116699969374
0.164000000000000007,121.538403580409209326
0.165000000000000008,119.385944752040515482
0.166000000000000009,117.254698745702995666
0.167000000000000010,115.143233999172977633
0.168000000000000010,113.051267509254472543
0.169000000000000011,110.979488759201714743
0.170000000000000012,108.929297917784154492
0.171000000000000013,106.902520410192408917
0.172000000000000014,104.901139645562352598
0.173000000000000015,102.927072615185394966
0.174000000000000016,100.981999890725433033
0.175000000000000017,99.067252114631898507
0.176000000000000018,97.183748873830069215
0.177000000000000018,95.331982238601057134
0.178000000000000019,93.512035589306762517
0.179000000000000020,91.723628072329759675
0.180000000000000021,89.966175649276181048
0.181000000000000022,88.238860858571939616
0.182000000000000023,86.540704819187240560
0.183000000000000024,84.870636476578425800
0.184000000000000025,83.227555491186777203
0.185000000000000026,81.610386421309627281
0.186000000000000026,80.018122914329651962
0.187000000000000027,78.449861479778775220
0.188000000000000028,76.904825079488944084
0.189000000000000029,75.382377250605514973
0.190000000000000030,73.882027799348463759
0.191000000000000031,72.403431292642778772
0.192000000000000032,70.946379656800402813
0.193000000000000033,69.510790191526041326
0.194000000000000034,68.096690245398121988
0.195000000000000034,66.704199694431480339
0.196000000000000035,65.333512234075428182
0.197000000000000036,63.984876349734555845
0.198000000000000037,62.658576681544261078
0.199000000000000038,61.354916353141277341
0.200000000000000039,60.074200696879358929
0.201000000000000040,58.816722682905457020
0.202000000000000041,57.582750248856235942
0.203000000000000042,56.372515631637455158
0.204000000000000042,55.186206722921589574
0.205000000000000043,54.023960405112347871
0.206000000000000044,52.885857773604563192
0.207000000000000045,51.771921112944006893
0.208000000000000046,50.682112467538829037
0.209000000000000047,49.616333630389924281
0.210000000000000048,48.574427364404265006
0.211000000000000049,47.556179668803061134
0.212000000000000050,46.561322906597681026
0.213000000000000050,45.589539616874034778
0.214000000000000051,44.640466846610877383
0.215000000000000052,43.713700850023634814
0.216000000000000053,42.808802018158530700
0.217000000000000054,41.925299916986546123
0.218000000000000055,41.062698328005701853
0.219000000000000056,40.220480200905299739
0.220000000000000057,39.398112442827688540
0.221000000000000058,38.595050482925373103
0.222000000000000058,37.810742564058308801
0.223000000000000059,37.044633725494982457
0.224000000000000060,36.296169451293920361
0.225000000000000061,35.564798968626810449
0.226000000000000062,34.849978188668941925
0.227000000000000063,34.151172289861705167
0.228000000000000064,33.467857949403708062
0.229000000000000065,32.799525233820233439
0.230000000000000066,32.145679163481119645
0.231000000000000066,31.505840969066174040
0.232000000000000067,30.879549060311756392
0.233000000000000068,30.266359728996217626
0.234000000000000069,29.665847609128583429
0.235000000000000070,29.077605917776146782
0.236000000000000071,28.501246499984148386
0.237000000000000072,27.936399700877529995
0.238000000000000073,27.382714087360710664
0.239000000000000073,26.839856040909410240
0.240000000000000074,26.307509241830622670
0.241000000000000075,25.785374064108658843
0.242000000000000076,25.273166898595526675
0.243000000000000077,24.770619420881903494
0.244000000000000078,24.277477818734631398
0.245000000000000079,23.793501992532927858
0.246000000000000080,23.318464740703216620
0.247000000000000081,22.852150940758413356
0.248000000000000081,22.394356735207878728
0.249000000000000082,21.944888730330614379
0.250000000000000111,21.503563214602714027
0.251000000000000112,21.070205402451140486
0.252000000000000113,20.644648707967384382
0.253000000000000114,20.226734052264994546
0.254000000000000115,19.816309207298136386
0.255000000000000115,19.413228178178432159
0.256000000000000116,19.017350625328738545
0.257000000000000117,18.628541327194113819
0.258000000000000118,18.246669683688100605
0.259000000000000119,17.871609260081676496
0.260000000000000120,17.503237370638920822
0.261000000000000121,17.141434700963522175
0.262000000000000122,16.786084967737195939
0.263000000000000123,16.437074614302240150
0.264000000000000123,16.094292540358583921
0.265000000000000124,15.757629863908537260
0.266000000000000125,15.426979713483570222
0.267000000000000126,15.102237048623573301
0.268000000000000127,14.783298506545312634
0.269000000000000128,14.470062272930437786
0.270000000000000129,14.162427974779237871
0.271000000000000130,13.860296593312217084
0.272000000000000131,13.563570394954030718
0.273000000000000131,13.272152878500197204
0.274000000000000132,12.985948736644257195
0.275000000000000133,12.704863830128712010
0.276000000000000134,12.428805172875460272
0.277000000000000135,12.157680926549140565
0.278000000000000136,11.891400403106512584
0.279000000000000137,11.629874073987165772
0.280000000000000138,11.373013584703473455
0.281000000000000139,11.120731773688760313
0.282000000000000139,10.872942694363121774
0.283000000000000140,10.629561639473397605
0.284000000000000141,10.390505166858668318
0.285000000000000142,10.155691125883091530
0.286000000000000143,9.925038683864887190
0.287000000000000144,9.698468351912859831
0.288000000000000145,9.475902009659261438
0.289000000000000146,9.257262928451719830
0.290000000000000147,9.042475792634489196
0.291000000000000147,8.831466718613508959
0.292000000000000148,8.624163271457874202
0.293000000000000149,8.420494478844796404
0.294000000000000150,8.220390842204070125
0.295000000000000151,8.023784344963058146
0.296000000000000152,7.830608457833598379
0.297000000000000153,7.640798141118599673
0.298000000000000154,7.454289844048267000
0.299000000000000155,7.271021501184558034
0.300000000000000155,7.090932525957262200
0.301000000000000156,6.913963801417028598
0.302000000000000157,6.740057668308629957
0.303000000000000158,6.569157910583884430
0.304000000000000159,6.401209738486038248
0.305000000000000160,6.236159769348160076
0.306000000000000161,6.073956006255917472
0.307000000000000162,5.914547814731243136
0.308000000000000163,5.757885897597549985
0.309000000000000163,5.603922268189469591
0.310000000000000164,5.452610222071055723
0.311000000000000165,5.303904307425851172
0.312000000000000166,5.157760294280549829
0.313000000000000167,5.014135142721265481
0.314000000000000168,4.872986970257690231
0.315000000000000169,4.734275018486036934
0.316000000000000170,4.597959619196392289
0.317000000000000171,4.464002160064547198
0.318000000000000171,4.332365050062212397
0.319000000000000172,4.203011684712793183
0.320000000000000173,4.075906411313346744
0.321000000000000174,3.951014494236238850
0.322000000000000175,3.828302080416774889
0.323000000000000176,3.707736165126021888
0.324000000000000177,3.589284558120659163
0.325000000000000178,3.472915850254711501
0.326000000000000179,3.358599380630550080
0.327000000000000179,3.246305204359985819
0.328000000000000180,3.136004060999107335
0.329000000000000181,3.027667343713947190
0.330000000000000182,2.921267069227737601
0.331000000000000183,2.816775848594028187
0.332000000000000184,2.714166858834200724
0.333000000000000185,2.613413815472064083
0.334000000000000186,2.514490945992741810
0.335000000000000187,2.417372964247942679
0.336000000000000187,2.322035045824639710
0.337000000000000188,2.228452804389898567
0.338000000000000189,2.136602269019761913
0.339000000000000190,2.046459862516388561
0.340000000000000191,1.958002380713865564
0.341000000000000192,1.871206972769286825
0.342000000000000193,1.786051122432813498
0.343000000000000194,1.702512630287111417
0.344000000000000195,1.620569596944281043
0.345000000000000195,1.540200407185262854
0.346000000000000196,1.461383715025170282
0.347000000000000197,1.384098429685437726
0.348000000000000198,1.308323702452178772
0.349000000000000199,1.234038914398467357
0.350000000000000200,1.161223664946843481
0.351000000000000201,1.089857761247208012
0.352000000000000202,1.019921208344266805
0.353000000000000203,0.951394200107743560
0.354000000000000203,0.884257110897964105
0.355000000000000204,0.818490487938958622
0.356000000000000205,0.754075044370678960
0.357000000000000206,0.690991652951632118
0.358000000000000207,0.629221340383429584
0.359000000000000208,0.568745282228272364
0.360000000000000209,0.509544798390674680
0.361000000000000210,0.451601349135035801
0.362000000000000210,0.394896531610593793
0.363000000000000211,0.339412076855931666
0.364000000000000212,0.285129847255396751
0.365000000000000213,0.232031834420396821
0.366000000000000214,0.180100157468995853
0.367000000000000215,0.129317061677848316
0.368000000000000216,0.079664917480993788
0.369000000000000217,0.031126219790994426
0.370000000000000218,-0.016316412381797197
0.371000000000000218,-0.062680236034968889
0.372000000000000219,-0.107982384027416375
0.373000000000000220,-0.152239864702141542
0.374000000000000221,-0.195469561299430661
0.375000000000000222,-0.237688231180564868
0.376000000000000223,-0.278912504881677514
0.377000000000000224,-0.319158885016148308
0.378000000000000225,-0.358443745043465545
0.379000000000000226,-0.396783327921466256
0.380000000000000226,-0.434193744658306902
0.381000000000000227,-0.470690972779356120
0.382000000000000228,-0.506290854723851269
0.383000000000000229,-0.541009096185044003
0.384000000000000230,-0.574861264406911432
0.385000000000000231,-0.607862786449939074
0.386000000000000232,-0.640028947437359941
0.387000000000000233,-0.671374888792979685
0.388000000000000234,-0.701915606480585486
0.389000000000000234,-0.731665949254640680
0.390000000000000235,-0.760640616930998714
0.391000000000000236,-0.788854158685928453
0.392000000000000237,-0.816320971391020445
0.393000000000000238,-0.843055297991036512
0.394000000000000239,-0.869071225931019820
0.395000000000000240,-0.894382685638656083
0.396000000000000241,-0.919003449067152367
0.397000000000000242,-0.942947128303429749
0.398000000000000242,-0.966227174246061304
0.399000000000000243,-0.988856875356656118
0.400000000000000244,-1.010849356488221940
0.401000000000000245,-1.032217577793456575
0.402000000000000246,-1.052974333715432698
0.403000000000000247,-1.073132252062990455
0.404000000000000248,-1.092703793172542071
0.405000000000000249,-1.111701249157810434
0.406000000000000250,-1.130136743248549180
0.407000000000000250,-1.148022229219150425
0.408000000000000251,-1.165369490907577354
0.409000000000000252,-1.182190141824915219
0.410000000000000253,-1.198495624855507424
0.411000000000000254,-1.214297212047430907
0.412000000000000255,-1.229606004492770133
0.413000000000000256,-1.244432932297135252
0.414000000000000257,-1.258788754637326424
0.415000000000000258,-1.272684059906309395
0.416000000000000258,-1.286129265944061739
0.417000000000000259,-1.299134620353046277
0.418000000000000260,-1.311710200896698986
0.419000000000000261,-1.323865915979334229
0.420000000000000262,-1.335611505205620109
0.421000000000000263,-1.346956540017893333
0.422000000000000264,-1.357910424409135786
0.423000000000000265,-1.368482395709744948
0.424000000000000266,-1.378681525445935696
0.425000000000000266,-1.388516720267482629
0.426000000000000267,-1.397996722942706604
0.427000000000000268,-1.407130113418327388
0.428000000000000269,-1.415925309941867383
0.429000000000000270,-1.424390570244304932
0.430000000000000271,-1.432533992780511634
0.431000000000000272,-1.440363518025173040
0.432000000000000273,-1.447886929821694757
0.433000000000000274,-1.455111856781761581
0.434000000000000274,-1.462045773733096299
0.435000000000000275,-1.468696003213008749
0.436000000000000276,-1.475069717005400349
0.437000000000000277,-1.481173937718764044
0.438000000000000278,-1.487015540402882863
0.439000000000000279,-1.492601254201900041
0.440000000000000280,-1.497937664041403938
0.441000000000000281,-1.503031212347262890
0.442000000000000282,-1.507888200794063938
0.443000000000000282,-1.512514792080767556
0.444000000000000283,-1.516917011731601317
0.445000000000000284,-1.521100749919928941
0.446000000000000285,-1.525071763313045503
0.447000000000000286,-1.528835676935949239
0.448000000000000287,-1.532397986051919236
0.449000000000000288,-1.535764058058138648
0.450000000000000289,-1.538939134394326169
0.451000000000000290,-1.541928332462595863
0.452000000000000290,-1.544736647556760989
0.453000000000000291,-1.547368954799259511
0.454000000000000292,-1.549830011084101677
0.455000000000000293,-1.552124457024121718
0.456000000000000294,-1.554256818900983550
0.457000000000000295,-1.556231510616403080
0.458000000000000296,-1.558052835643066736
0.459000000000000297,-1.559724988973868243
0.460000000000000298,-1.561252059068034770
0.461000000000000298,-1.562638029792843053
0.462000000000000299,-1.563886782359652283
0.463000000000000300,-1.565002097252989888
0.464000000000000301,-1.565987656151579310
0.465000000000000302,-1.566847043840135401
0.466000000000000303,-1.567583750110868257
0.467000000000000304,-1.568201171653694104
0.468000000000000305,-1.568702613934132462
0.469000000000000306,-1.569091293057993441
0.470000000000000306,-1.569370337622001177
0.471000000000000307,-1.569542790549415034
0.472000000000000308,-1.569611610909978916
0.473000000000000309,-1.569579675723389967
0.474000000000000310,-1.569449781745558825
0.475000000000000311,-1.569224647237063897
0.476000000000000312,-1.568906913713135065
0.477000000000000313,-1.568499147674604188
0.478000000000000314,-1.568003842319245944
0.479000000000000314,-1.567423419233087367
0.480000000000000315,-1.566760230061105430
0.481000000000000316,-1.566016558157000471
0.482000000000000317,-1.565194620211551424
0.483000000000000318,-1.564296567859263742
0.484000000000000319,-1.563324489262934325
0.485000000000000320,-1.562280410675862097
0.486000000000000321,-1.561166297981439799
0.487000000000000322,-1.559984058209890945
0.488000000000000322,-1.558735541031892602
0.489000000000000323,-1.557422540229015828
0.490000000000000324,-1.556046795140729744
0.491000000000000325,-1.554609992087895964
0.492000000000000326,-1.553113765772613508
0.493000000000000327,-1.551559700654404628
0.494000000000000328,-1.549949332302591243
0.495000000000000329,-1.548284148724941911
0.496000000000000330,-1.546565591672443452
0.497000000000000330,-1.544795057920381298
0.498000000000000331,-1.542973900525543396
0.499000000000000332,-1.541103430059801438
0.500000000000000333,-1.539184915820012156
0.501000000000000334,-1.537219587014318600
0.502000000000000335,-1.535208633925027488
0.503000000000000336,-1.533153209048101484
0.504000000000000337,-1.531054428209431162
0.505000000000000338,-1.528913371658008113
0.506000000000000338,-1.526731085136173061
0.507000000000000339,-1.524508580927095736
0.508000000000000340,-1.522246838879632191
0.509000000000000341,-1.519946807410845757
0.510000000000000342,-1.517609404486246039
0.511000000000000343,-1.515235518578105012
0.512000000000000344,-1.512826009601945687
0.513000000000000345,-1.510381709831488672
0.514000000000000346,-1.507903424792323310
0.515000000000000346,-1.505391934134453491
0.516000000000000347,-1.502847992484025896
0.517000000000000348,-1.500272330274527999
0.518000000000000349,-1.497665654557607251
0.519000000000000350,-1.495028649793906705
0.520000000000000351,-1.492361978624062946
0.521000000000000352,-1.489666282620267790
0.522000000000000353,-1.486942183018534980
0.523000000000000353,-1.484190281432072211
0.524000000000000354,-1.481411160545982320
0.525000000000000355,-1.478605384793584943
0.526000000000000356,-1.475773501014646660
0.527000000000000357,-1.472916039095858221
0.528000000000000358,-1.470033512593761804
0.529000000000000359,-1.467126419340530230
0.530000000000000360,-1.464195242032776401
0.531000000000000361,-1.461240448803805325
0.532000000000000361,-1.458262493779515001
0.533000000000000362,-1.455261817618289877
0.534000000000000363,-1.452238848035159346
0.535000000000000364,-1.449194000310548791
0.536000000000000365,-1.446127677783861198
0.537000000000000366,-1.443040272332262397
0.538000000000000367,-1.439932164834856865
0.539000000000000368,-1.436803725622684880
0.540000000000000369,-1.433655314914674239
0.541000000000000369,-1.430487283239990415
0.542000000000000370,-1.427299971846919036
0.543000000000000371,-1.424093713098697256
0.544000000000000372,-1.420868830856492959
0.545000000000000373,-1.417625640849849988
0.546000000000000374,-1.414364451034859638
0.547000000000000375,-1.411085561940329303
0.548000000000000376,-1.407789267002251821
0.549000000000000377,-1.404475852886803544
0.550000000000000377,-1.401145599802174679
0.551000000000000378,-1.397798781799448165
0.552000000000000379,-1.394435667062852824
0.553000000000000380,-1.391056518189594193
0.554000000000000381,-1.387661592459509929
0.555000000000000382,-1.384251142094891973
0.556000000000000383,-1.380825414510568505
0.557000000000000384,-1.377384652554666911
0.558000000000000385,-1.373929094740124146
0.559000000000000385,-1.370458975467328200
0.560000000000000386,-1.366974525238036309
0.561000000000000387,-1.363475970860819730
0.562000000000000388,-1.359963535648269328
0.563000000000000389,-1.356437439606199336
0.564000000000000390,-1.352897899615021604
0.565000000000000391,-1.349345129603553906
0.566000000000000392,-1.345779340715440586
0.567000000000000393,-1.342200741468432934
0.568000000000000393,-1.338609537906667368
0.569000000000000394,-1.335005933746213014
0.570000000000000395,-1.331390130514053638
0.571000000000000396,-1.327762327680665155
0.572000000000000397,-1.324122722786465811
0.573000000000000398,-1.320471511562215650
0.574000000000000399,-1.316808888043643488
0.575000000000000400,-1.313135044680414865
0.576000000000000401,-1.309450172439629245
0.577000000000000401,-1.305754460904080760
0.578000000000000402,-1.302048098365338635
0.579000000000000403,-1.298331271911885576
0.580000000000000404,-1.294604167512501292
0.581000000000000405,-1.290866970094945998
0.582000000000000406,-1.287119863620210136
0.583000000000000407,-1.283363031152395362
0.584000000000000408,-1.279596654924431531
0.585000000000000409,-1.275820916399745375
0.586000000000000409,-1.272035996330006302
0.587000000000000410,-1.268242074809154518
0.588000000000000411,-1.264439331323734095
0.589000000000000412,-1.260627944799796563
0.590000000000000413,-1.256808093646366586
0.591000000000000414,-1.252979955795702871
0.592000000000000415,-1.249143708740427572
0.593000000000000416,-1.245299529567624575
0.594000000000000417,-1.241447594990060965
0.595000000000000417,-1.237588081374658699
0.596000000000000418,-1.233721164768225131
0.597000000000000419,-1.229847020920705747
0.598000000000000420,-1.225965825305900481
0.599000000000000421,-1.222077753139885647
0.600000000000000422,-1.218182979397145926
0.601000000000000423,-1.214281678824530974
0.602000000000000424,-1.210374025953179222
0.603000000000000425,-1.206460195108451039
0.604000000000000425,-1.202540360417944765
0.605000000000000426,-1.198614695817735720
0.606000000000000427,-1.194683375056922792
0.607000000000000428,-1.190746571700432854
0.608000000000000429,-1.186804459130414324
0.609000000000000430,-1.182857210545988691
0.610000000000000431,-1.178904998961722406
0.611000000000000432,-1.174947997204678796
0.612000000000000433,-1.170986377910222087
0.613000000000000433,-1.167020313516641483
0.614000000000000434,-1.163049976258614837
