# hydroxyapatite-010-ph5_ALANINEZWITTER
# h[nm],U(h)[kJ/mol]
0.149999999999999994,124.653042928988540439
0.150999999999999995,121.420297117800558340
0.151999999999999996,118.689411345309437706
0.152999999999999997,116.135375017005756604
0.153999999999999998,113.627584097398624863
0.154999999999999999,111.129878530517231638
0.156000000000000000,108.645834376035196556
0.157000000000000001,106.190843476122722677
0.158000000000000002,103.779443807125971944
0.159000000000000002,101.420862179720103313
0.160000000000000003,99.118606428673587061
0.161000000000000004,96.871747671526918566
0.162000000000000005,94.676637274278149903
0.163000000000000006,92.528457772804529213
0.164000000000000007,90.422378125892663547
0.165000000000000008,88.354280226688459265
0.166000000000000009,86.321116015872249250
0.167000000000000010,84.320987573334491572
0.168000000000000010,82.353043999569479183
0.169000000000000011,80.417275462251936347
0.170000000000000012,78.514266123732994629
0.171000000000000013,76.644948986794105394
0.172000000000000014,74.810389498163374355
0.173000000000000015,73.011611946831536102
0.174000000000000016,71.249473328629349567
0.175000000000000017,69.524583027349962094
0.176000000000000018,67.837262821252139133
0.177000000000000018,66.187539773271637955
0.178000000000000019,64.575163967493153905
0.179000000000000020,62.999643363156714315
0.180000000000000021,61.460288894665595194
0.181000000000000022,59.956264084494101496
0.182000000000000023,58.486634665298694813
0.183000000000000024,57.050414900537205654
0.184000000000000025,55.646608371166600193
0.185000000000000026,54.274241917805326807
0.186000000000000026,52.932392177524079102
0.187000000000000027,51.620204734269904634
0.188000000000000028,50.336906325052424904
0.189000000000000029,49.081810829893811388
0.190000000000000030,47.854319944339721360
0.191000000000000031,46.653919511527135455
0.192000000000000032,45.480172497626668360
0.193000000000000033,44.332709548953005196
0.194000000000000034,43.211217987572261734
0.195000000000000034,42.115429998444319892
0.196000000000000035,41.045110645965472429
0.197000000000000036,40.000046239676315452
0.198000000000000037,38.980033454150017747
0.199000000000000038,37.984869501085782417
0.200000000000000039,37.014343555263806707
0.201000000000000040,36.068229551891690221
0.202000000000000041,35.146280401638854585
0.203000000000000042,34.248223611237470720
0.204000000000000042,33.373758251321433477
0.205000000000000043,32.522553178224796966
0.206000000000000044,31.694246391585387812
0.207000000000000045,30.888445393516416715
0.208000000000000046,30.104728406496452209
0.209000000000000047,29.342646304704061322
0.210000000000000048,28.601725116072032051
0.211000000000000049,27.881468958750815545
0.212000000000000050,27.181363284953260262
0.213000000000000050,26.500878316440878990
0.214000000000000051,25.839472568458837998
0.215000000000000052,25.196596372114548501
0.216000000000000053,24.571695318515484274
0.217000000000000054,23.964213561033112398
0.218000000000000055,23.373596924531145902
0.219000000000000056,22.799295782061410165
0.220000000000000057,22.240767670228212438
0.221000000000000058,21.697479624059045733
0.222000000000000058,21.168910220739640238
0.223000000000000059,20.654551328971741953
0.224000000000000060,20.153909567009499426
0.225000000000000061,19.666507477673647486
0.226000000000000062,19.191884432893935752
0.227000000000000063,18.729597283666159058
0.228000000000000064,18.279220773813875667
0.229000000000000065,17.840347737703449837
0.230000000000000066,17.412589103164179960
0.231000000000000066,16.995573721398336886
0.232000000000000067,16.588948045713998170
0.233000000000000068,16.192375680555006312
0.234000000000000069,15.805536821610530751
0.235000000000000070,15.428127606830134511
0.236000000000000071,15.059859397008560578
0.237000000000000072,14.700458003292306230
0.238000000000000073,14.349662877545901196
0.239000000000000073,14.007226280041090050
0.240000000000000074,13.672912437430824184
0.241000000000000075,13.346496702474741625
0.242000000000000076,13.027764725516314925
0.243000000000000077,12.716511646294870630
0.244000000000000078,12.412541313324258141
0.245000000000000079,12.115665536795889423
0.246000000000000080,11.825703379776115298
0.247000000000000081,11.542480491371710727
0.248000000000000081,11.265828484536616116
0.249000000000000082,10.995584360289216264
0.250000000000000111,10.731589979300945714
0.251000000000000112,10.473691581103000914
0.252000000000000113,10.221739350533924906
0.253000000000000114,9.975587030514921238
0.254000000000000115,9.735091579783858862
0.255000000000000115,9.500112873841361605
0.256000000000000116,9.270513447054655742
0.257000000000000117,9.046158273622785018
0.258000000000000118,8.826914584924420382
0.259000000000000119,8.612651720640098318
0.260000000000000120,8.403241010959266788
0.261000000000000121,8.198555687144175153
0.262000000000000122,7.998470817720123804
0.263000000000000123,7.802863267592528018
0.264000000000000123,7.611611677448449242
0.265000000000000124,7.424596460881433657
0.266000000000000125,7.241699816777907195
0.267000000000000126,7.062805754618972642
0.268000000000000127,6.887800130478064276
0.269000000000000128,6.716570691631472023
0.270000000000000129,6.549007127840832609
0.271000000000000130,6.385001127512877517
0.272000000000000131,6.224446437089635076
0.273000000000000131,6.067238922170139048
0.274000000000000132,5.913276629010733920
0.275000000000000133,5.762459845194075392
0.276000000000000134,5.614691158395726411
0.277000000000000135,5.469875512311299204
0.278000000000000136,5.327920258934555342
0.279000000000000137,5.188735206498574115
0.280000000000000138,5.052232662506775718
0.281000000000000139,4.918327471387622829
0.282000000000000139,4.786937046407229168
0.283000000000000140,4.657981395566378247
0.284000000000000141,4.531383141293689576
0.285000000000000142,4.407067533824352346
0.286000000000000143,4.284962458224212511
0.287000000000000144,4.164998435082671868
0.288000000000000145,4.047108614954003869
0.289000000000000146,3.931228766677291819
0.290000000000000147,3.817297259748497318
0.291000000000000147,3.705255040956494383
0.292000000000000148,3.595045605526828503
0.293000000000000149,3.486614963044411208
0.294000000000000150,3.379911598448352095
0.295000000000000151,3.274886428409813810
0.296000000000000152,3.171492753417457067
0.297000000000000153,3.069686205904509357
0.298000000000000154,2.969424694757875738
0.299000000000000155,2.870668346552589067
0.300000000000000155,2.773379443855099602
0.301000000000000156,2.677522360936664736
0.302000000000000157,2.583063497233228922
0.303000000000000158,2.489971208881736064
0.304000000000000159,2.398215738654367435
0.305000000000000160,2.307769144602390021
0.306000000000000161,2.218605227710137573
0.307000000000000162,2.130699458847460814
0.308000000000000163,2.044028905296000787
0.309000000000000163,1.958572157110834766
0.310000000000000164,1.874309253564852895
0.311000000000000165,1.791221609908552725
0.312000000000000166,1.709291944663113183
0.313000000000000167,1.628504207649598357
0.314000000000000168,1.548843508942259195
0.315000000000000169,1.470296048918882548
0.316000000000000170,1.392849049566533992
0.317000000000000171,1.316490687186545827
0.318000000000000171,1.241210026628585705
0.319000000000000172,1.166996957169669669
0.320000000000000173,1.093842130140942004
0.321000000000000174,1.021736898392042292
0.322000000000000175,0.950673257670539562
0.323000000000000176,0.880643789982174185
0.324000000000000177,0.811641608986305996
0.325000000000000178,0.743660307470383919
0.326000000000000179,0.676693906936893574
0.327000000000000179,0.610736809327029562
0.328000000000000180,0.545783750896054243
0.329000000000000181,0.481829758247063034
0.330000000000000182,0.418870106522135355
0.331000000000000183,0.356900279742337900
0.332000000000000184,0.295915933281632293
0.333000000000000185,0.235912858453404178
0.334000000000000186,0.176886949182694542
0.335000000000000187,0.118834170732201191
0.336000000000000187,0.061750530445230198
0.337000000000000188,0.005632050465010729
0.338000000000000189,-0.049525257614414911
0.339000000000000190,-0.103725416213468827
0.340000000000000191,-0.156972503399079422
0.341000000000000192,-0.209270672736917435
0.342000000000000193,-0.260624171418890715
0.343000000000000194,-0.311037356723194935
0.344000000000000195,-0.360514710865147470
0.345000000000000195,-0.409060854298741394
0.346000000000000196,-0.456680557529115128
0.347000000000000197,-0.503378751497123522
0.348000000000000198,-0.549160536597286031
0.349000000000000199,-0.594031190390526431
0.350000000000000200,-0.637996174073047873
0.351000000000000201,-0.681061137762268620
0.352000000000000202,-0.723231924660255876
0.353000000000000203,-0.764514574154503523
0.354000000000000203,-0.804915323914982772
0.355000000000000204,-0.844440611045448764
0.356000000000000205,-0.883097072345968237
0.357000000000000206,-0.920891543742501151
0.358000000000000207,-0.957831058937842927
0.359000000000000208,-0.993922847337194604
0.360000000000000209,-1.029174331300067191
0.361000000000000210,-1.063593122768602184
0.362000000000000210,-1.097187019321121060
0.363000000000000211,-1.129963999697910060
0.364000000000000212,-1.161932218844780040
0.365000000000000213,-1.193100002518187264
0.366000000000000214,-1.223475841494173100
0.367000000000000215,-1.253068385421559183
0.368000000000000216,-1.281886436358420811
0.369000000000000217,-1.309938942028804565
0.370000000000000218,-1.337234988835477090
0.371000000000000218,-1.363783794662376092
0.372000000000000219,-1.389594701499169194
0.373000000000000220,-1.414677167918537481
0.374000000000000221,-1.439040761435241178
0.375000000000000222,-1.462695150774421693
0.376000000000000223,-1.485650098075279812
0.377000000000000224,-1.507915451054452349
0.378000000000000225,-1.529501135152238289
0.379000000000000226,-1.550417145683164799
0.380000000000000226,-1.570673540011297886
0.381000000000000227,-1.590280429768941906
0.382000000000000228,-1.609247973136523457
0.383000000000000229,-1.627586367199845174
0.384000000000000230,-1.645305840399795105
0.385000000000000231,-1.662416645088557798
0.386000000000000232,-1.678929050204938545
0.387000000000000233,-1.694853334080646423
0.388000000000000234,-1.710199777388049736
0.389000000000000234,-1.724978656239185337
0.390000000000000235,-1.739200235444562370
0.391000000000000236,-1.752874761939634540
0.392000000000000237,-1.766012458385744832
0.393000000000000238,-1.778623516951670425
0.394000000000000239,-1.790718093280926126
0.395000000000000240,-1.802306300649407778
0.396000000000000241,-1.813398204317126172
0.397000000000000242,-1.824003816077099716
0.398000000000000242,-1.834133089003958661
0.399000000000000243,-1.843795912404003756
0.400000000000000244,-1.853002106968084206
0.401000000000000245,-1.861761420128065669
0.402000000000000246,-1.870083521617051714
0.403000000000000247,-1.877977999233207296
0.404000000000000248,-1.885454354806531896
0.405000000000000249,-1.892522000367486967
0.406000000000000250,-1.899190254516026188
0.407000000000000250,-1.905468338989279475
0.408000000000000251,-1.911365375425721380
0.409000000000000252,-1.916890382323433117
0.410000000000000253,-1.922052272189753053
0.411000000000000254,-1.926859848879380666
0.412000000000000255,-1.931321805117732993
0.413000000000000256,-1.935446720206250859
0.414000000000000257,-1.939243057905959189
0.415000000000000258,-1.942719164495713802
0.416000000000000258,-1.945883267001119021
0.417000000000000259,-1.948743471590188792
0.418000000000000260,-1.951307762131606394
0.419000000000000261,-1.953583998911373243
0.420000000000000262,-1.955579917503522669
0.421000000000000263,-1.957303127790619657
0.422000000000000264,-1.958761113129481757
0.423000000000000265,-1.959961229657797732
0.424000000000000266,-1.960910705737111126
0.425000000000000266,-1.961616641527611282
0.426000000000000267,-1.962086008690285155
0.427000000000000268,-1.962325650211892647
0.428000000000000269,-1.962342280348233103
0.429000000000000270,-1.962142484681274279
0.430000000000000271,-1.961732720285638054
0.431000000000000272,-1.961119316000063506
0.432000000000000273,-1.960308472799427992
0.433000000000000274,-1.959306264263024344
0.434000000000000274,-1.958118637134812046
0.435000000000000275,-1.956751411971389576
0.436000000000000276,-1.955210283873594079
0.437000000000000277,-1.953500823297555700
0.438000000000000278,-1.951628476941250412
0.439000000000000279,-1.949598568702608059
0.440000000000000280,-1.947416300705248293
0.441000000000000281,-1.945086754388108075
0.442000000000000282,-1.942614891655278786
0.443000000000000282,-1.940005556082346816
0.444000000000000283,-1.937263474175806355
0.445000000000000284,-1.934393256682029216
0.446000000000000285,-1.931399399942439699
0.447000000000000286,-1.928286287291714363
0.448000000000000287,-1.925058190495674948
0.449000000000000288,-1.921719271225972303
0.450000000000000289,-1.918273582568415403
0.451000000000000290,-1.914725070562128151
0.452000000000000290,-1.911077575766730430
0.453000000000000291,-1.907334834854751859
0.454000000000000292,-1.903500482226751611
0.455000000000000293,-1.899578051646516386
0.456000000000000294,-1.895570977893949349
0.457000000000000295,-1.891482598433260165
0.458000000000000296,-1.887316155094195480
0.459000000000000297,-1.883074795764128506
0.460000000000000298,-1.878761576088893381
0.461000000000000298,-1.874379461180356587
0.462000000000000299,-1.869931327328817616
0.463000000000000300,-1.865419963718316421
0.464000000000000301,-1.860848074143166997
0.465000000000000302,-1.856218278723959614
0.466000000000000303,-1.851533115621431635
0.467000000000000304,-1.846795042746684601
0.468000000000000305,-1.842006439466247203
0.469000000000000306,-1.837169608300608159
0.470000000000000306,-1.832286776614924673
0.471000000000000307,-1.827360098300557123
0.472000000000000308,-1.822391655446354175
0.473000000000000309,-1.817383459998491713
0.474000000000000310,-1.812337455407805775
0.475000000000000311,-1.807255518263657379
0.476000000000000312,-1.802139459913361108
0.477000000000000313,-1.796991028066314389
0.478000000000000314,-1.791811908381952367
0.479000000000000314,-1.786603726040857820
0.480000000000000315,-1.781368047298183210
0.481000000000000316,-1.776106381018832892
0.482000000000000317,-1.770820180193704019
0.483000000000000318,-1.765510843436470356
0.484000000000000319,-1.760179716460356092
0.485000000000000320,-1.754828093534431144
0.486000000000000321,-1.749457218919009849
0.487000000000000322,-1.744068288279733592
0.488000000000000322,-1.738662450079967225
0.489000000000000323,-1.733240806951268809
0.490000000000000324,-1.727804417041567620
0.491000000000000325,-1.722354295340865038
0.492000000000000326,-1.716891414984199615
0.493000000000000327,-1.711416708531773079
0.494000000000000328,-1.705931069225992802
0.495000000000000329,-1.700435352225421415
0.496000000000000330,-1.694930375815436374
0.497000000000000330,-1.689416922595665227
0.498000000000000331,-1.683895740644009376
0.499000000000000332,-1.678367544657399346
0.500000000000000333,-1.672833017069204731
0.501000000000000334,-1.667292809143323451
0.502000000000000335,-1.661747542045091119
0.503000000000000336,-1.656197807889000062
0.504000000000000337,-1.650644170763380769
0.505000000000000338,-1.645087167732131705
0.506000000000000338,-1.639527309813637812
0.507000000000000339,-1.633965082937041347
0.508000000000000340,-1.628400948875975640
0.509000000000000341,-1.622835346160033110
0.510000000000000342,-1.617268690964039690
0.511000000000000343,-1.611701377975450100
0.512000000000000344,-1.606133781239989844
0.513000000000000345,-1.600566254985819281
0.514000000000000346,-1.594999134426464460
0.515000000000000346,-1.589432736542706337
0.516000000000000347,-1.583867360843720817
0.517000000000000348,-1.578303290107751167
0.518000000000000349,-1.572740791102508418
0.519000000000000350,-1.567180115285667696
0.520000000000000351,-1.561621499485648545
0.521000000000000352,-1.556065166563070701
0.522000000000000353,-1.550511326053050309
0.523000000000000353,-1.544960174788760465
0.524000000000000354,-1.539411897506472560
0.525000000000000355,-1.533866667432405295
0.526000000000000356,-1.528324646851689339
0.527000000000000357,-1.522785987659773799
0.528000000000000358,-1.517250831896544527
0.529000000000000359,-1.511719312263513304
0.530000000000000360,-1.506191552624341679
0.531000000000000361,-1.500667668489074291
0.532000000000000361,-1.495147767482333023
0.533000000000000362,-1.489631949795841681
0.534000000000000363,-1.484120308625551221
0.535000000000000364,-1.478612930593726560
0.536000000000000365,-1.473109896156253207
0.537000000000000366,-1.467611279995542972
0.538000000000000367,-1.462117151399263459
0.539000000000000368,-1.456627574625318999
0.540000000000000369,-1.451142609253254001
0.541000000000000369,-1.445662310522520810
0.542000000000000370,-1.440186729657791265
0.543000000000000371,-1.434715914181715180
0.544000000000000372,-1.429249908215363352
0.545000000000000373,-1.423788752766676158
0.546000000000000374,-1.418332486007211291
0.547000000000000375,-1.412881143537450424
0.548000000000000376,-1.407434758641019190
0.549000000000000377,-1.401993362528024090
0.550000000000000377,-1.396556984567858706
0.551000000000000378,-1.391125652511684185
0.552000000000000379,-1.385699392704949462
0.553000000000000380,-1.380278230290119534
0.554000000000000381,-1.374862189399949752
0.555000000000000382,-1.369451293341567011
0.556000000000000383,-1.364045564771541041
0.557000000000000384,-1.358645025862326161
0.558000000000000385,-1.353249698460184280
0.559000000000000385,-1.347859604234953323
0.560000000000000386,-1.342474764821837807
0.561000000000000387,-1.337095201955477375
0.562000000000000388,-1.331720937596521992
0.563000000000000389,-1.326351994050967820
0.564000000000000390,-1.320988394082440287
0.565000000000000391,-1.315630161017683708
0.566000000000000392,-1.310277318845439964
0.567000000000000393,-1.304929892308984707
0.568000000000000393,-1.299587906992446751
0.569000000000000394,-1.294251389401194663
0.570000000000000395,-1.288920367036468395
0.571000000000000396,-1.283594868464398742
0.572000000000000397,-1.278274923379711936
0.573000000000000398,-1.272960562664206208
0.574000000000000399,-1.267651818440248768
0.575000000000000400,-1.262348724119448651
0.576000000000000401,-1.257051314446667289
0.577000000000000401,-1.251759625539603515
0.578000000000000402,-1.246473694924029818
0.579000000000000403,-1.241193561564902570
0.580000000000000404,-1.235919265893520969
0.581000000000000405,-1.230650849830828619
0.582000000000000406,-1.225388356807075807
0.583000000000000407,-1.220131831777942599
0.584000000000000408,-1.214881321237308409
0.585000000000000409,-1.209636873226779485
0.586000000000000409,-1.204398537342114661
0.587000000000000410,-1.199166364736730772
0.588000000000000411,-1.193940408122323049
0.589000000000000412,-1.188720721766849397
0.590000000000000413,-1.183507361489888554
0.591000000000000414,-1.178300384655573518
0.592000000000000415,-1.173099850163186630
0.593000000000000416,-1.167905818435515330
0.594000000000000417,-1.162718351405104489
0.595000000000000417,-1.157537512498535648
0.596000000000000418,-1.152363366618746054
0.597000000000000419,-1.147195980125617298
0.598000000000000420,-1.142035420814809354
0.599000000000000421,-1.136881757895036316
0.600000000000000422,-1.131735061963812239
0.601000000000000423,-1.126595404981765913
0.602000000000000424,-1.121462860245650672
0.603000000000000425,-1.116337502360095879
0.604000000000000425,-1.111219407208174914
0.605000000000000426,-1.106108651920909125
0.606000000000000427,-1.101005314845770133
0.607000000000000428,-1.095909475514191156
0.608000000000000429,-1.090821214608299172
0.609000000000000430,-1.085740613926762688
0.610000000000000431,-1.080667756349988240
0.611000000000000432,-1.075602725804596149
0.612000000000000433,-1.070545607227324281
0.613000000000000433,-1.065496486528387132
0.614000000000000434,-1.060455450554344647
