# hydroxyapatite-010-ph5_BSAIV9
# h[nm],U(h)[kJ/mol]
0.149999999999999994,133.055789340269171817
0.150999999999999995,129.675702866963575843
0.151999999999999996,126.925983395880550120
0.152999999999999997,124.402736157285971785
0.153999999999999998,121.943510262938161759
0.154999999999999999,119.501904434906236929
0.156000000000000000,117.079909934935585625
0.157000000000000001,114.693931378828068546
0.158000000000000002,112.359658981207530815
0.159000000000000002,110.086886908684320474
0.160000000000000003,107.879106216073935798
0.161000000000000004,105.735006471241007375
0.162000000000000005,103.650406100661740538
0.163000000000000006,101.619935057518858912
0.164000000000000007,99.638235957077739613
0.165000000000000008,97.700674611024595606
0.166000000000000009,95.803649145238097162
0.167000000000000010,93.944615489464737834
0.168000000000000010,92.121940506212510513
0.169000000000000011,90.334672569150626487
0.170000000000000012,88.582294190666587497
0.171000000000000013,86.864498002046744318
0.172000000000000014,85.181008418173817631
0.173000000000000015,83.531457254376505261
0.174000000000000016,81.915312046555158076
0.175000000000000017,80.331850085060821698
0.176000000000000018,78.780168326388476885
0.177000000000000018,77.259218563318142969
0.178000000000000019,75.767857806435287671
0.179000000000000020,74.304905197795136473
0.180000000000000021,72.869198523347392893
0.181000000000000022,71.459645221904708023
0.182000000000000023,70.075264514244480551
0.183000000000000024,68.715218784690506482
0.184000000000000025,67.378833585729893230
0.185000000000000026,66.065606591034821804
0.186000000000000026,64.775206507446696946
0.187000000000000027,63.507463401667010316
0.188000000000000028,62.262352140153346625
0.189000000000000029,61.039970721019891187
0.190000000000000030,59.840515233283191776
0.191000000000000031,58.664253046742700803
0.192000000000000032,57.511495645576886204
0.193000000000000033,56.382572295607076285
0.194000000000000034,55.277805499236251308
0.195000000000000034,54.197488958611927501
0.196000000000000035,53.141868547664934397
0.197000000000000036,52.111126594784195731
0.198000000000000037,51.105369604469018441
0.199000000000000038,50.124619400447393502
0.200000000000000039,49.168807554738158672
0.201000000000000040,48.237772875903964120
0.202000000000000041,47.331261663305170373
0.203000000000000042,46.448930389950653819
0.204000000000000042,45.590350451654586550
0.205000000000000043,44.755014611649720280
0.206000000000000044,43.942344774616024949
0.207000000000000045,43.151700739462647505
0.208000000000000046,42.382389603574203818
0.209000000000000047,41.633675520307974693
0.210000000000000048,40.904789544301415560
0.211000000000000049,40.194939333923251468
0.212000000000000050,39.503318515562526159
0.213000000000000050,38.829115549266518315
0.214000000000000051,38.171521968621298981
0.215000000000000052,37.529739899056195895
0.216000000000000053,36.902988787479237942
0.217000000000000054,36.290511302011225325
0.218000000000000055,35.691578383422651655
0.219000000000000056,35.105493449644747272
0.220000000000000057,34.531595771463905464
0.221000000000000058,33.969263051342856841
0.222000000000000058,33.417913248399564452
0.223000000000000059,32.877005701133896309
0.224000000000000060,32.346041605743522496
0.225000000000000061,31.824563912063617011
0.226000000000000062,31.312156701543852222
0.227000000000000063,30.808444112487290312
0.228000000000000064,30.313088877254223519
0.229000000000000065,29.825790534503408225
0.230000000000000066,29.346283377012600369
0.231000000000000066,28.874334192378871222
0.232000000000000067,28.409739850122218030
0.233000000000000068,27.952324784553621129
0.234000000000000069,27.501938418359792138
0.235000000000000070,27.058452567315942616
0.236000000000000071,26.621758861965997056
0.237000000000000072,26.191766217590334520
0.238000000000000073,25.768398379383114616
0.239000000000000073,25.351591565540978479
0.240000000000000074,24.941292226962410439
0.241000000000000075,24.537454938509153379
0.242000000000000076,24.140040433305930634
0.243000000000000077,23.749013788369222056
0.244000000000000078,23.364342766966494480
0.245000000000000079,22.985996320514935576
0.246000000000000080,22.613943250529896289
0.247000000000000081,22.248151029119657807
0.248000000000000081,21.888584774783609532
0.249000000000000082,21.535206378792402404
0.250000000000000111,21.187973776194091613
0.251000000000000112,20.846840354484577063
0.252000000000000113,20.511754492184099519
0.253000000000000114,20.182659218958633573
0.254000000000000115,19.859491988494582415
0.255000000000000115,19.542184555061741236
0.256000000000000116,19.230662944564574701
0.257000000000000117,18.924847510868232803
0.258000000000000118,18.624653068279133805
0.259000000000000119,18.329989091242936183
0.260000000000000120,18.040759972583181536
0.261000000000000121,17.756865331928032958
0.262000000000000122,17.478200366347827810
0.263000000000000123,17.204656235642907802
0.264000000000000123,16.936120475167975030
0.265000000000000124,16.672477429548322903
0.266000000000000125,16.413608701126324974
0.267000000000000126,16.159393607466334686
0.268000000000000127,15.909709642736647339
0.269000000000000128,15.664432938273705531
0.270000000000000129,15.423438718110762835
0.271000000000000130,15.186601745717364764
0.272000000000000131,14.953796758644823939
0.273000000000000131,14.724898888202417879
0.274000000000000132,14.499784061698472115
0.275000000000000133,14.278329385167841892
0.276000000000000134,14.060413504871092982
0.277000000000000135,13.845916946191248798
0.278000000000000136,13.634722428869618938
0.279000000000000137,13.426715157813779555
0.280000000000000138,13.221783088978487086
0.281000000000000139,13.019817170063504363
0.282000000000000139,12.820711555993117514
0.283000000000000140,12.624363799339734626
0.284000000000000141,12.430675016030530600
0.285000000000000142,12.239550026831471641
0.286000000000000143,12.050897475239032985
0.287000000000000144,11.864629922527397454
0.288000000000000145,11.680663920798393107
0.289000000000000146,11.498920064965359344
0.290000000000000147,11.319323024669854405
0.291000000000000147,11.141801557184678018
0.292000000000000148,10.966288502397505411
0.293000000000000149,10.792720760998941287
0.294000000000000150,10.621039257017125479
0.295000000000000151,10.451188885849589383
0.296000000000000152,10.283118448943117329
0.297000000000000153,10.116780576264108760
0.298000000000000154,9.952131637687092081
0.299000000000000155,9.789131644407735422
0.300000000000000155,9.627744141460386373
0.301000000000000156,9.467936092389072300
0.302000000000000157,9.309677757085802696
0.303000000000000158,9.152942563772009876
0.304000000000000159,8.997706976057960659
0.305000000000000160,8.843950355972113542
0.306000000000000161,8.691654823807773766
0.307000000000000162,8.540805115588671725
0.308000000000000163,8.391388438908771619
0.309000000000000163,8.243394327854703718
0.310000000000000164,8.096814497672511379
0.311000000000000165,7.951642699793737279
0.312000000000000166,7.807874577790094861
0.313000000000000167,7.665507524780453608
0.314000000000000168,7.524540542770017382
0.315000000000000169,7.384974104358095204
0.316000000000000170,7.246810017209305954
0.317000000000000171,7.110051291642554006
0.318000000000000171,6.974702011653410416
0.319000000000000172,6.840767209647976799
0.320000000000000173,6.708252745130979910
0.321000000000000174,6.577165187556806458
0.322000000000000175,6.447511703519995585
0.323000000000000176,6.319299948431333469
0.324000000000000177,6.192537962796972550
0.325000000000000178,6.067234073191164256
0.326000000000000179,5.943396797987808178
0.327000000000000179,5.821034757892749489
0.328000000000000180,5.700156591296780206
0.329000000000000181,5.580770874449126673
0.330000000000000182,5.462886046432687159
0.331000000000000183,5.346510338905097193
0.332000000000000184,5.231651710554187318
0.333000000000000185,5.118317786202323916
0.334000000000000186,5.006515800481182055
0.335000000000000187,4.896252545987214155
0.336000000000000187,4.787534325817692782
0.337000000000000188,4.680366910378504386
0.338000000000000189,4.574755498346585902
0.339000000000000190,4.470704681663372426
0.340000000000000191,4.368218414429851926
0.341000000000000192,4.267299985568712373
0.342000000000000193,4.167951995115384278
0.343000000000000194,4.070176333996428752
0.344000000000000195,3.973974167151653969
0.345000000000000195,3.879345919854262803
0.346000000000000196,3.786291267082879664
0.347000000000000197,3.694809125798538041
0.348000000000000198,3.604897649980130403
0.349000000000000199,3.516554228272512628
0.350000000000000200,3.429775484102612459
0.351000000000000201,3.344557278120514177
0.352000000000000202,3.260894712824609964
0.353000000000000203,3.178782139232100512
0.354000000000000203,3.098213165458887808
0.355000000000000204,3.019180667075913593
0.356000000000000205,2.941676799112010521
0.357000000000000206,2.865693009576765427
0.358000000000000207,2.791220054380661786
0.359000000000000208,2.718248013533172358
0.360000000000000209,2.646766308503480936
0.361000000000000210,2.576763720632563981
0.362000000000000210,2.508228410489095062
0.363000000000000211,2.441147938066024814
0.364000000000000212,2.375509283718558518
0.365000000000000213,2.311298869748584561
0.366000000000000214,2.248502582544609663
0.367000000000000215,2.187105795190517732
0.368000000000000216,2.127093390460388811
0.369000000000000217,2.068449784120998114
0.370000000000000218,2.011158948467265173
0.371000000000000218,1.955204436020270053
0.372000000000000219,1.900569403321053397
0.373000000000000220,1.847236634757419393
0.374000000000000221,1.795188566364672722
0.375000000000000222,1.744407309544958595
0.376000000000000223,1.694874674653197300
0.377000000000000224,1.646572194401448197
0.378000000000000225,1.599481147036603490
0.379000000000000226,1.553582579249825235
0.380000000000000226,1.508857328779023010
0.381000000000000227,1.465286046669125097
0.382000000000000228,1.422849219157414691
0.383000000000000229,1.381527189154398316
0.384000000000000230,1.341300177293235141
0.385000000000000231,1.302148302523324475
0.386000000000000232,1.264051602226404780
0.387000000000000233,1.226990051835565421
0.388000000000000234,1.190943583940268669
0.389000000000000234,1.155892106862277613
0.390000000000000235,1.121815522689778799
0.391000000000000236,1.088693744758784554
0.392000000000000237,1.056506714572849726
0.393000000000000238,1.025234418153871063
0.394000000000000239,0.994856901818509387
0.395000000000000240,0.965354287376219533
0.396000000000000241,0.936706786746476006
0.397000000000000242,0.908894715994179259
0.398000000000000242,0.881898508783412360
0.399000000000000243,0.855698729251188395
0.400000000000000244,0.830276084303704920
0.401000000000000245,0.805611435338857595
0.402000000000000246,0.781685809399788711
0.403000000000000247,0.758480409764983099
0.404000000000000248,0.735976625981449861
0.405000000000000249,0.714156043348210035
0.406000000000000250,0.693000451858089450
0.407000000000000250,0.672491854606373729
0.408000000000000251,0.652612475675573789
0.409000000000000252,0.633344767506021311
0.410000000000000253,0.614671417762511552
0.411000000000000254,0.596575355707629096
0.412000000000000255,0.579039758092824708
0.413000000000000256,0.562048054578485279
0.414000000000000257,0.545583932694796991
0.415000000000000258,0.529631342355100343
0.416000000000000258,0.514174499933982232
0.417000000000000259,0.499197891922238512
0.418000000000000260,0.484686278171164830
0.419000000000000261,0.470624694738591198
0.420000000000000262,0.456998456349271276
0.421000000000000263,0.443793158482110095
0.422000000000000264,0.430994679096932232
0.423000000000000265,0.418589180013271889
0.424000000000000266,0.406563107953714087
0.425000000000000266,0.394903195264322715
0.426000000000000267,0.383596460324447552
0.427000000000000268,0.372630207658232682
0.428000000000000269,0.361992027759982127
0.429000000000000270,0.351669796645348642
0.430000000000000271,0.341651675140284383
0.431000000000000272,0.331926107919361391
0.432000000000000273,0.322481822305063059
0.433000000000000274,0.313307826839298087
0.434000000000000274,0.304393409638315571
0.435000000000000275,0.295728136541925590
0.436000000000000276,0.287301849067697901
0.437000000000000277,0.279104662180654717
0.438000000000000278,0.271126961888696782
0.439000000000000279,0.263359402673727316
0.440000000000000280,0.255792904768311125
0.441000000000000281,0.248418651287376502
0.442000000000000282,0.241228085224174604
0.443000000000000282,0.234212906319655856
0.444000000000000283,0.227365067813913718
0.445000000000000284,0.220676773088314931
0.446000000000000285,0.214140472206585331
0.447000000000000286,0.207748858362791028
0.448000000000000287,0.201494864244141203
0.449000000000000288,0.195371658315975638
0.450000000000000289,0.189372641036344491
0.451000000000000290,0.183491441007132494
0.452000000000000290,0.177721911068509486
0.453000000000000291,0.172058124343312496
0.454000000000000292,0.166494370237567774
0.455000000000000293,0.161025150403295653
0.456000000000000294,0.155645174669376996
0.457000000000000295,0.150349356946088919
0.458000000000000296,0.145132811108705628
0.459000000000000297,0.139990846865271690
0.460000000000000298,0.134918965613520431
0.461000000000000298,0.129912856291612255
0.462000000000000299,0.124968391227219922
0.463000000000000300,0.120081621989273218
0.464000000000000301,0.115248775246412111
0.465000000000000302,0.110466248636095041
0.466000000000000303,0.105730606648054559
0.467000000000000304,0.101038576525598736
0.468000000000000305,0.096387044188135193
0.469000000000000306,0.091773050178051596
0.470000000000000306,0.087193785634911911
0.471000000000000307,0.082646588299859422
0.472000000000000308,0.078128938552809710
0.473000000000000309,0.073638455484938081
0.474000000000000310,0.069172893008848740
0.475000000000000311,0.064730136008554040
0.476000000000000312,0.060308196531349070
0.477000000000000313,0.055905210023453167
0.478000000000000314,0.051519431611247855
0.479000000000000314,0.047149232429650946
0.480000000000000315,0.042793095999250338
0.481000000000000316,0.038449614653486286
0.482000000000000317,0.034117486017228062
0.483000000000000318,0.029795509537848729
0.484000000000000319,0.025482583069887509
0.485000000000000320,0.021177699514213954
0.486000000000000321,0.016879943512545958
0.487000000000000322,0.012588488198055980
0.488000000000000322,0.008302592002766484
0.489000000000000323,0.004021595522201759
0.490000000000000324,-0.000255081562130188
0.491000000000000325,-0.004527943502097109
0.492000000000000326,-0.008797421443777398
0.493000000000000327,-0.013063876329588452
0.494000000000000328,-0.017327601741466702
0.495000000000000329,-0.021588826685074315
0.496000000000000330,-0.025847718314905975
0.497000000000000330,-0.030104384600442645
0.498000000000000331,-0.034358876933277903
0.499000000000000332,-0.038611192675507389
0.500000000000000333,-0.042861277649496120
0.501000000000000334,-0.047109028569237890
0.502000000000000335,-0.051354295413688231
0.503000000000000336,-0.055596883742310324
0.504000000000000337,-0.059836556953277532
0.505000000000000338,-0.064073038484703707
0.506000000000000338,-0.068306013959378797
0.507000000000000339,-0.072535133273496741
0.508000000000000340,-0.076760012629859653
0.509000000000000341,-0.080980236516188464
0.510000000000000342,-0.085195359629008524
0.511000000000000343,-0.089404908743836137
0.512000000000000344,-0.093608384532186645
0.513000000000000345,-0.097805263326120218
0.514000000000000346,-0.101994998831012124
0.515000000000000346,-0.106177023787170380
0.516000000000000347,-0.110350751581068968
0.517000000000000348,-0.114515577806920094
0.518000000000000349,-0.118670881779285489
0.519000000000000350,-0.122816027997528734
0.520000000000000351,-0.126950367562821492
0.521000000000000352,-0.131073239548548159
0.522000000000000353,-0.135183972324794732
0.523000000000000353,-0.139281884837820835
0.524000000000000354,-0.143366287845222429
0.525000000000000355,-0.147436485107649395
0.526000000000000356,-0.151491774537828944
0.527000000000000357,-0.155531449307773961
0.528000000000000358,-0.159554798914914253
0.529000000000000359,-0.163561110208030630
0.530000000000000360,-0.167549668373739524
0.531000000000000361,-0.171519757884410012
0.532000000000000361,-0.175470663408268474
0.533000000000000362,-0.179401670682538594
0.534000000000000363,-0.183312067350391766
0.535000000000000364,-0.187201143762557115
0.536000000000000365,-0.191068193744330816
0.537000000000000366,-0.194912515328846153
0.538000000000000367,-0.198733411457323816
0.539000000000000368,-0.202530190647168318
0.540000000000000369,-0.206302167628605121
0.541000000000000369,-0.210048663950711589
0.542000000000000370,-0.213769008557517737
0.543000000000000371,-0.217462538335026823
0.544000000000000372,-0.221128598629836443
0.545000000000000373,-0.224766543740129082
0.546000000000000374,-0.228375737379775456
0.547000000000000375,-0.231955553116235613
0.548000000000000376,-0.235505374783026161
0.549000000000000377,-0.239024596867408456
0.550000000000000377,-0.242512624874041988
0.551000000000000378,-0.245968875665231484
0.552000000000000379,-0.249392777778514818
0.553000000000000380,-0.252783771722193129
0.554000000000000381,-0.256141310249484055
0.555000000000000382,-0.259464858611989535
0.556000000000000383,-0.262753894793001153
0.557000000000000384,-0.266007909721415470
0.558000000000000385,-0.269226407466721995
0.559000000000000385,-0.272408905415794211
0.560000000000000386,-0.275554934432001408
0.561000000000000387,-0.278664038997244679
0.562000000000000388,-0.281735777337482063
0.563000000000000389,-0.284769721532332265
0.564000000000000390,-0.287765457609252984
0.565000000000000391,-0.290722585622887664
0.566000000000000392,-0.293640719720054011
0.567000000000000393,-0.296519488190963965
0.568000000000000393,-0.299358533507084856
0.569000000000000394,-0.302157512346225843
0.570000000000000395,-0.304916095605294424
0.571000000000000396,-0.307633968401168245
0.572000000000000397,-0.310310830060234077
0.573000000000000398,-0.312946394096934477
0.574000000000000399,-0.315540388181861087
0.575000000000000400,-0.318092554099772107
0.576000000000000401,-0.320602647697953991
0.577000000000000401,-0.323070438825402928
0.578000000000000402,-0.325495711263141030
0.579000000000000403,-0.327878262646102980
0.580000000000000404,-0.330217904377013816
0.581000000000000405,-0.332514461532535666
0.582000000000000406,-0.334767772762144422
0.583000000000000407,-0.336977690180024436
0.584000000000000408,-0.339144079250359387
0.585000000000000409,-0.341266818666343563
0.586000000000000409,-0.343345800223226583
0.587000000000000410,-0.345380928685758093
0.588000000000000411,-0.347372121650256660
0.589000000000000412,-0.349319309401708966
0.590000000000000413,-0.351222434766084946
0.591000000000000414,-0.353081452958235842
0.592000000000000415,-0.354896331425602951
0.593000000000000416,-0.356667049688018656
0.594000000000000417,-0.358393599173850830
0.595000000000000417,-0.360075983052780879
0.596000000000000418,-0.361714216065374128
0.597000000000000419,-0.363308324349789380
0.598000000000000420,-0.364858345265744677
0.599000000000000421,-0.366364327216058328
0.600000000000000422,-0.367826329465919755
0.601000000000000423,-0.369244421960091718
0.602000000000000424,-0.370618685138303594
0.603000000000000425,-0.371949209748981546
0.604000000000000425,-0.373236096661487937
0.605000000000000426,-0.374479456677108302
0.606000000000000427,-0.375679410338931874
0.607000000000000428,-0.376836087740737458
0.608000000000000429,-0.377949628335194965
0.609000000000000430,-0.379020180741341250
0.610000000000000431,-0.380047902551671257
0.611000000000000432,-0.381032960138851573
0.612000000000000433,-0.381975528462266012
0.613000000000000433,-0.382875790874518063
0.614000000000000434,-0.383733938928001117
0.615000000000000435,-0.384550172181670979
0.616000000000000436,-0.385324698008133681
0.617000000000000437,-0.386057731401198978
