# hydroxyapatite-010-ph5_TRP-AC
# h[nm],U(h)[kJ/mol]
0.149999999999999994,141.842892424853801003
0.150999999999999995,137.503007148203494125
0.151999999999999996,134.762605651163937637
0.152999999999999997,132.510548378434833694
0.153999999999999998,130.275006726908515020
0.154999999999999999,127.912371324360293556
0.156000000000000000,125.429130112197668723
0.157000000000000001,122.885328271012170376
0.158000000000000002,120.346574175292744258
0.159000000000000002,117.863748358532120619
0.160000000000000003,115.467574498676910366
0.161000000000000004,113.170385757032590845
0.162000000000000005,110.970704742070850557
0.163000000000000006,108.858292537077346651
0.164000000000000007,106.818546943955198003
0.165000000000000008,104.835835005002039111
0.166000000000000009,102.895724569255804681
0.167000000000000010,100.986261866249805053
0.168000000000000010,99.098509169989867473
0.169000000000000011,97.226560795549033855
0.170000000000000012,95.367228926703560887
0.171000000000000013,93.519552107689150944
0.172000000000000014,91.684239265397209806
0.173000000000000015,89.863126262394686705
0.174000000000000016,88.058692470756255943
0.175000000000000017,86.273662149081175698
0.176000000000000018,84.510698988670370113
0.177000000000000018,82.772191121350516596
0.178000000000000019,81.060117073799091258
0.179000000000000020,79.375979576095190282
0.180000000000000021,77.720792876202509092
0.181000000000000022,76.095109525676576823
0.182000000000000023,74.499073893403789270
0.183000000000000024,72.932491487750240822
0.184000000000000025,71.394905201892157720
0.185000000000000026,69.885671622684895965
0.186000000000000026,68.404032420130562286
0.187000000000000027,66.949177482293080743
0.188000000000000028,65.520297842934638766
0.189000000000000029,64.116627560038836009
0.190000000000000030,62.737474556402574422
0.191000000000000031,61.382241054226369670
0.192000000000000032,60.050434655844334486
0.193000000000000033,58.741671376187092335
0.194000000000000034,57.455672052318298881
0.195000000000000034,56.192253572019318142
0.196000000000000035,54.951316304061649021
0.197000000000000036,53.732829000762691862
0.198000000000000037,52.536812297969675001
0.199000000000000038,51.363321774290952249
0.200000000000000039,50.212431362288995729
0.201000000000000040,49.084217738522212926
0.202000000000000041,47.978746163249397227
0.203000000000000042,46.896058098610339471
0.204000000000000042,45.836160808740245898
0.205000000000000043,44.799019037773120999
0.206000000000000044,43.784548772185793553
0.207000000000000045,42.792613021822504038
0.208000000000000046,41.823019498062350863
0.209000000000000047,40.875520026448270983
0.210000000000000048,39.949811502991728673
0.211000000000000049,39.045538186522080082
0.212000000000000050,38.162295112095229399
0.213000000000000050,37.299632410919748793
0.214000000000000051,36.457060328915325442
0.215000000000000052,35.634054747457355461
0.216000000000000053,34.830063024804317706
0.217000000000000054,34.044509994040446088
0.218000000000000055,33.276803972148414346
0.219000000000000056,32.526342654262393239
0.220000000000000057,31.792518786592985691
0.221000000000000058,31.074725530452838029
0.222000000000000058,30.372361447841871751
0.223000000000000059,29.684835055890697930
0.224000000000000060,29.011568912900958850
0.225000000000000061,28.352003212640063623
0.226000000000000062,27.705598875880355081
0.227000000000000063,27.071840138908459750
0.228000000000000064,26.450236647899497910
0.229000000000000065,25.840325075713451497
0.230000000000000066,25.241670283914181994
0.231000000000000066,24.653866057735889683
0.232000000000000067,24.076535445441471950
0.233000000000000068,23.509330736150360508
0.234000000000000069,22.951933111881373861
0.235000000000000070,22.404052010379324145
0.236000000000000071,21.865424235388623231
0.237000000000000072,21.335812850512951400
0.238000000000000073,20.815005891762787371
0.239000000000000073,20.302814932438455031
0.240000000000000074,19.799073532210208270
0.241000000000000075,19.303635600223387314
0.242000000000000076,18.816373699841925315
0.243000000000000077,18.337177320311958795
0.244000000000000078,17.865951138233334916
0.245000000000000079,17.402613289315869594
0.246000000000000080,16.947093668509971565
0.247000000000000081,16.499332274268713405
0.248000000000000081,16.059277610448916107
0.249000000000000082,15.626885157212427657
0.250000000000000111,15.202115920261570992
0.251000000000000112,14.784935065847543356
0.252000000000000113,14.375310647233428440
0.253000000000000114,13.973212426682474430
0.254000000000000115,13.578610795574766357
0.255000000000000115,13.191475793935364180
0.256000000000000116,12.811776229478240907
0.257000000000000117,12.439478895231108169
0.258000000000000118,12.074547883900383027
0.259000000000000119,11.716943996355798419
0.260000000000000120,11.366624240954319447
0.261000000000000121,11.023541419875583003
0.262000000000000122,10.687643798196244660
0.263000000000000123,10.358874851082589430
0.264000000000000123,10.037173084218846242
0.265000000000000124,9.722471922406686673
0.266000000000000125,9.414699661159897204
0.267000000000000126,9.113779476070495988
0.268000000000000127,8.819629484730224789
0.269000000000000128,8.532162856048618238
0.270000000000000129,8.251287961907804558
0.271000000000000130,7.976908566229101716
0.272000000000000131,7.708924046692311904
0.273000000000000131,7.447229644538521320
0.274000000000000132,7.191716738097882811
0.275000000000000133,6.942273135909596604
0.276000000000000134,6.698783385538779278
0.277000000000000135,6.461129094440680731
0.278000000000000136,6.229189259472542872
0.279000000000000137,6.002840601905426787
0.280000000000000138,5.781957905040188805
0.281000000000000139,5.566414351779856773
0.282000000000000139,5.356081859754963759
0.283000000000000140,5.150831411835977924
0.284000000000000141,4.950533380097095204
0.285000000000000142,4.755057841517148276
0.286000000000000143,4.564274883915257597
0.287000000000000144,4.378054900820766093
0.288000000000000145,4.196268874167649265
0.289000000000000146,4.018788643884134260
0.290000000000000147,3.845487163616417181
0.291000000000000147,3.676238741983342884
0.292000000000000148,3.510919268904474144
0.293000000000000149,3.349406426679453208
0.294000000000000150,3.191579885620210000
0.295000000000000151,3.037321484150875328
0.296000000000000152,2.886515393393168871
0.297000000000000153,2.739048266347923644
0.298000000000000154,2.594809371866498626
0.299000000000000155,2.453690713679949731
0.300000000000000155,2.315587134819073523
0.301000000000000156,2.180396407815648363
0.302000000000000157,2.048019311124078534
0.303000000000000158,1.918359692244975490
0.304000000000000159,1.791324518066991445
0.305000000000000160,1.666823912972182686
0.306000000000000161,1.544771185272884706
0.307000000000000162,1.425082842565523311
0.308000000000000163,1.307678596599286536
0.309000000000000163,1.192481358265318203
0.310000000000000164,1.079417223315944696
0.311000000000000165,0.968415449423259078
0.312000000000000166,0.859408425183061708
0.313000000000000167,0.752331631663683664
0.314000000000000168,0.647123597090100811
0.315000000000000169,0.543725845242313155
0.316000000000000170,0.442082838133252665
0.317000000000000171,0.342141913516358920
0.318000000000000171,0.243853217756118040
0.319000000000000172,0.147169634576435726
0.320000000000000173,0.052046710182996850
0.321000000000000174,-0.041557424764585169
0.322000000000000175,-0.133682135875518249
0.323000000000000176,-0.224364368011406329
0.324000000000000177,-0.313638730117934028
0.325000000000000178,-0.401537581513590258
0.326000000000000179,-0.488091119266153561
0.327000000000000179,-0.573327466309060618
0.328000000000000180,-0.657272759971281983
0.329000000000000181,-0.739951240615594585
0.330000000000000182,-0.821385340100611927
0.331000000000000183,-0.901595769802730596
0.332000000000000184,-0.980601607953582088
0.333000000000000185,-1.058420386068223085
0.334000000000000186,-1.135068174257963136
0.335000000000000187,-1.210559665239723470
0.336000000000000187,-1.284908256871645449
0.337000000000000188,-1.358126133060908902
0.338000000000000189,-1.430224342906460056
0.339000000000000190,-1.501212877954331892
0.340000000000000191,-1.571100747457931046
0.341000000000000192,-1.639896051549968758
0.342000000000000193,-1.707606052245563388
0.343000000000000194,-1.774237242208952736
0.344000000000000195,-1.839795411227645561
0.345000000000000195,-1.904285710349615357
0.346000000000000196,-1.967712713648904099
0.347000000000000197,-2.030080477595359589
0.348000000000000198,-2.091392598013027904
0.349000000000000199,-2.151652264620393051
0.350000000000000200,-2.210862313153501901
0.351000000000000201,-2.269025275080296389
0.352000000000000202,-2.326143424921204517
0.353000000000000203,-2.382218825197228718
0.354000000000000203,-2.437253369032417627
0.355000000000000204,-2.491248820442613976
0.356000000000000205,-2.544206852347194570
0.357000000000000206,-2.596129082344682981
0.358000000000000207,-2.647017106296538635
0.359000000000000208,-2.696872529767207816
0.360000000000000209,-2.745696997371183556
0.361000000000000210,-2.793492220080240340
0.362000000000000210,-2.840260000546552366
0.363000000000000211,-2.886002256498918506
0.364000000000000212,-2.930721042271089427
0.365000000000000213,-2.974418568522278150
0.366000000000000214,-3.017097220211028663
0.367000000000000215,-3.058759572884225175
0.368000000000000216,-3.099408407343702265
0.369000000000000217,-3.139046722752794949
0.370000000000000218,-3.177677748245730349
0.371000000000000218,-3.215304953102125385
0.372000000000000219,-3.251932055548909517
0.373000000000000220,-3.287563030251393847
0.374000000000000221,-3.322202114554539065
0.375000000000000222,-3.355853813534751762
0.376000000000000223,-3.388522903921900031
0.377000000000000224,-3.420214436949871928
0.378000000000000225,-3.450933740193291133
0.379000000000000226,-3.480686418446619967
0.380000000000000226,-3.509478353700908659
0.381000000000000227,-3.537315704271769334
0.382000000000000228,-3.564204903131310775
0.383000000000000229,-3.590152655494924350
0.384000000000000230,-3.615165935712603584
0.385000000000000231,-3.639251983513114741
0.386000000000000232,-3.662418299647499875
0.387000000000000233,-3.684672640977284086
0.388000000000000234,-3.706023015050897040
0.389000000000000234,-3.726477674210579405
0.390000000000000235,-3.746045109270219164
0.391000000000000236,-3.764734042803296266
0.392000000000000237,-3.782553422078371419
0.393000000000000238,-3.799512411678229284
0.394000000000000239,-3.815620385837031225
0.395000000000000240,-3.830886920528659090
0.396000000000000241,-3.845321785337681320
0.397000000000000242,-3.858934935143027101
0.398000000000000242,-3.871736501643167294
0.399000000000000243,-3.883736784749873383
0.400000000000000244,-3.894946243876623360
0.401000000000000245,-3.905375489146153622
0.402000000000000246,-3.915035272540360101
0.403000000000000247,-3.923936479014574985
0.404000000000000248,-3.932090117596923839
0.405000000000000249,-3.939507312492300350
0.406000000000000250,-3.946199294209232100
0.407000000000000250,-3.952177390726896000
0.408000000000000251,-3.957453018718349647
0.409000000000000252,-3.962037674844999913
0.410000000000000253,-3.965942927136288265
0.411000000000000254,-3.969180406467600619
0.412000000000000255,-3.971761798148372158
0.413000000000000256,-3.973698833631599481
0.414000000000000257,-3.975003282354797385
0.415000000000000258,-3.975686943721933542
0.416000000000000258,-3.975761639234718814
0.417000000000000259,-3.975239204781096269
0.418000000000000260,-3.974131483087846028
0.419000000000000261,-3.972450316343633769
0.420000000000000262,-3.970207538998002494
0.421000000000000263,-3.967414970741351077
0.422000000000000264,-3.964084409670031839
0.423000000000000265,-3.960227625640386329
0.424000000000000266,-3.955856353814871884
0.425000000000000266,-3.950982288402737019
0.426000000000000267,-3.945617076597508266
0.427000000000000268,-3.939772312712755742
0.428000000000000269,-3.933459532517380008
0.429000000000000270,-3.926690207771129870
0.430000000000000271,-3.919475740960613130
0.431000000000000272,-3.911827460235856702
0.432000000000000273,-3.903756614546874282
0.433000000000000274,-3.895274368979609214
0.434000000000000274,-3.886391800290117438
0.435000000000000275,-3.877119892635654708
0.436000000000000276,-3.867469533501106671
0.437000000000000277,-3.857451509818800695
0.438000000000000278,-3.847076504279642428
0.439000000000000279,-3.836355091833287823
0.440000000000000280,-3.825297736374773105
0.441000000000000281,-3.813914787614925750
0.442000000000000282,-3.802216478131753341
0.443000000000000282,-3.790212920599678625
0.444000000000000283,-3.777914105193596050
0.445000000000000284,-3.765329897164408912
0.446000000000000285,-3.752470034582624514
0.447000000000000286,-3.739344126246694877
0.448000000000000287,-3.725961649752316251
0.449000000000000288,-3.712331949719261281
0.450000000000000289,-3.698464236171874031
0.451000000000000290,-3.684367583069595664
0.452000000000000290,-3.670050926983672746
0.453000000000000291,-3.655523065916198355
0.454000000000000292,-3.640792658257696157
0.455000000000000293,-3.625868221879284814
0.456000000000000294,-3.610758133355607580
0.457000000000000295,-3.595470627314624856
0.458000000000000296,-3.580013795910331087
0.459000000000000297,-3.564395588414593252
0.460000000000000298,-3.548623810924206090
0.461000000000000298,-3.532706126179322670
0.462000000000000299,-3.516650053489474459
0.463000000000000300,-3.500462968763341731
0.464000000000000301,-3.484152104638590597
0.465000000000000302,-3.467724550708025877
0.466000000000000303,-3.451187253838369884
0.467000000000000304,-3.434547018578108180
0.468000000000000305,-3.417810507650758556
0.469000000000000306,-3.400984242530071811
0.470000000000000306,-3.384074604093741279
0.471000000000000307,-3.367087833352078174
0.472000000000000308,-3.350030032248461076
0.473000000000000309,-3.332907164528152499
0.474000000000000310,-3.315725056672277127
0.475000000000000311,-3.298489398893828195
0.476000000000000312,-3.281205746192577433
0.477000000000000313,-3.263879519465841206
0.478000000000000314,-3.246516006672122590
0.479000000000000314,-3.229120364044807623
0.480000000000000315,-3.211697617352956335
0.481000000000000316,-3.194252663206550213
0.482000000000000317,-3.176790270403391681
0.483000000000000318,-3.159315081315113183
0.484000000000000319,-3.141831613309681526
0.485000000000000320,-3.124344260207937207
0.486000000000000321,-3.106857293771749795
0.487000000000000322,-3.089374865221436117
0.488000000000000322,-3.071901006780099586
0.489000000000000323,-3.054439633242812757
0.490000000000000324,-3.036994543568351634
0.491000000000000325,-3.019569422491502397
0.492000000000000326,-3.002167842153831590
0.493000000000000327,-2.984793263751098102
0.494000000000000328,-2.967449039195284133
0.495000000000000329,-2.950138412789548692
0.496000000000000330,-2.932864522914224281
0.497000000000000330,-2.915630403722315300
0.498000000000000331,-2.898438986842660103
0.499000000000000332,-2.881293103089404006
0.500000000000000333,-2.864195484176120576
0.501000000000000334,-2.847148764433133916
0.502000000000000335,-2.830155482526724775
0.503000000000000336,-2.813218083178800732
0.504000000000000337,-2.796338918885781233
0.505000000000000338,-2.779520251635425598
0.506000000000000338,-2.762764254620470261
0.507000000000000339,-2.746073013947902375
0.508000000000000340,-2.729448530342787560
0.509000000000000341,-2.712892720845690775
0.510000000000000342,-2.696407420502580976
0.511000000000000343,-2.679994384046422429
0.512000000000000344,-2.663655287569425045
0.513000000000000345,-2.647391730185219672
0.514000000000000346,-2.631205235680104781
0.515000000000000346,-2.615097254152583872
0.516000000000000347,-2.599069163640497671
0.517000000000000348,-2.583122271735113440
0.518000000000000349,-2.567257817181405777
0.519000000000000350,-2.551476971464083476
0.520000000000000351,-2.535780840378640821
0.521000000000000352,-2.520170465587050934
0.522000000000000353,-2.504646826157451933
0.523000000000000353,-2.489210840087479504
0.524000000000000354,-2.473863365810770265
0.525000000000000355,-2.458605203686217600
0.526000000000000356,-2.443437097469613128
0.527000000000000357,-2.428359735767402494
0.528000000000000358,-2.413373753472099814
0.529000000000000359,-2.398479733179243567
0.530000000000000360,-2.383678206585476467
0.531000000000000361,-2.368969655867639190
0.532000000000000361,-2.354354515042583973
0.533000000000000362,-2.339833171307571291
0.534000000000000363,-2.325405966361056009
0.535000000000000364,-2.311073197703740867
0.536000000000000365,-2.296835119919760526
0.537000000000000366,-2.282691945937913136
0.538000000000000367,-2.268643848272810626
0.539000000000000368,-2.254690960245994358
0.540000000000000369,-2.240833377186802089
0.541000000000000369,-2.227071157613148333
0.542000000000000370,-2.213404324392028943
0.543000000000000371,-2.199832865879892019
0.544000000000000372,-2.186356737042806309
0.545000000000000373,-2.172975860556511929
0.546000000000000374,-2.159690127886366273
0.547000000000000375,-2.146499400347241071
0.548000000000000376,-2.133403510143504267
0.549000000000000377,-2.120402261389078724
0.550000000000000377,-2.107495431107747841
0.551000000000000378,-2.094682770213748935
0.552000000000000379,-2.081964004472862673
0.553000000000000380,-2.069338835443995883
0.554000000000000381,-2.056806941401495781
0.555000000000000382,-2.044367978238330608
0.556000000000000383,-2.032021580350176215
0.557000000000000384,-2.019767361500746095
0.558000000000000385,-2.007604915668349754
0.559000000000000385,-1.995533817873982541
0.560000000000000386,-1.983553624991059250
0.561000000000000387,-1.971663876536985827
0.562000000000000388,-1.959864095446759436
0.563000000000000389,-1.948153788828815181
0.564000000000000390,-1.936532448703264020
0.565000000000000391,-1.924999552722782337
0.566000000000000392,-1.913554564876303932
0.567000000000000393,-1.902196936175803099
0.568000000000000393,-1.890926105326274698
0.569000000000000394,-1.879741499379212089
0.570000000000000395,-1.868642534369798325
0.571000000000000396,-1.857628615937947814
0.572000000000000397,-1.846699139933556166
0.573000000000000398,-1.835853493006042170
0.574000000000000399,-1.825091053178527600
0.575000000000000400,-1.814411190406802543
0.576000000000000401,-1.803813267123321129
0.577000000000000401,-1.793296638766532780
0.578000000000000402,-1.782860654295643554
0.579000000000000403,-1.772504656691143765
0.580000000000000404,-1.762227983441331691
0.581000000000000405,-1.752029967014978595
0.582000000000000406,-1.741909935320477221
0.583000000000000407,-1.731867212151607660
0.584000000000000408,-1.721901117620231458
0.585000000000000409,-1.712010968576088032
0.586000000000000409,-1.702196079013936103
0.587000000000000410,-1.692455760468310144
0.588000000000000411,-1.682789322396032405
0.589000000000000412,-1.673196072546821345
0.590000000000000413,-1.663675317322103497
0.591000000000000414,-1.654226362122345417
0.592000000000000415,-1.644848511683085990
0.593000000000000416,-1.635541070399888053
0.594000000000000417,-1.626303342642422933
0.595000000000000417,-1.617134633057987658
0.596000000000000418,-1.608034246864498584
0.597000000000000419,-1.599001490133381553
0.598000000000000420,-1.590035670062391215
0.599000000000000421,-1.581136095238699024
0.600000000000000422,-1.572302075892384465
0.601000000000000423,-1.563532924140548230
0.602000000000000424,-1.554827954222282260
0.603000000000000425,-1.546186482724666522
0.604000000000000425,-1.537607828799985032
0.605000000000000426,-1.529091314374390276
0.606000000000000427,-1.520636264348218747
0.607000000000000428,-1.512242006788030446
0.608000000000000429,-1.503907873110800431
0.609000000000000430,-1.495633198260148733
0.610000000000000431,-1.487417320875081161
0.611000000000000432,-1.479259583451208560
0.612000000000000433,-1.471159332494724081
0.613000000000000433,-1.463115918669325666
