# hydroxyapatite-010-ph5_TYR-AC
# h[nm],U(h)[kJ/mol]
0.149999999999999994,130.638249962373720336
0.150999999999999995,127.008655316617890207
0.151999999999999996,124.456556794301079094
0.152999999999999997,122.142828006658191953
0.153999999999999998,119.767007079246923240
0.154999999999999999,117.281814504525669918
0.156000000000000000,114.738053138816212595
0.157000000000000001,112.206809429534331457
0.158000000000000002,109.745637059171755823
0.159000000000000002,107.388305378641689458
0.160000000000000003,105.145990422193762015
0.161000000000000004,103.013020862279361722
0.162000000000000005,100.973516021142614818
0.163000000000000006,99.007177304585155753
0.164000000000000007,97.093592295011760029
0.165000000000000008,95.214995586816286277
0.166000000000000009,93.357706517717105044
0.167000000000000010,91.512562115999500634
0.168000000000000010,89.674665882602425881
0.169000000000000011,87.842729409445013289
0.170000000000000012,86.018223501938749109
0.171000000000000013,84.204494473042501568
0.172000000000000014,82.405947539467049978
0.173000000000000015,80.627355878376718579
0.174000000000000016,78.873321273852383229
0.175000000000000017,77.147889373763206322
0.176000000000000018,75.454307766478962094
0.177000000000000018,73.794906613500415915
0.178000000000000019,72.171077792058781597
0.179000000000000020,70.583327994437539132
0.180000000000000021,69.031382849595246398
0.181000000000000022,67.514321990784878835
0.182000000000000023,66.030728436632358580
0.183000000000000024,64.578839224369218641
0.184000000000000025,63.156687630837595293
0.185000000000000026,61.762230357926419799
0.186000000000000026,60.393455651489944103
0.187000000000000027,59.048470436633614611
0.188000000000000028,57.725566199824378089
0.189000000000000029,56.423264568230180771
0.190000000000000030,55.140344382185148220
0.191000000000000031,53.875852586970765401
0.192000000000000032,52.629101544742944441
0.193000000000000033,51.399655442502918845
0.194000000000000034,50.187308397923153791
0.195000000000000034,48.992056685234373958
0.196000000000000035,47.814067254816478680
0.197000000000000036,46.653644432274880671
0.198000000000000037,45.511196378933846063
0.199000000000000038,44.387202593489881508
0.200000000000000039,43.282183446827403372
0.201000000000000040,42.196672477413827096
0.202000000000000041,41.131191938654623641
0.203000000000000042,40.086231884861817321
0.204000000000000042,39.062232909810688852
0.205000000000000043,38.059572510474779961
0.206000000000000044,37.078554936618637328
0.207000000000000045,36.119404301979280092
0.208000000000000046,35.182260671850301037
0.209000000000000047,34.267178801882948846
0.210000000000000048,33.374129180698815844
0.211000000000000049,32.503001021443381546
0.212000000000000050,31.653606851851940007
0.213000000000000050,30.825688366164751386
0.214000000000000051,30.018923222991599431
0.215000000000000052,29.232932498967748813
0.216000000000000053,28.467288537022604089
0.217000000000000054,27.721522958841312345
0.218000000000000055,26.995134642438529227
0.219000000000000056,26.287597496721026857
0.220000000000000057,25.598367894740995609
0.221000000000000058,24.926891655477778187
0.222000000000000058,24.272610490025023466
0.223000000000000059,23.634967851749539847
0.224000000000000060,23.013414151172533195
0.225000000000000061,22.407411314953794346
0.226000000000000062,21.816436684455936756
0.227000000000000063,21.239986263007203604
0.228000000000000064,20.677577332294656998
0.229000000000000065,20.128750467456846707
0.230000000000000066,19.593070987587381637
0.231000000000000066,19.070129883693326178
0.232000000000000067,18.559544269873136102
0.233000000000000068,18.060957405779525686
0.234000000000000069,17.574038339503978534
0.235000000000000070,17.098481220042319961
0.236000000000000071,16.634004327644845489
0.237000000000000072,16.180348868778089866
0.238000000000000073,15.737277580272726496
0.239000000000000073,15.304573184635154703
0.240000000000000074,14.882036735572262032
0.241000000000000075,14.469485889626557906
0.242000000000000076,14.066753136528683754
0.243000000000000077,13.673684017523584089
0.244000000000000078,13.290135357581339903
0.245000000000000079,12.915973534116602650
0.246000000000000080,12.551072801656752986
0.247000000000000081,12.195313688852246869
0.248000000000000081,11.848581481341689425
0.249000000000000082,11.510764801287685088
0.250000000000000111,11.181754291901466303
0.251000000000000112,10.861441412983785071
0.252000000000000113,10.549717351428631318
0.253000000000000114,10.246472048767742535
0.254000000000000115,9.951593346170721333
0.255000000000000115,9.664966245855390881
0.256000000000000116,9.386472286595294534
0.257000000000000117,9.115989029927600740
0.258000000000000118,8.853389652754701800
0.259000000000000119,8.598542641283348331
0.260000000000000120,8.351311580645585764
0.261000000000000121,8.111555034083291815
0.262000000000000122,7.879126505239648637
0.263000000000000123,7.653874476875458299
0.264000000000000123,7.435642519202332323
0.265000000000000124,7.224269460988483438
0.266000000000000125,7.019589616633782114
0.267000000000000126,6.821433062519574264
0.268000000000000127,6.629625956104613138
0.269000000000000128,6.443990891453533543
0.270000000000000129,6.264347285138858190
0.271000000000000130,6.090511786744648326
0.272000000000000131,5.922298708512373722
0.273000000000000131,5.759520469000817045
0.274000000000000132,5.601988045976459496
0.275000000000000133,5.449511434103052387
0.276000000000000134,5.301900103355414728
0.277000000000000135,5.158963454438177720
0.278000000000000136,5.020511267841968106
0.279000000000000137,4.886354143514662240
0.280000000000000138,4.756303928461385055
0.281000000000000139,4.630174129911250880
0.282000000000000139,4.507780312000697620
0.283000000000000140,4.388940474220243360
0.284000000000000141,4.273475410153686482
0.285000000000000142,4.161209045304259391
0.286000000000000143,4.051968753051625072
0.287000000000000144,3.945585648015844438
0.288000000000000145,3.841894856319555629
0.289000000000000146,3.740735762438364365
0.290000000000000147,3.641952232510742071
0.291000000000000147,3.545392814144457727
0.292000000000000148,3.450910912905738037
0.293000000000000149,3.358364945811756375
0.294000000000000150,3.267618472266295093
0.295000000000000151,3.178540302983562160
0.296000000000000152,3.091004587537335091
0.297000000000000153,3.004890881251385260
0.298000000000000154,2.920084192214763341
0.299000000000000155,2.836475009261229197
0.300000000000000155,2.753959311797956389
0.301000000000000156,2.672438562404562568
0.302000000000000157,2.591819683150359932
0.303000000000000158,2.512015016596715888
0.304000000000000159,2.432942272462448763
0.305000000000000160,2.354524460934861008
0.306000000000000161,2.276689813607058799
0.307000000000000162,2.199371693014987805
0.308000000000000163,2.122508491735395353
0.309000000000000163,2.046043521989237224
0.310000000000000164,1.969924896674569270
0.311000000000000165,1.894105402729105991
0.312000000000000166,1.818542367695932471
0.313000000000000167,1.743197520336662310
0.314000000000000168,1.668036846105192428
0.315000000000000169,1.593030438262329485
0.316000000000000170,1.518152345377401513
0.317000000000000171,1.443380415927884686
0.318000000000000171,1.368696140672342576
0.319000000000000172,1.294084493435503358
0.320000000000000173,1.219533770908163728
0.321000000000000174,1.145035432028094657
0.322000000000000175,1.070583937471948577
0.323000000000000176,0.996176589752524322
0.324000000000000177,0.921813374380476391
0.325000000000000178,0.847496802515141923
0.326000000000000179,0.773231755495322970
0.327000000000000179,0.699025331608294609
0.328000000000000180,0.624886695423309435
0.329000000000000181,0.550826929985210989
0.330000000000000182,0.476858892134261747
0.331000000000000183,0.402997071189571010
0.332000000000000184,0.329257451206543816
0.333000000000000185,0.255657376992564689
0.334000000000000186,0.182215424040336582
0.335000000000000187,0.108951272514877393
0.336000000000000187,0.035885585407601096
0.337000000000000188,-0.036960109049735658
0.338000000000000189,-0.109563530638746090
0.339000000000000190,-0.181901756021643546
0.340000000000000191,-0.253951323185235389
0.341000000000000192,-0.325688331441542744
0.342000000000000193,-0.397088536979603834
0.343000000000000194,-0.468127443977502555
0.344000000000000195,-0.538780391296105332
0.345000000000000195,-0.609022634788528916
0.346000000000000196,-0.678829425269734665
0.347000000000000197,-0.748176082200989745
0.348000000000000198,-0.817038063152802474
0.349000000000000199,-0.885391029118169470
0.350000000000000200,-0.953210905755341620
0.351000000000000201,-1.020473940645788336
0.352000000000000202,-1.087156756658823609
0.353000000000000203,-1.153236401519460941
0.354000000000000203,-1.218690393680433415
0.355000000000000204,-1.283496764602930496
0.356000000000000205,-1.347634097553910504
0.357000000000000206,-1.411081563030385011
0.358000000000000207,-1.473818950922882065
0.359000000000000208,-1.535826699532139683
0.360000000000000209,-1.597085921554067811
0.361000000000000210,-1.657578427148422850
0.362000000000000210,-1.717286744207332960
0.363000000000000211,-1.776194135939283214
0.364000000000000212,-1.834284615884007597
0.365000000000000213,-1.891542960472806900
0.366000000000000214,-1.947954719247867228
0.367000000000000215,-2.003506222852769803
0.368000000000000216,-2.058184588905036527
0.369000000000000217,-2.111977725859498278
0.370000000000000218,-2.164874334969737468
0.371000000000000218,-2.216863910452406383
0.372000000000000219,-2.267936737957229720
0.373000000000000220,-2.318083891443102118
0.374000000000000221,-2.367297228558038036
0.375000000000000222,-2.415569384618325266
0.376000000000000223,-2.462893765279655867
0.377000000000000224,-2.509264537990021360
0.378000000000000225,-2.554676622311646383
0.379000000000000226,-2.599125679196240490
0.380000000000000226,-2.642608099295258750
0.381000000000000227,-2.685120990383616402
0.382000000000000228,-2.726662163972885633
0.383000000000000229,-2.767230121186795344
0.384000000000000230,-2.806824037969133823
0.385000000000000231,-2.845443749691434654
0.386000000000000232,-2.883089735224710459
0.387000000000000233,-2.919763100537105860
0.388000000000000234,-2.955465561876168490
0.389000000000000234,-2.990199428592192898
0.390000000000000235,-3.023967585655975565
0.391000000000000236,-3.056773475922057504
0.392000000000000237,-3.088621082185779798
0.393000000000000238,-3.119514909080056686
0.394000000000000239,-3.149459964855255034
0.395000000000000240,-3.178461743083278890
0.396000000000000241,-3.206526204324561924
0.397000000000000242,-3.233659757794390632
0.398000000000000242,-3.259869243062949895
0.399000000000000243,-3.285161911821056435
0.400000000000000244,-3.309545409741846189
0.401000000000000245,-3.333027758466421631
0.402000000000000246,-3.355617337739587924
0.403000000000000247,-3.377322867720097488
0.404000000000000248,-3.398153391487833908
0.405000000000000249,-3.418118257768797630
0.406000000000000250,-3.437227103896985714
0.407000000000000250,-3.455489839030762678
0.408000000000000251,-3.472916627639736298
0.409000000000000252,-3.489517873276716919
0.410000000000000253,-3.505304202647907097
0.411000000000000254,-3.520286449993218270
0.412000000000000255,-3.534475641787185651
0.413000000000000256,-3.547882981769964861
0.414000000000000257,-3.560519836316430542
0.415000000000000258,-3.572397720150667144
0.416000000000000258,-3.583528282411721388
0.417000000000000259,-3.593923293075807379
0.418000000000000260,-3.603594629739018451
0.419000000000000261,-3.612554264763824907
0.420000000000000262,-3.620814252791693555
0.421000000000000263,-3.628386718623583196
0.422000000000000264,-3.635283845468966213
0.423000000000000265,-3.641517863563767499
0.424000000000000266,-3.647101039156625202
0.425000000000000266,-3.652045663862383496
0.426000000000000267,-3.656364044381194223
0.427000000000000268,-3.660068492581006971
0.428000000000000269,-3.663171315940745298
0.429000000000000270,-3.665684808351037383
0.430000000000000271,-3.667621241268913312
0.431000000000000272,-3.668992855222501071
0.432000000000000273,-3.669811851661373137
0.433000000000000274,-3.670090385147909640
0.434000000000000274,-3.669840555884698041
0.435000000000000275,-3.669074402572714000
0.436000000000000276,-3.667803895594853092
0.437000000000000277,-3.666040930519012697
0.438000000000000278,-3.663797321914901151
0.439000000000000279,-3.661084797478460384
0.440000000000000280,-3.657914992457634185
0.441000000000000281,-3.654299444373111161
0.442000000000000282,-3.650249588027629777
0.443000000000000282,-3.645776750797124599
0.444000000000000283,-3.640892148197166112
0.445000000000000284,-3.635606879717887985
0.446000000000000285,-3.629931924920623665
0.447000000000000286,-3.623878139789542097
0.448000000000000287,-3.617456253331249538
0.449000000000000288,-3.610676864415741871
0.450000000000000289,-3.603550438851689908
0.451000000000000290,-3.596087306689318641
0.452000000000000290,-3.588297659744117851
0.453000000000000291,-3.580191549334493573
0.454000000000000292,-3.571778884226814998
0.455000000000000293,-3.563069428781043602
0.456000000000000294,-3.554072801290423911
0.457000000000000295,-3.544798472508701614
0.458000000000000296,-3.535255764358336883
0.459000000000000297,-3.525453848813440594
0.460000000000000298,-3.515401746951035022
0.461000000000000298,-3.505108328164487919
0.462000000000000299,-3.494582309533032394
0.463000000000000300,-3.483832255341269502
0.464000000000000301,-3.472866576742863920
0.465000000000000302,-3.461693531562542780
0.466000000000000303,-3.450321224230735062
0.467000000000000304,-3.438757605845291554
0.468000000000000305,-3.427010474354761804
0.469000000000000306,-3.415087474857910532
0.470000000000000306,-3.402996100014289205
0.471000000000000307,-3.390743690560591439
0.472000000000000308,-3.378337435927966315
0.473000000000000309,-3.365784374955310021
0.474000000000000310,-3.353091396693763215
0.475000000000000311,-3.340265241297846188
0.476000000000000312,-3.327312500998657718
0.477000000000000313,-3.314239621154749127
0.478000000000000314,-3.301052901376372084
0.479000000000000314,-3.287758496719014545
0.480000000000000315,-3.274362418942055708
0.481000000000000316,-3.260870537828754578
0.482000000000000317,-3.247288582563633952
0.483000000000000318,-3.233622143163674245
0.484000000000000319,-3.219876671959647219
0.485000000000000320,-3.206057485124187423
0.486000000000000321,-3.192169764243232954
0.487000000000000322,-3.178218557927564802
0.488000000000000322,-3.164208783461297969
0.489000000000000323,-3.150145228484389381
0.490000000000000324,-3.136032552706102372
0.491000000000000325,-3.121875289646724561
0.492000000000000326,-3.107677848404711174
0.493000000000000327,-3.093444515446767795
0.494000000000000328,-3.079179456418186245
0.495000000000000329,-3.064886717971183394
0.496000000000000330,-3.050570229608725370
0.497000000000000330,-3.036233805541804998
0.498000000000000331,-3.021881146557781950
0.499000000000000332,-3.007515841897958175
0.500000000000000333,-2.993141371142256979
0.501000000000000334,-2.978761106099139688
0.502000000000000335,-2.964378312699002649
0.503000000000000336,-2.949996152889267975
0.504000000000000337,-2.935617686529551573
0.505000000000000338,-2.921245873285280847
0.506000000000000338,-2.906883574518320135
0.507000000000000339,-2.892533555173132598
0.508000000000000340,-2.878198485657090799
0.509000000000000341,-2.863880943713742244
0.510000000000000342,-2.849583416287650106
0.511000000000000343,-2.835308301379805940
0.512000000000000344,-2.821057909892354054
0.513000000000000345,-2.806834467461706950
0.514000000000000346,-2.792640116279027751
0.515000000000000346,-2.778476916897113291
0.516000000000000347,-2.764346850022838531
0.517000000000000348,-2.750251818294385586
0.518000000000000349,-2.736193648042366977
0.519000000000000350,-2.722174091034267995
0.520000000000000351,-2.708194826201405725
0.521000000000000352,-2.694257461347903782
0.522000000000000353,-2.680363534840965567
0.523000000000000353,-2.666514517282025487
0.524000000000000354,-2.652711813158235454
0.525000000000000355,-2.638956762473797735
0.526000000000000356,-2.625250642360779540
0.527000000000000357,-2.611594668669006136
0.528000000000000358,-2.597989997534669193
0.529000000000000359,-2.584437726927382606
0.530000000000000360,-2.570938898175337162
0.531000000000000361,-2.557494497468397743
0.532000000000000361,-2.544105457338838860
0.533000000000000362,-2.530772658119592844
0.534000000000000363,-2.517496929379809067
0.535000000000000364,-2.504279051337629625
0.536000000000000365,-2.491119756250024242
0.537000000000000366,-2.478019729779664004
0.538000000000000367,-2.464979612338685122
0.539000000000000368,-2.452000000409429337
0.540000000000000369,-2.439081447841991324
0.541000000000000369,-2.426224467128735185
0.542000000000000370,-2.413429530655653465
0.543000000000000371,-2.400697071930721016
0.544000000000000372,-2.388027486789246812
0.545000000000000373,-2.375421134576315652
0.546000000000000374,-2.362878339306397457
0.547000000000000375,-2.350399390800224531
0.548000000000000376,-2.337984545799096203
0.549000000000000377,-2.325634029056689034
0.550000000000000377,-2.313348034408552856
0.551000000000000378,-2.301126725819412133
0.552000000000000379,-2.288970238408506219
0.553000000000000380,-2.276878679453065324
0.554000000000000381,-2.264852129370146461
0.555000000000000382,-2.252890642677078947
0.556000000000000383,-2.240994248930581190
0.557000000000000384,-2.229162953644947986
0.558000000000000385,-2.217396739189351429
0.559000000000000385,-2.205695565664607560
0.560000000000000386,-2.194059371759584653
0.561000000000000387,-2.182488075587500465
0.562000000000000388,-2.170981575502339833
0.563000000000000389,-2.159539750895697274
0.564000000000000390,-2.148162462974202214
0.565000000000000391,-2.136849555517884802
0.566000000000000392,-2.125600855619656393
0.567000000000000393,-2.114416174406251958
0.568000000000000393,-2.103295307740814746
0.569000000000000394,-2.092238036907445586
0.570000000000000395,-2.081244129278009503
0.571000000000000396,-2.070313338961371485
0.572000000000000397,-2.059445407435481545
0.573000000000000398,-2.048640064162436936
0.574000000000000399,-2.037897027186919452
0.575000000000000400,-2.027216003718198767
0.576000000000000401,-2.016596690696004224
0.577000000000000401,-2.006038775340603486
0.578000000000000402,-1.995541935687245694
0.579000000000000403,-1.985105841105336610
0.580000000000000404,-1.974730152802624206
0.581000000000000405,-1.964414524314585409
0.582000000000000406,-1.954158601979401499
0.583000000000000407,-1.943962025398686677
0.584000000000000408,-1.933824427884331953
0.585000000000000409,-1.923745436891677985
0.586000000000000409,-1.913724674439289952
0.587000000000000410,-1.903761757515654240
0.588000000000000411,-1.893856298472960109
0.589000000000000412,-1.884007905408361605
0.590000000000000413,-1.874216182532842279
0.591000000000000414,-1.864480730528048635
0.592000000000000415,-1.854801146891299712
0.593000000000000416,-1.845177026269019693
0.594000000000000417,-1.835607960778857572
0.595000000000000417,-1.826093540320790964
0.596000000000000418,-1.816633352877319085
0.597000000000000419,-1.807226984803181669
0.598000000000000420,-1.797874021104655329
0.599000000000000421,-1.788574045708815063
0.600000000000000422,-1.779326641722893898
0.601000000000000423,-1.770131391684010680
0.602000000000000424,-1.760987877799510937
0.603000000000000425,-1.751895682178115532
0.604000000000000425,-1.742854387052094722
0.605000000000000426,-1.733863574990719858
0.606000000000000427,-1.724922829105207667
0.607000000000000428,-1.716031733245273916
0.608000000000000429,-1.707189872187693691
0.609000000000000430,-1.698396831816856745
0.610000000000000431,-1.689652199297702939
0.611000000000000432,-1.680955563241115502
0.612000000000000433,-1.672306513862023891
0.613000000000000433,-1.663704643130412553
0.614000000000000434,-1.655149544915395010
