# hydroxyapatite-010-ph5_HIE-AC
# h[nm],U(h)[kJ/mol]
0.149999999999999994,151.498930013176249076
0.150999999999999995,146.952160142924867614
0.151999999999999996,144.091406589840630659
0.152999999999999997,141.696149587073307430
0.153999999999999998,139.287390436071802924
0.154999999999999999,136.744733832840012155
0.156000000000000000,134.096827478155432800
0.157000000000000001,131.414564119752469651
0.158000000000000002,128.762855856605398230
0.159000000000000002,126.183967927981825596
0.160000000000000003,123.696404153231171108
0.161000000000000004,121.300254495878306216
0.162000000000000005,118.984160927671922536
0.163000000000000006,116.731581522332859890
0.164000000000000007,114.525467401831548386
0.165000000000000008,112.351229212941277069
0.166000000000000009,110.198229344852208555
0.167000000000000010,108.060165245087588914
0.168000000000000010,105.934715186258017638
0.169000000000000011,103.822765498057606237
0.170000000000000012,101.727465156745523700
0.171000000000000013,99.653280104352887747
0.172000000000000014,97.605155633029653472
0.173000000000000015,95.587844312986632644
0.174000000000000016,93.605419528369864679
0.175000000000000017,91.660969250934272168
0.176000000000000018,89.756449061087693053
0.177000000000000018,87.892665335615077993
0.178000000000000019,86.069356864561910925
0.179000000000000020,84.285344163868714418
0.180000000000000021,82.538719004373433563
0.181000000000000022,80.827051115001040671
0.182000000000000023,79.147593872404371496
0.183000000000000024,77.497475542732018994
0.184000000000000025,75.873866969834921292
0.185000000000000026,74.274120330749468621
0.186000000000000026,72.695876631840590676
0.187000000000000027,71.137141997881172983
0.188000000000000028,69.596334558127267655
0.189000000000000029,68.072304931293757591
0.190000000000000030,66.564334040835802853
0.191000000000000031,65.072112341226230114
0.192000000000000032,63.595704589164803622
0.193000000000000033,62.135504127134161934
0.194000000000000034,60.692180326764457732
0.195000000000000034,59.266622421709811874
0.196000000000000035,57.859882489292417063
0.197000000000000036,56.473119852335585733
0.198000000000000037,55.107548693945247464
0.199000000000000038,53.764390227519619714
0.200000000000000039,52.444830354663473315
0.201000000000000040,51.149983382511315710
0.202000000000000041,49.880862062730912498
0.203000000000000042,48.638353957596848431
0.204000000000000042,47.423203932133063176
0.205000000000000043,46.236002411993560202
0.206000000000000044,45.077178930023329428
0.207000000000000045,43.947000405308429549
0.208000000000000046,42.845573551744465135
0.209000000000000047,41.772850793537088521
0.210000000000000048,40.728639067634802018
0.211000000000000049,39.712610913281267244
0.212000000000000050,38.724317282491981018
0.213000000000000050,37.763201548630959792
0.214000000000000051,36.828614240185913786
0.215000000000000052,35.919828080613740440
0.216000000000000053,35.036052970500428216
0.217000000000000054,34.176450603431511865
0.218000000000000055,33.340148460465442781
0.219000000000000056,32.526252978854053310
0.220000000000000057,31.733861737865204589
0.221000000000000058,30.962074547705856986
0.222000000000000058,30.210003366289605253
0.223000000000000059,29.476781002809740784
0.224000000000000060,28.761568596761822647
0.225000000000000061,28.063561886327271111
0.226000000000000062,27.381996301081624523
0.227000000000000063,26.716150931090844267
0.228000000000000064,26.065351437915445842
0.229000000000000065,25.428971983184471384
0.230000000000000066,24.806436257580951832
0.231000000000000066,24.197217697640088119
0.232000000000000067,23.600838980047303295
0.233000000000000068,23.016870883460065045
0.234000000000000069,22.444930606577209176
0.235000000000000070,21.884679628529738693
0.236000000000000071,21.335821193933824702
0.237000000000000072,20.798097500367564550
0.238000000000000073,20.271286660824717529
0.239000000000000073,19.755199508051084933
0.240000000000000074,19.249676301744223395
0.241000000000000075,18.754583393542695546
0.242000000000000076,18.269809898663499581
0.243000000000000077,17.795264417068711538
0.244000000000000078,17.330871841236739073
0.245000000000000079,16.876570282046237992
0.246000000000000080,16.432308139002593350
0.247000000000000081,15.998041336085815800
0.248000000000000081,15.573730739902156728
0.249000000000000082,15.159339772595540552
0.250000000000000111,14.754832228127352067
0.251000000000000112,14.360170297065801392
0.252000000000000113,13.975312801931991658
0.253000000000000114,13.600213642422920302
0.254000000000000115,13.234820447452667835
0.255000000000000115,12.879073428910704280
0.256000000000000116,12.532904430307166166
0.257000000000000117,12.196236162040801077
0.258000000000000118,11.868981613864082902
0.259000000000000119,11.551043634208539856
0.260000000000000120,11.242314665349914193
0.261000000000000121,10.942676622916327034
0.262000000000000122,10.652000907949105368
0.263000000000000123,10.370148539597542126
0.264000000000000123,10.096970396542804593
0.265000000000000124,9.832307555386133657
0.266000000000000125,9.575991714482555039
0.267000000000000126,9.327845692038897241
0.268000000000000127,9.087683987706741462
0.269000000000000128,8.855313397375070394
0.270000000000000129,8.630533671389315487
0.271000000000000130,8.413138206982171852
0.272000000000000131,8.202914766287216608
0.273000000000000131,7.999646211908560289
0.274000000000000132,7.803111252631235395
0.275000000000000133,7.613085192469801754
0.276000000000000134,7.429340676861144743
0.277000000000000135,7.251648430405945867
0.278000000000000136,7.079777981146904153
0.279000000000000137,6.913498366937494310
0.280000000000000138,6.752578819999135007
0.281000000000000139,6.596789426284539459
0.282000000000000139,6.445901756759477408
0.283000000000000140,6.299689468181806085
0.284000000000000141,6.157928871395435877
0.285000000000000142,6.020399465566421249
0.286000000000000143,5.886884437168983020
0.287000000000000144,5.757171122880921921
0.288000000000000145,5.631051435870320532
0.289000000000000146,5.508322255250623023
0.290000000000000147,5.388785778747640975
0.291000000000000147,5.272249838863368510
0.292000000000000148,5.158528183035924641
0.293000000000000149,5.047440718486083000
0.294000000000000150,4.938813722607996226
0.295000000000000151,4.832480019907080759
0.296000000000000152,4.728279126612963346
0.297000000000000153,4.626057364200246269
0.298000000000000154,4.525667943137333893
0.299000000000000155,4.426971018253505363
0.300000000000000155,4.329833717169220719
0.301000000000000156,4.234130143275159242
0.302000000000000157,4.139741354772426440
0.303000000000000158,4.046555321302010455
0.304000000000000159,3.954466859695848768
0.305000000000000160,3.863377550376891012
0.306000000000000161,3.773195635921457125
0.307000000000000162,3.683835903275723744
0.308000000000000163,3.595219551089756660
0.309000000000000163,3.507274043598211044
0.310000000000000164,3.419932952437381601
0.311000000000000165,3.333135787744574863
0.312000000000000166,3.246827819838335127
0.313000000000000167,3.160959892727669196
0.314000000000000168,3.075488230645693655
0.315000000000000169,2.990374238748406466
0.316000000000000170,2.905584299063410203
0.317000000000000171,2.821089562716459831
0.318000000000000171,2.736865739406697973
0.319000000000000172,2.652892885043570903
0.320000000000000173,2.569155188401757162
0.321000000000000174,2.485640757593564842
0.322000000000000175,2.402341407102459137
0.323000000000000176,2.319252446066737861
0.324000000000000177,2.236372468448696971
0.325000000000000178,2.153703145672602570
0.326000000000000179,2.071249022264075812
0.327000000000000179,1.989017314974721229
0.328000000000000180,1.907017715828586146
0.329000000000000181,1.825262199481678449
0.330000000000000182,1.743764835242627154
0.331000000000000183,1.662541604060712386
0.332000000000000184,1.581610220748468576
0.333000000000000185,1.500989961668298678
0.334000000000000186,1.420701498077134195
0.335000000000000187,1.340766735289770084
0.336000000000000187,1.261208657789781418
0.337000000000000188,1.182051180387700740
0.338000000000000189,1.103319005498034855
0.339000000000000190,1.025037486581139135
0.340000000000000191,0.947232497772127147
0.341000000000000192,0.869930309696306692
0.342000000000000193,0.793157471450654072
0.343000000000000194,0.716940698711501678
0.344000000000000195,0.641306767911910880
0.345000000000000195,0.566282416415773038
0.346000000000000196,0.491894248602114281
0.347000000000000197,0.418168647759723733
0.348000000000000198,0.345131693680948703
0.349000000000000199,0.272809085833170706
0.350000000000000200,0.201226071977406468
0.351000000000000201,0.130407382095587387
0.352000000000000202,0.060377167481296110
0.353000000000000203,-0.008841055157215384
0.354000000000000203,-0.077224454737679957
0.355000000000000204,-0.144750932148016986
0.356000000000000205,-0.211399162057233359
0.357000000000000206,-0.277148630358588499
0.358000000000000207,-0.341979667411880128
0.359000000000000208,-0.405873477253150594
0.360000000000000209,-0.468812162940260457
0.361000000000000210,-0.530778748202395789
0.362000000000000210,-0.591757195561220528
0.363000000000000211,-0.651732421089865510
0.364000000000000212,-0.710690305974473580
0.365000000000000213,-0.768617705040916976
0.366000000000000214,-0.825502452406941201
0.367000000000000215,-0.881333364417241527
0.368000000000000216,-0.936100240016171425
0.369000000000000217,-0.989793858709174357
0.370000000000000218,-1.042405976261034484
0.371000000000000218,-1.093929318274961204
0.372000000000000219,-1.144357571793041206
0.373000000000000220,-1.193685375054495790
0.374000000000000221,-1.241908305544080937
0.375000000000000222,-1.289022866458836347
0.376000000000000223,-1.335026471717367214
0.377000000000000224,-1.379917429631175141
0.378000000000000225,-1.423694925353610419
0.379000000000000226,-1.466359002217407781
0.380000000000000226,-1.507910542067735449
0.381000000000000227,-1.548351244692957041
0.382000000000000228,-1.587683606451444795
0.383000000000000229,-1.625910898188191123
0.384000000000000230,-1.663037142530826129
0.385000000000000231,-1.699067090650677070
0.386000000000000232,-1.734006198570007928
0.387000000000000233,-1.767860603092995531
0.388000000000000234,-1.800637097433583023
0.389000000000000234,-1.832343106609930272
0.390000000000000235,-1.862986662670961469
0.391000000000000236,-1.892576379817142440
0.392000000000000237,-1.921121429473809927
0.393000000000000238,-1.948631515372007739
0.394000000000000239,-1.975116848688221793
0.395000000000000240,-2.000588123291291875
0.396000000000000241,-2.025056491141438819
0.397000000000000242,-2.048533537883273858
0.398000000000000242,-2.071031258671784059
0.399000000000000243,-2.092562034267204663
0.400000000000000244,-2.113138607432106575
0.401000000000000245,-2.132774059661312727
0.402000000000000246,-2.151481788272552986
0.403000000000000247,-2.169275483883533084
0.404000000000000248,-2.186169108298572361
0.405000000000000249,-2.202176872825808207
0.406000000000000250,-2.217313217043716200
0.407000000000000250,-2.231592788033760932
0.408000000000000251,-2.245030420093928392
0.409000000000000252,-2.257641114946118854
0.410000000000000253,-2.269440022448516281
0.411000000000000254,-2.280442421822465260
0.412000000000000255,-2.290663703401710549
0.413000000000000256,-2.300119350910474481
0.414000000000000257,-2.308824924275185264
0.415000000000000258,-2.316796042973698011
0.416000000000000258,-2.324048369924186286
0.417000000000000259,-2.330597595915010256
0.418000000000000260,-2.336459424575584531
0.419000000000000261,-2.341649557887285571
0.420000000000000262,-2.346183682232438450
0.421000000000000263,-2.350077454978634073
0.422000000000000264,-2.353346491594493273
0.423000000000000265,-2.356006353292593225
0.424000000000000266,-2.358072535194306152
0.425000000000000266,-2.359560455010604851
0.426000000000000267,-2.360485442232480580
0.427000000000000268,-2.360862727823855867
0.428000000000000269,-2.360707434409468508
0.429000000000000270,-2.360034566949729573
0.430000000000000271,-2.358859003894068884
0.431000000000000272,-2.357195488804030070
0.432000000000000273,-2.355058622436883020
0.433000000000000274,-2.352462855280375464
0.434000000000000274,-2.349422480528871038
0.435000000000000275,-2.345951627490942659
0.436000000000000276,-2.342064255418331964
0.437000000000000277,-2.337774147745890652
0.438000000000000278,-2.333094906732176455
0.439000000000000279,-2.328039948490112199
0.440000000000000280,-2.322622498397105772
0.441000000000000281,-2.316855586873941331
0.442000000000000282,-2.310752045521824005
0.443000000000000282,-2.304324503606721919
0.444000000000000283,-2.297585384880461046
0.445000000000000284,-2.290546904727786881
0.446000000000000285,-2.283221067628763201
0.447000000000000286,-2.275619664926080254
0.448000000000000287,-2.267754272886553402
0.449000000000000288,-2.259636251046642563
0.450000000000000289,-2.251276740831527512
0.451000000000000290,-2.242686664437635535
0.452000000000000290,-2.233876723968589051
0.453000000000000291,-2.224857400814564734
0.454000000000000292,-2.215638955265410992
0.455000000000000293,-2.206231426347781799
0.456000000000000294,-2.196644631876936149
0.457000000000000295,-2.186888168713847946
0.458000000000000296,-2.176971413218511398
0.459000000000000297,-2.166903521890553908
0.460000000000000298,-2.156693432188321324
0.461000000000000298,-2.146349863517939216
0.462000000000000299,-2.135881318383929361
0.463000000000000300,-2.125296083693182236
0.464000000000000301,-2.114602232204343402
0.465000000000000302,-2.103807624114774733
0.466000000000000303,-2.092919908777493898
0.467000000000000304,-2.081946526540719322
0.468000000000000305,-2.070894710702790853
0.469000000000000306,-2.059771489575467296
0.470000000000000306,-2.048583688648866197
0.471000000000000307,-2.037337932851277067
0.472000000000000308,-2.026040648897646346
0.473000000000000309,-2.014698067720372965
0.474000000000000310,-2.003316226976449510
0.475000000000000311,-1.991900973625116533
0.476000000000000312,-1.980457966570441375
0.477000000000000313,-1.968992679363291032
0.478000000000000314,-1.957510402957504114
0.479000000000000314,-1.946016248515195501
0.480000000000000315,-1.934515150256235216
0.481000000000000316,-1.923011868347278774
0.482000000000000317,-1.911510991825719374
0.483000000000000318,-1.900016941554274252
0.484000000000000319,-1.888533973201945715
0.485000000000000320,-1.877066180247374261
0.486000000000000321,-1.865617497000708669
0.487000000000000322,-1.854191701640260703
0.488000000000000322,-1.842792419260385284
0.489000000000000323,-1.831423124927277213
0.490000000000000324,-1.820087146739320705
0.491000000000000325,-1.808787668888975686
0.492000000000000326,-1.797527734723159298
0.493000000000000327,-1.786310249799420102
0.494000000000000328,-1.775137984935078350
0.495000000000000329,-1.764013579246918040
0.496000000000000330,-1.752939543178865467
0.497000000000000330,-1.741918261515516431
0.498000000000000331,-1.730951996379141322
0.499000000000000332,-1.720042890208290043
0.500000000000000333,-1.709192968715957051
0.501000000000000334,-1.698404143825430923
0.502000000000000335,-1.687678216582213508
0.503000000000000336,-1.677016880040296032
0.504000000000000337,-1.666421722121309568
0.505000000000000338,-1.655894228445093486
0.506000000000000338,-1.645435785130397122
0.507000000000000339,-1.635047681564435695
0.508000000000000340,-1.624731113140141403
0.509000000000000341,-1.614487183960125360
0.510000000000000342,-1.604316909506235733
0.511000000000000343,-1.594221219273939116
0.512000000000000344,-1.584200959370585249
0.513000000000000345,-1.574256895076878049
0.514000000000000346,-1.564389713370855306
0.515000000000000346,-1.554600025413716224
0.516000000000000347,-1.544888368996976791
0.517000000000000348,-1.535255210950511318
0.518000000000000349,-1.525700949510931714
0.519000000000000350,-1.516225916650081551
0.520000000000000351,-1.506830380363183952
0.521000000000000352,-1.497514546916523637
0.522000000000000353,-1.488278563054308723
0.523000000000000353,-1.479122518164665667
0.524000000000000354,-1.470046446404594143
0.525000000000000355,-1.461050328783803032
0.526000000000000356,-1.452134095207406883
0.527000000000000357,-1.443297626477521467
0.528000000000000358,-1.434540756253739557
0.529000000000000359,-1.425863272972642148
0.530000000000000360,-1.417264921726381299
0.531000000000000361,-1.408745406100572861
0.532000000000000361,-1.400304389971595231
0.533000000000000362,-1.391941499263566806
0.534000000000000363,-1.383656323665190868
0.535000000000000364,-1.375448418306773224
0.536000000000000365,-1.367317305397642624
0.537000000000000366,-1.359262475824366323
0.538000000000000367,-1.351283390709968391
0.539000000000000368,-1.343379482934666358
0.540000000000000369,-1.335550158618314276
0.541000000000000369,-1.327794798565107515
0.542000000000000370,-1.320112759670811320
0.543000000000000371,-1.312503376293031376
0.544000000000000372,-1.304965961584915402
0.545000000000000373,-1.297499808792734521
0.546000000000000374,-1.290104192517810944
0.547000000000000375,-1.282778369943238683
0.548000000000000376,-1.275521582025923140
0.549000000000000377,-1.268333054654361636
0.550000000000000377,-1.261211999772727799
0.551000000000000378,-1.254157616471682779
0.552000000000000379,-1.247169092046525263
0.553000000000000380,-1.240245603023087950
0.554000000000000381,-1.233386316151957818
0.555000000000000382,-1.226590389371581269
0.556000000000000383,-1.219856972740645862
0.557000000000000384,-1.213185209340457371
0.558000000000000385,-1.206574236147655022
0.559000000000000385,-1.200023184877943017
0.560000000000000386,-1.193531182801295332
0.561000000000000387,-1.187097353529191546
0.562000000000000388,-1.180720817774411291
0.563000000000000389,-1.174400694083941321
0.564000000000000390,-1.168136099545493467
0.565000000000000391,-1.161926150468207464
0.566000000000000392,-1.155769963038018266
0.567000000000000393,-1.149666653948290040
0.568000000000000393,-1.143615341006138708
0.569000000000000394,-1.137615143715059896
0.570000000000000395,-1.131665183834349664
0.571000000000000396,-1.125764585915780769
0.572000000000000397,-1.119912477818161056
0.573000000000000398,-1.114107991200141479
0.574000000000000399,-1.108350261991907892
0.575000000000000400,-1.102638430846154094
0.576000000000000401,-1.096971643568871668
0.577000000000000401,-1.091349051530484449
0.578000000000000402,-1.085769812057715722
0.579000000000000403,-1.080233088806732855
0.580000000000000404,-1.074738052118066500
0.581000000000000405,-1.069283879353666755
0.582000000000000406,-1.063869755216674928
0.583000000000000407,-1.058494872054276392
0.584000000000000408,-1.053158430144129909
0.585000000000000409,-1.047859637964811519
0.586000000000000409,-1.042597712450662018
0.587000000000000410,-1.037371879231564709
0.588000000000000411,-1.032181372857939650
0.589000000000000412,-1.027025437011524156
0.590000000000000413,-1.021903324702199800
0.591000000000000414,-1.016814298451386378
0.592000000000000415,-1.011757630462337243
0.593000000000000416,-1.006732602777731689
0.594000000000000417,-1.001738507424951186
0.595000000000000417,-0.996774646549465571
0.596000000000000418,-0.991840332536570335
0.597000000000000419,-0.986934888122007026
0.598000000000000420,-0.982057646491654723
0.599000000000000421,-0.977207951370792083
0.600000000000000422,-0.972385157103150655
0.601000000000000423,-0.967588628720161159
0.602000000000000424,-0.962817742000716792
0.603000000000000425,-0.958071883521763867
0.604000000000000425,-0.953350450700013119
0.605000000000000426,-0.948652851825129595
0.606000000000000427,-0.943978506084696911
0.607000000000000428,-0.939326843581151372
0.608000000000000429,-0.934697305341188667
0.609000000000000430,-0.930089343317657802
0.610000000000000431,-0.925502420384473945
0.611000000000000432,-0.920936010324632570
0.612000000000000433,-0.916389597811683054
0.613000000000000433,-0.911862678384919079
0.614000000000000434,-0.907354758418498220
