# hydroxyapatite-010-ph5_ACETALDEHYDE-AC
# h[nm],U(h)[kJ/mol]
0.149999999999999994,74.813144050956566389
0.150999999999999995,73.345145962204597367
0.151999999999999996,72.011667707579661624
0.152999999999999997,70.723250976363274845
0.153999999999999998,69.446591324222609387
0.154999999999999999,68.174688334816863744
0.156000000000000000,66.910863577359435794
0.157000000000000001,65.660866808477550194
0.158000000000000002,64.429497104185770695
0.159000000000000002,63.219587098231230016
0.160000000000000003,62.032099051211616825
0.161000000000000004,60.866640089721343543
0.162000000000000005,59.722041161238180962
0.163000000000000006,58.596840457896064436
0.164000000000000007,57.489620337835710018
0.165000000000000008,56.399201684193215556
0.166000000000000009,55.324723347744885871
0.167000000000000010,54.265640739730557129
0.168000000000000010,53.221675293334314460
0.169000000000000011,52.192740422498708597
0.170000000000000012,51.178862590054976067
0.171000000000000013,50.180109600854784446
0.172000000000000014,49.196532889414676504
0.173000000000000015,48.228126539719106347
0.174000000000000016,47.274802976221714346
0.175000000000000017,46.336383507144617511
0.176000000000000018,45.412600957477458508
0.177000000000000018,44.503111281587074188
0.178000000000000019,43.607511104740602548
0.179000000000000020,42.725358455808702729
0.180000000000000021,41.856194402679342659
0.181000000000000022,40.999563802494591869
0.182000000000000023,40.155033872780208526
0.183000000000000024,39.322209740377182641
0.184000000000000025,38.500746512583859271
0.185000000000000026,37.690357730641764533
0.186000000000000026,36.890820309312481129
0.187000000000000027,36.101976242676975914
0.188000000000000028,35.323731473335804765
0.189000000000000029,34.556052389212119635
0.190000000000000030,33.798960438785854876
0.191000000000000031,33.052525351014502064
0.192000000000000032,32.316857418756697484
0.193000000000000033,31.592099261437784463
0.194000000000000034,30.878417430030861368
0.195000000000000034,30.175994160048283277
0.196000000000000035,29.485019519943893584
0.197000000000000036,28.805684145941732766
0.198000000000000037,28.138172701826409394
0.199000000000000038,27.482658154955242225
0.200000000000000039,26.839296918421005955
0.201000000000000040,26.208224874202198151
0.202000000000000041,25.589554263249759458
0.203000000000000042,24.983371405494342099
0.204000000000000042,24.389735195269373946
0.205000000000000043,23.808676305084240710
0.206000000000000044,23.240197022441186903
0.207000000000000045,22.684271639849601598
0.208000000000000046,22.140847316740497774
0.209000000000000047,21.609845333044255256
0.210000000000000048,21.091162657231933508
0.211000000000000049,20.584673756155432045
0.212000000000000050,20.090232579629610399
0.213000000000000050,19.607674659017163776
0.214000000000000051,19.136819265794233758
0.215000000000000052,18.677471582937194228
0.216000000000000053,18.229424848773025047
0.217000000000000054,17.792462439514700634
0.218000000000000055,17.366359862938200109
0.219000000000000056,16.950886641460130022
0.220000000000000057,16.545808068184907569
0.221000000000000058,16.150886824276692977
0.222000000000000058,15.765884450254176841
0.223000000000000059,15.390562667513421502
0.224000000000000060,15.024684549565279212
0.225000000000000061,14.668015545155975943
0.226000000000000062,14.320324357652632230
0.227000000000000063,13.981383686855343385
0.228000000000000064,13.650970840783674731
0.229000000000000065,13.328868226016700405
0.230000000000000066,13.014863725884129764
0.231000000000000066,12.708750976249238107
0.232000000000000067,12.410329548831729340
0.233000000000000068,12.119405052024948333
0.234000000000000069,11.835789159001098625
0.235000000000000070,11.559299572600631123
0.236000000000000071,11.289759936095745019
0.237000000000000072,11.026999698427497165
0.238000000000000073,10.770853941963956402
0.239000000000000073,10.521163180232729673
0.240000000000000074,10.277773132460259475
0.241000000000000075,10.040534481119346211
0.242000000000000076,9.809302618055065537
0.243000000000000077,9.583937384139124660
0.244000000000000078,9.364302806800967716
0.245000000000000079,9.150266839207590763
0.246000000000000080,8.941701104317727911
0.247000000000000081,8.738480646523060003
0.248000000000000081,8.540483693112472352
0.249000000000000082,8.347591427356503502
0.250000000000000111,8.159687774607865762
0.251000000000000112,7.976659202451467756
0.252000000000000113,7.798394535611805622
0.253000000000000114,7.624784786037222872
0.254000000000000115,7.455722998326329787
0.255000000000000115,7.291104110441617436
0.256000000000000116,7.130824829465845838
0.257000000000000117,6.974783521996802627
0.258000000000000118,6.822880118643118053
0.259000000000000119,6.675016031975646413
0.260000000000000120,6.531094087203332954
0.261000000000000121,6.391018464777682873
0.262000000000000122,6.254694654083022165
0.263000000000000123,6.122029417339747148
0.264000000000000123,5.992930762831438329
0.265000000000000124,5.867307926563740672
0.266000000000000125,5.745071361469996418
0.267000000000000126,5.626132733295741595
0.268000000000000127,5.510404922318215881
0.269000000000000128,5.397802030088376668
0.270000000000000129,5.288239390418787877
0.271000000000000130,5.181633583880909555
0.272000000000000131,5.077902455118712410
0.273000000000000131,4.976965132330875008
0.274000000000000132,4.878742048320698466
0.275000000000000133,4.783154962560368872
0.276000000000000134,4.690126983763835078
0.277000000000000135,4.599582592509841916
0.278000000000000136,4.511447663502906380
0.279000000000000137,4.425649487105125068
0.280000000000000138,4.342116789815473332
0.281000000000000139,4.260779753414717597
0.282000000000000139,4.181570032534223103
0.283000000000000140,4.104420770444328070
0.284000000000000141,4.029266612893629862
0.285000000000000142,3.956043719863563179
0.286000000000000143,3.884689775133481682
0.287000000000000144,3.815143993580057291
0.288000000000000145,3.747347126160732067
0.289000000000000146,3.681241462555140398
0.290000000000000147,3.616770831459733326
0.291000000000000147,3.553880598550599679
0.292000000000000148,3.492517662146600976
0.293000000000000149,3.432630446620589915
0.294000000000000150,3.374168893619753362
0.295000000000000151,3.317084451167950476
0.296000000000000152,3.261330060732903657
0.297000000000000153,3.206860142349471143
0.298000000000000154,3.153630577897222231
0.299000000000000155,3.101598692636098331
0.300000000000000155,3.050723235108226739
0.301000000000000156,3.000964355517152349
0.302000000000000157,2.952283582697757591
0.303000000000000158,2.904643799791376324
0.304000000000000159,2.858009218740714452
0.305000000000000160,2.812345353718846752
0.306000000000000161,2.767618993605153843
0.307000000000000162,2.723798173619359275
0.308000000000000163,2.680852146222400201
0.309000000000000163,2.638751351390044242
0.310000000000000164,2.597467386361894448
0.311000000000000165,2.556972974964920819
0.312000000000000166,2.517241936606693820
0.313000000000000167,2.478249155029519812
0.314000000000000168,2.439970546912348937
0.315000000000000169,2.402383030402973851
0.316000000000000170,2.365464493658493428
0.317000000000000171,2.329193763467526601
0.318000000000000171,2.293550574023118571
0.319000000000000172,2.258515535910593730
0.320000000000000173,2.224070105370228756
0.321000000000000174,2.190196553890103814
0.322000000000000175,2.156877938180012499
0.323000000000000176,2.124098070573153585
0.324000000000000177,2.091841489898012885
0.325000000000000178,2.060093432858887574
0.326000000000000179,2.028839805959446796
0.327000000000000179,1.998067158000061294
0.328000000000000180,1.967762653175946896
0.329000000000000181,1.937914044799595503
0.330000000000000182,1.908509649667854635
0.331000000000000183,1.879538323090587770
0.332000000000000184,1.850989434595095462
0.333000000000000185,1.822852844317485177
0.334000000000000186,1.795118880089566549
0.335000000000000187,1.767778315227360064
0.336000000000000187,1.740822347024878480
0.337000000000000188,1.714242575954784131
0.338000000000000189,1.688030985575354137
0.339000000000000190,1.662179923141342330
0.340000000000000191,1.636682080914684034
0.341000000000000192,1.611530478169193259
0.342000000000000193,1.586718443882147556
0.343000000000000194,1.562239600104113890
0.344000000000000195,1.538087845997427205
0.345000000000000195,1.514257342532298711
0.346000000000000196,1.490742497828902779
0.347000000000000197,1.467537953132697748
0.348000000000000198,1.444638569409553153
0.349000000000000199,1.422039414546629743
0.350000000000000200,1.399735751144292939
0.351000000000000201,1.377723024883961811
0.352000000000000202,1.355996853456336249
0.353000000000000203,1.334553016034121242
0.354000000000000203,1.313387443273125621
0.355000000000000204,1.292496207825474031
0.356000000000000205,1.271875515348466212
0.357000000000000206,1.251521695992559469
0.358000000000000207,1.231431196352071655
0.359000000000000208,1.211600571862055942
0.360000000000000209,1.192026479624964885
0.361000000000000210,1.172705671650908554
0.362000000000000210,1.153634988495336966
0.363000000000000211,1.134811353278287971
0.364000000000000212,1.116231766069490705
0.365000000000000213,1.097893298623926039
0.366000000000000214,1.079793089452662391
0.367000000000000215,1.061928339214155859
0.368000000000000216,1.044296306411405473
0.369000000000000217,1.026894303380856410
0.370000000000000218,1.009719692559093218
0.371000000000000218,0.992769883013918664
0.372000000000000219,0.976042327226611106
0.373000000000000220,0.959534518112636237
0.374000000000000221,0.943243986268438972
0.375000000000000222,0.927168297432349631
0.376000000000000223,0.911305050147936724
0.377000000000000224,0.895651873618672267
0.378000000000000225,0.880206425743034870
0.379000000000000226,0.864966391319674122
0.380000000000000226,0.849929480412507266
0.381000000000000227,0.835093426866192146
0.382000000000000228,0.820455986962608241
0.383000000000000229,0.806014938209470011
0.384000000000000230,0.791768078252578889
0.385000000000000231,0.777713223903438888
0.386000000000000232,0.763848210274527206
0.387000000000000233,0.750170890014664637
0.388000000000000234,0.736679132637429124
0.389000000000000234,0.723370823935744367
0.390000000000000235,0.710243865476251957
0.391000000000000236,0.697296174167248539
0.392000000000000237,0.684525681894388671
0.393000000000000238,0.671930335218580477
0.394000000000000239,0.659508095130841410
0.395000000000000240,0.647256936859117893
0.396000000000000241,0.635174849722376811
0.397000000000000242,0.623259837027536734
0.398000000000000242,0.611509916005021692
0.399000000000000243,0.599923117779034731
0.400000000000000244,0.588497487368820016
0.401000000000000245,0.577231083717401949
0.402000000000000246,0.566121979744614090
0.403000000000000247,0.555168262421278369
0.404000000000000248,0.544368032861727080
0.405000000000000249,0.533719406431975574
0.406000000000000250,0.523220512871088839
0.407000000000000250,0.512869496423400184
0.408000000000000251,0.502664515979471593
0.409000000000000252,0.492603745223788081
0.410000000000000253,0.482685372787369449
0.411000000000000254,0.472907602403604355
0.412000000000000255,0.463268653065777136
0.413000000000000256,0.453766759184807189
0.414000000000000257,0.444400170746008349
0.415000000000000258,0.435167153463558776
0.416000000000000258,0.426065988931731254
0.417000000000000259,0.417094974771832216
0.418000000000000260,0.408252424774031897
0.419000000000000261,0.399536669033284331
0.420000000000000262,0.390946054078674332
0.421000000000000263,0.382478942995540416
0.422000000000000264,0.374133715539918588
0.423000000000000265,0.365908768244790017
0.424000000000000266,0.357802514517748305
0.425000000000000266,0.349813384729811772
0.426000000000000267,0.341939826295055427
0.427000000000000268,0.334180303740881535
0.428000000000000269,0.326533298768773905
0.429000000000000270,0.318997310305395909
0.430000000000000271,0.311570854543998021
0.431000000000000272,0.304252464976066672
0.432000000000000273,0.297040692413267304
0.433000000000000274,0.289934104999679865
0.434000000000000274,0.282931288214428256
0.435000000000000275,0.276030844864807057
0.436000000000000276,0.269231395070006096
0.437000000000000277,0.262531576235623287
0.438000000000000278,0.255930043019111486
0.439000000000000279,0.249425467286348679
0.440000000000000280,0.243016538059564968
0.441000000000000281,0.236701961456838722
0.442000000000000282,0.230480460623365524
0.443000000000000282,0.224350775654822060
0.444000000000000283,0.218311663513002407
0.445000000000000284,0.212361897934047750
0.446000000000000285,0.206500269329538882
0.447000000000000286,0.200725584680677388
0.448000000000000287,0.195036667425931981
0.449000000000000288,0.189432357342341040
0.450000000000000289,0.183911510420828817
0.451000000000000290,0.178472998735799498
0.452000000000000290,0.173115710309287463
0.453000000000000291,0.167838548969988011
0.454000000000000292,0.162640434207422274
0.455000000000000293,0.157520301021548736
0.456000000000000294,0.152477099768093927
0.457000000000000295,0.147509795999881954
0.458000000000000296,0.142617370304452928
0.459000000000000297,0.137798818138227253
0.460000000000000298,0.133053149657493958
0.461000000000000298,0.128379389546493639
0.462000000000000299,0.123776576842827210
0.463000000000000300,0.119243764760484303
0.464000000000000301,0.114780020510695732
0.465000000000000302,0.110384425120880397
0.466000000000000303,0.106056073251906330
0.467000000000000304,0.101794073013893011
0.468000000000000305,0.097597545780787179
0.469000000000000306,0.093465626003914906
0.470000000000000306,0.089397461024704403
0.471000000000000307,0.085392210886825484
0.472000000000000308,0.081449048147878206
0.473000000000000309,0.077567157690856398
0.474000000000000310,0.073745736535562323
0.475000000000000311,0.069983993650121229
0.476000000000000312,0.066281149762785513
0.477000000000000313,0.062636437174163187
0.478000000000000314,0.059049099570056066
0.479000000000000314,0.055518391834998203
0.480000000000000315,0.052043579866692259
0.481000000000000316,0.048623940391420914
0.482000000000000317,0.045258760780596617
0.483000000000000318,0.041947338868539595
0.484000000000000319,0.038688982771617052
0.485000000000000320,0.035483010708830642
0.486000000000000321,0.032328750823957385
0.487000000000000322,0.029225541009336942
0.488000000000000322,0.026172728731406626
0.489000000000000323,0.023169670858031465
0.490000000000000324,0.020215733487735244
0.491000000000000325,0.017310291780889865
0.492000000000000326,0.014452729792938223
0.493000000000000327,0.011642440309688151
0.494000000000000328,0.008878824684765751
0.495000000000000329,0.006161292679240116
0.496000000000000330,0.003489262303510809
0.497000000000000330,0.000862159661437512
0.498000000000000331,-0.001720581203171445
0.499000000000000332,-0.004259518457759659
0.500000000000000333,-0.006755202629830759
0.501000000000000334,-0.009208176753351126
0.502000000000000335,-0.011618976512738943
0.503000000000000336,-0.013988130384409592
0.504000000000000337,-0.016316159775867811
0.505000000000000338,-0.018603579162332094
0.506000000000000338,-0.020850896220887170
0.507000000000000339,-0.023058611962166731
0.508000000000000340,-0.025227220859537002
0.509000000000000341,-0.027357210975831204
0.510000000000000342,-0.029449064087577238
0.511000000000000343,-0.031503255806785535
0.512000000000000344,-0.033520255700252924
0.513000000000000345,-0.035500527406425578
0.514000000000000346,-0.037444528749833048
0.515000000000000346,-0.039352711853086343
0.516000000000000347,-0.041225523246466042
0.517000000000000348,-0.043063403975148094
0.518000000000000349,-0.044866789704026452
0.519000000000000350,-0.046636110820219082
0.520000000000000351,-0.048371792533226585
0.521000000000000352,-0.050074254972816069
0.522000000000000353,-0.051743913284602427
0.523000000000000353,-0.053381177723407669
0.524000000000000354,-0.054986453744388673
0.525000000000000355,-0.056560142091977440
0.526000000000000356,-0.058102638886656385
0.527000000000000357,-0.059614335709613588
0.528000000000000358,-0.061095619685288316
0.529000000000000359,-0.062546873561862865
0.530000000000000360,-0.063968475789701995
0.531000000000000361,-0.065360800597813379
0.532000000000000361,-0.066724218068325514
0.533000000000000362,-0.068059094209041909
0.534000000000000363,-0.069365791024088616
0.535000000000000364,-0.070644666582712706
0.536000000000000365,-0.071896075086234676
0.537000000000000366,-0.073120366933227543
0.538000000000000367,-0.074317888782914898
0.539000000000000368,-0.075488983616877434
0.540000000000000369,-0.076633990799040611
0.541000000000000369,-0.077753246134046869
0.542000000000000370,-0.078847081923976811
0.543000000000000371,-0.079915827023521249
0.544000000000000372,-0.080959806893591918
0.545000000000000373,-0.081979343653431985
0.546000000000000374,-0.082974756131252464
0.547000000000000375,-0.083946359913422239
0.548000000000000376,-0.084894467392271009
0.549000000000000377,-0.085819387812504741
0.550000000000000377,-0.086721427316306596
0.551000000000000378,-0.087600888987112657
0.552000000000000379,-0.088458072892146078
0.553000000000000380,-0.089293276123701942
0.554000000000000381,-0.090106792839226596
0.555000000000000382,-0.090898914300255054
0.556000000000000383,-0.091669928910170048
0.557000000000000384,-0.092420122250903264
0.558000000000000385,-0.093149777118523874
0.559000000000000385,-0.093859173557808637
0.560000000000000386,-0.094548588895789681
0.561000000000000387,-0.095218297774324681
0.562000000000000388,-0.095868572181707509
0.563000000000000389,-0.096499681483365352
0.564000000000000390,-0.097111892451651319
0.565000000000000391,-0.097705469294773667
0.566000000000000392,-0.098280673684881428
0.567000000000000393,-0.098837764785349960
0.568000000000000393,-0.099376999277257627
0.569000000000000394,-0.099898631385121145
0.570000000000000395,-0.100402912901892044
0.571000000000000396,-0.100890093213227422
0.572000000000000397,-0.101360419321103026
0.573000000000000398,-0.101814135866735309
0.574000000000000399,-0.102251485152887109
0.575000000000000400,-0.102672707165543414
0.576000000000000401,-0.103078039594993537
0.577000000000000401,-0.103467717856357749
0.578000000000000402,-0.103841975109544821
0.579000000000000403,-0.104201042278680475
0.580000000000000404,-0.104545148071047048
0.581000000000000405,-0.104874518995505900
0.582000000000000406,-0.105189379380469239
0.583000000000000407,-0.105489951391408127
0.584000000000000408,-0.105776455047937160
0.585000000000000409,-0.106049108240473894
0.586000000000000409,-0.106308126746500115
0.587000000000000410,-0.106553724246457288
0.588000000000000411,-0.106786112339246370
0.589000000000000412,-0.107005500557413868
0.590000000000000413,-0.107212096381973557
0.591000000000000414,-0.107406105256924886
0.592000000000000415,-0.107587730603466311
0.593000000000000416,-0.107757173833909856
0.594000000000000417,-0.107914634365321449
0.595000000000000417,-0.108060309632911938
0.596000000000000418,-0.108194395103146906
0.597000000000000419,-0.108317084286653834
0.598000000000000420,-0.108428568750868509
0.599000000000000421,-0.108529038132493219
0.600000000000000422,-0.108618680149738189
0.601000000000000423,-0.108697680614366576
0.602000000000000424,-0.108766223443564986
0.603000000000000425,-0.108824490671644278
0.604000000000000425,-0.108872662461562936
0.605000000000000426,-0.108910917116306627
0.606000000000000427,-0.108939431090134597
0.607000000000000428,-0.108958378999652800
0.608000000000000429,-0.108967933634814829
0.609000000000000430,-0.108968265969743044
0.610000000000000431,-0.108959545173489575
0.611000000000000432,-0.108941938620659415
0.612000000000000433,-0.108915611901945875
0.613000000000000433,-0.108880728834583662
0.614000000000000434,-0.108837451472708249
0.615000000000000435,-0.108785940117635510
0.616000000000000436,-0.108726353328070985
0.617000000000000437,-0.108658847930265881
0.618000000000000438,-0.108583579028094013
