# hydroxyapatite-010-ph5_OXIDOLAMBDA4SULFANE-AC
# h[nm],U(h)[kJ/mol]
0.149999999999999994,81.697702456444332597
0.150999999999999995,79.888719932728676554
0.151999999999999996,78.369684821739014069
0.152999999999999997,76.936489797206036201
0.153999999999999998,75.508464423136729238
0.154999999999999999,74.065140007365542374
0.156000000000000000,72.611426170219829146
0.157000000000000001,71.159713755220565190
0.158000000000000002,69.721682464260524625
0.159000000000000002,68.305376949300267597
0.160000000000000003,66.914907578749065920
0.161000000000000004,65.551264477700527777
0.162000000000000005,64.213432186984249483
0.163000000000000006,62.899410284578152641
0.164000000000000007,61.606984797731243475
0.165000000000000008,60.334223792940306907
0.166000000000000009,59.079732233713606604
0.167000000000000010,57.842724290222008676
0.168000000000000010,56.622973484824775880
0.169000000000000011,55.420693155168805788
0.170000000000000012,54.236388026691464859
0.171000000000000013,53.070705685171937205
0.172000000000000014,51.924306151658456088
0.173000000000000015,50.797759268210256778
0.174000000000000016,49.691473297415235777
0.175000000000000017,48.605653812963055316
0.176000000000000018,47.540289274274179832
0.177000000000000018,46.495158267166715405
0.178000000000000019,45.469852910625135678
0.179000000000000020,44.463813081860138254
0.180000000000000021,43.476366660184872615
0.181000000000000022,42.506771752729726188
0.182000000000000023,41.554257709193748838
0.183000000000000024,40.618062567576352251
0.184000000000000025,39.697465339980475107
0.185000000000000026,38.791812214086505151
0.186000000000000026,37.900536297102831895
0.187000000000000027,37.023170963059811811
0.188000000000000028,36.159357187791194121
0.189000000000000029,35.308845480449264187
0.190000000000000030,34.471493160086808416
0.191000000000000031,33.647257795667314895
0.192000000000000032,32.836187642398911635
0.193000000000000033,32.038409879943976932
0.194000000000000034,31.254117400696507900
0.195000000000000034,30.483554819050318940
0.196000000000000035,29.727004283746630620
0.197000000000000036,28.984771581653326677
0.198000000000000037,28.257172927820171537
0.199000000000000038,27.544522747168947774
0.200000000000000039,26.847122670359510721
0.201000000000000040,26.165251891921435856
0.202000000000000041,25.499158973590674293
0.203000000000000042,24.849055120276247521
0.204000000000000042,24.215108910084360616
0.205000000000000043,23.597442422900787307
0.206000000000000044,22.996128683499396317
0.207000000000000045,22.411190314192328543
0.208000000000000046,21.842599277771864053
0.209000000000000047,21.290277583001731898
0.210000000000000048,20.754098821295507094
0.211000000000000049,20.233890403617159848
0.212000000000000050,19.729436370255797328
0.213000000000000050,19.240480652246606752
0.214000000000000051,18.766730671187609403
0.215000000000000052,18.307861173481096984
0.216000000000000053,17.863518205129299332
0.217000000000000054,17.433323143732859961
0.218000000000000055,17.016876714948239169
0.219000000000000056,16.613762931089024022
0.220000000000000057,16.223552899597184052
0.221000000000000058,15.845808458609479175
0.222000000000000058,15.480085605684035244
0.223000000000000059,15.125937693862828937
0.224000000000000060,14.782918376580052922
0.225000000000000061,14.450584289469210475
0.226000000000000062,14.128497462876740798
0.227000000000000063,13.816227463877183368
0.228000000000000064,13.513353270838752707
0.229000000000000065,13.219464887149660726
0.230000000000000066,12.934164703635968152
0.231000000000000066,12.657068621532182817
0.232000000000000067,12.387806949663273670
0.233000000000000068,12.126025090816016316
0.234000000000000069,11.871384033173907113
0.235000000000000070,11.623560663216695232
0.236000000000000071,11.382247916693255974
0.237000000000000072,11.147154784212400358
0.238000000000000073,10.918006187704985877
0.239000000000000073,10.694542743532784002
0.240000000000000074,10.476520427390630275
0.241000000000000075,10.263710155403250823
0.242000000000000076,10.055897294984713852
0.243000000000000077,9.852881118133126392
0.244000000000000078,9.654474208898463417
0.245000000000000079,9.460501835806621074
0.246000000000000080,9.270801299064578060
0.247000000000000081,9.085221261423086503
0.248000000000000081,8.903621070647073310
0.249000000000000082,8.725870080648226335
0.250000000000000111,8.551846977476625256
0.251000000000000112,8.381439115554609742
0.252000000000000113,8.214541868769467570
0.253000000000000114,8.051058000326511532
0.254000000000000115,7.890897054599619764
0.255000000000000115,7.733974773605750030
0.256000000000000116,7.580212540171092250
0.257000000000000117,7.429536849349358540
0.258000000000000118,7.281878809196266289
0.259000000000000119,7.137173671595460789
0.260000000000000120,6.995360393469089999
0.261000000000000121,6.856381228387877336
0.262000000000000122,6.720181348318218895
0.263000000000000123,6.586708495005365371
0.264000000000000123,6.455912660288623428
0.265000000000000124,6.327745794474801677
0.266000000000000125,6.202161541756250784
0.267000000000000126,6.079115001547882535
0.268000000000000127,5.958562514530126641
0.269000000000000128,5.840461472120194841
0.270000000000000129,5.724770148049175944
0.271000000000000130,5.611447550695396913
0.272000000000000131,5.500453294813315352
0.273000000000000131,5.391747491299294204
0.274000000000000132,5.285290653649854065
0.275000000000000133,5.181043619791983801
0.276000000000000134,5.078967487997854136
0.277000000000000135,4.979023565636050641
0.278000000000000136,4.881173329556811602
0.279000000000000137,4.785378396958923197
0.280000000000000138,4.691600505639663687
0.281000000000000139,4.599801502585109780
0.282000000000000139,4.509943339916420157
0.283000000000000140,4.421988077266342465
0.284000000000000141,4.335897889719758425
0.285000000000000142,4.251635080511024789
0.286000000000000143,4.169162097729323335
0.287000000000000144,4.088441554340644046
0.288000000000000145,4.009436250890683340
0.289000000000000146,3.932109200307376540
0.290000000000000147,3.856423654273650747
0.291000000000000147,3.782343130691321331
0.292000000000000148,3.709831441804534169
0.293000000000000149,3.638852722596762845
0.294000000000000150,3.569371459118181100
0.295000000000000151,3.501352516440625173
0.296000000000000152,3.434761165975460440
0.297000000000000153,3.369563111924940735
0.298000000000000154,3.305724516670800917
0.299000000000000155,3.243212024934341464
0.300000000000000155,3.181992786570487119
0.301000000000000156,3.122034477884398029
0.302000000000000157,3.063305321382853386
0.303000000000000158,3.005774103894373717
0.304000000000000159,2.949410193011714032
0.305000000000000160,2.894183551828099610
0.306000000000000161,2.840064751954495925
0.307000000000000162,2.787024984819420403
0.308000000000000163,2.735036071265462887
0.309000000000000163,2.684070469467711995
0.310000000000000164,2.634101281209010548
0.311000000000000165,2.585102256555324551
0.312000000000000166,2.537047796981664050
0.313000000000000167,2.489912957004992489
0.314000000000000168,2.443673444385624727
0.315000000000000169,2.398305618962589314
0.316000000000000170,2.353786490191593916
0.317000000000000171,2.310093713456665032
0.318000000000000171,2.267205585228201592
0.319000000000000172,2.225101037141103077
0.320000000000000173,2.183759629067188346
0.321000000000000174,2.143161541256002778
0.322000000000000175,2.103287565617542487
0.323000000000000176,2.064119096219520166
0.324000000000000177,2.025638119070487519
0.325000000000000178,1.987827201258577148
0.326000000000000179,1.950669479513637894
0.327000000000000179,1.914148648258627405
0.328000000000000180,1.878248947213725817
0.329000000000000181,1.842955148614221939
0.330000000000000182,1.808252544100810821
0.331000000000000183,1.774126931338094071
0.332000000000000184,1.740564600414573393
0.333000000000000185,1.707552320074583019
0.334000000000000186,1.675077323829834652
0.335000000000000187,1.643127295995544301
0.336000000000000187,1.611690357693229769
0.337000000000000188,1.580755052859730725
0.338000000000000189,1.550310334299066062
0.339000000000000190,1.520345549811268793
0.340000000000000191,1.490850428429759233
0.341000000000000192,1.461815066796141149
0.342000000000000193,1.433229915699065105
0.343000000000000194,1.405085766801241309
0.344000000000000195,1.377373739576654765
0.345000000000000195,1.350085268477520195
0.346000000000000196,1.323212090348750092
0.347000000000000197,1.296746232105458363
0.348000000000000198,1.270679998687241241
0.349000000000000199,1.245005961301128394
0.350000000000000200,1.219716945963343679
0.351000000000000201,1.194806022348446684
0.352000000000000202,1.170266492952862336
0.353000000000000203,1.146091882578357035
0.354000000000000203,1.122275928139677914
0.355000000000000204,1.098812568799355294
0.356000000000000205,1.075695936431422473
0.357000000000000206,1.052920346414702557
0.358000000000000207,1.030480288755463381
0.359000000000000208,1.008370419538097140
0.360000000000000209,0.986585552701719548
0.361000000000000210,0.965120652139886182
0.362000000000000210,0.943970824119733876
0.363000000000000211,0.923131310016359508
0.364000000000000212,0.902597479357561072
0.365000000000000213,0.882364823173628188
0.366000000000000214,0.862428947646326827
0.367000000000000215,0.842785568050884115
0.368000000000000216,0.823430502984299650
0.369000000000000217,0.804359668873193656
0.370000000000000218,0.785569074753901919
0.371000000000000218,0.767054817317514237
0.372000000000000219,0.748813076212217044
0.373000000000000220,0.730840109595223053
0.374000000000000221,0.713132249926454631
0.375000000000000222,0.695685899996100088
0.376000000000000223,0.678497529177973568
0.377000000000000224,0.661563669900796958
0.378000000000000225,0.644880914329343913
0.379000000000000226,0.628445911247542899
0.380000000000000226,0.612255363135541741
0.381000000000000227,0.596306023433010202
0.382000000000000228,0.580594693980808652
0.383000000000000229,0.565118222633430256
0.384000000000000230,0.549873501034690237
0.385000000000000231,0.534857462549174212
0.386000000000000232,0.520067080342278887
0.387000000000000233,0.505499365601625561
0.388000000000000234,0.491151365892984970
0.389000000000000234,0.477020163643816997
0.390000000000000235,0.463102874747900461
0.391000000000000236,0.449396647284541761
0.392000000000000237,0.435898660346151268
0.393000000000000238,0.422606122968071429
0.394000000000000239,0.409516273154824695
0.395000000000000240,0.396626376997048280
0.396000000000000241,0.383933727873628228
0.397000000000000242,0.371435645733747655
0.398000000000000242,0.359129476453690200
0.399000000000000243,0.347012591263523740
0.400000000000000244,0.335082386238919117
0.401000000000000245,0.323336281853511320
0.402000000000000246,0.311771722587543543
0.403000000000000247,0.300386176588534504
0.404000000000000248,0.289177135380026928
0.405000000000000249,0.278142113614583131
0.406000000000000250,0.267278648867416924
0.407000000000000250,0.256584301467165266
0.408000000000000251,0.246056654360534532
0.409000000000000252,0.235693313007658778
0.410000000000000253,0.225491905305226836
0.411000000000000254,0.215450081534526522
0.412000000000000255,0.205565514331789545
0.413000000000000256,0.195835898678238224
0.414000000000000257,0.186258951907565640
0.415000000000000258,0.176832413728484072
0.416000000000000258,0.167554046260352946
0.417000000000000259,0.158421634079819990
0.418000000000000260,0.149432984276669401
0.419000000000000261,0.140585926517130144
0.420000000000000262,0.131878313113027418
0.421000000000000263,0.123308019095239058
0.422000000000000264,0.114872942290123792
0.423000000000000265,0.106571003397550615
0.424000000000000266,0.098400146069345981
0.425000000000000266,0.090358336987082039
0.426000000000000267,0.082443565938139715
0.427000000000000268,0.074653845889133388
0.428000000000000269,0.066987213055856393
0.429000000000000270,0.059441726968930297
0.430000000000000271,0.052015470534504581
0.431000000000000272,0.044706550089326634
0.432000000000000273,0.037513095449657155
0.433000000000000274,0.030433259953492487
0.434000000000000274,0.023465220495664081
0.435000000000000275,0.016607177555439872
0.436000000000000276,0.009857355216257685
0.437000000000000277,0.003214001177343785
0.438000000000000278,-0.003324613243041237
0.439000000000000279,-0.009760193112935014
0.440000000000000280,-0.016094419900712188
0.441000000000000281,-0.022328951497941819
0.442000000000000282,-0.028465422251186635
0.443000000000000282,-0.034505443002717552
0.444000000000000283,-0.040450601140220373
0.445000000000000284,-0.046302460655435120
0.446000000000000285,-0.052062562211687202
0.447000000000000286,-0.057732423220290430
0.448000000000000287,-0.063313537925639901
0.449000000000000288,-0.068807377498975059
0.450000000000000289,-0.074215390140612028
0.451000000000000290,-0.079539001190521333
0.452000000000000290,-0.084779613247099886
0.453000000000000291,-0.089938606293910456
0.454000000000000292,-0.095017337834247179
0.455000000000000293,-0.100017143033276065
0.456000000000000294,-0.104939334867562489
0.457000000000000295,-0.109785204281750717
0.458000000000000296,-0.114556020352154980
0.459000000000000297,-0.119253030457033615
0.460000000000000298,-0.123877460453293883
0.461000000000000298,-0.128430514859366685
0.462000000000000299,-0.132913377044026559
0.463000000000000300,-0.137327209420850138
0.464000000000000301,-0.141673153648105676
0.465000000000000302,-0.145952330833771154
0.466000000000000303,-0.150165841745440398
0.467000000000000304,-0.154314767024844979
0.468000000000000305,-0.158400167406735848
0.469000000000000306,-0.162423083941849289
0.470000000000000306,-0.166384538223737583
0.471000000000000307,-0.170285532619136648
0.472000000000000308,-0.174127050501692832
0.473000000000000309,-0.177910056488751300
0.474000000000000310,-0.181635496680956743
0.475000000000000311,-0.185304298904451936
0.476000000000000312,-0.188917372955400009
0.477000000000000313,-0.192475610846625705
0.478000000000000314,-0.195979887056104529
0.479000000000000314,-0.199431058777121084
0.480000000000000315,-0.202829966169826459
0.481000000000000316,-0.206177432614022355
0.482000000000000317,-0.209474264962918294
0.483000000000000318,-0.212721253797693605
0.484000000000000319,-0.215919173682636911
0.485000000000000320,-0.219068783420677038
0.486000000000000321,-0.222170826309128294
0.487000000000000322,-0.225226030395453941
0.488000000000000322,-0.228235108732851438
0.489000000000000323,-0.231198759635543732
0.490000000000000324,-0.234117666933552515
0.491000000000000325,-0.236992500226829994
0.492000000000000326,-0.239823915138571708
0.493000000000000327,-0.242612553567591871
0.494000000000000328,-0.245359043939581578
0.495000000000000329,-0.248064001457156375
0.496000000000000330,-0.250728028348508380
0.497000000000000330,-0.253351714114616378
0.498000000000000331,-0.255935635774794612
0.499000000000000332,-0.258480358110558917
0.500000000000000333,-0.260986433907655635
0.501000000000000334,-0.263454404196140302
0.502000000000000335,-0.265884798488450314
0.503000000000000336,-0.268278135015337149
0.504000000000000337,-0.270634920959603176
0.505000000000000338,-0.272955652687534467
0.506000000000000338,-0.275240815977974396
0.507000000000000339,-0.277490886248952129
0.508000000000000340,-0.279706328781797908
0.509000000000000341,-0.281887598942699602
0.510000000000000342,-0.284035142401606655
0.511000000000000343,-0.286149395348475832
0.512000000000000344,-0.288230784706756837
0.513000000000000345,-0.290279728344102594
0.514000000000000346,-0.292296635280273998
0.515000000000000346,-0.294281905892159190
0.516000000000000347,-0.296235932115900436
0.517000000000000348,-0.298159097646116145
0.518000000000000349,-0.300051778132135627
0.519000000000000350,-0.301914341371286254
0.520000000000000351,-0.303747147499156156
0.521000000000000352,-0.305550549176870134
0.522000000000000353,-0.307324891775302977
0.523000000000000353,-0.309070513556278681
0.524000000000000354,-0.310787745850709896
0.525000000000000355,-0.312476913233679876
0.526000000000000356,-0.314138333696468319
0.527000000000000357,-0.315772318815523145
0.528000000000000358,-0.317379173918370061
0.529000000000000359,-0.318959198246477116
0.530000000000000360,-0.320512685115059592
0.531000000000000361,-0.322039922069867590
0.532000000000000361,-0.323541191040931431
0.533000000000000362,-0.325016768493302743
0.534000000000000363,-0.326466925574790012
0.535000000000000364,-0.327891928260722165
0.536000000000000365,-0.329292037495730272
0.537000000000000366,-0.330667509332607190
0.538000000000000367,-0.332018595068213351
0.539000000000000368,-0.333345541376516286
0.540000000000000369,-0.334648590438715643
0.541000000000000369,-0.335927980070553134
0.542000000000000370,-0.337183943846759537
0.543000000000000371,-0.338416711222727817
0.544000000000000372,-0.339626507653406795
0.545000000000000373,-0.340813554709451572
0.546000000000000374,-0.341978070190671446
0.547000000000000375,-0.343120268236781711
0.548000000000000376,-0.344240359435529442
0.549000000000000377,-0.345338550928181665
0.550000000000000377,-0.346415046512454083
0.551000000000000378,-0.347470046742867744
0.552000000000000379,-0.348503749028614362
0.553000000000000380,-0.349516347728930143
0.554000000000000381,-0.350508034246021727
0.555000000000000382,-0.351478997115609482
0.556000000000000383,-0.352429422095060951
0.557000000000000384,-0.353359492249233020
0.558000000000000385,-0.354269388033976118
0.559000000000000385,-0.355159287377404875
0.560000000000000386,-0.356029365758934013
0.561000000000000387,-0.356879796286127704
0.562000000000000388,-0.357710749769396374
0.563000000000000389,-0.358522394794594856
0.564000000000000390,-0.359314897793528765
0.565000000000000391,-0.360088423112436717
0.566000000000000392,-0.360843133078461498
0.567000000000000393,-0.361579188064177548
0.568000000000000393,-0.362296746550169635
0.569000000000000394,-0.362995965185740288
0.570000000000000395,-0.363676998847766386
0.571000000000000396,-0.364340000697725708
0.572000000000000397,-0.364985122236971882
0.573000000000000398,-0.365612513360242808
0.574000000000000399,-0.366222322407485479
0.575000000000000400,-0.366814696213997982
0.576000000000000401,-0.367389780158939194
0.577000000000000401,-0.367947718212257247
0.578000000000000402,-0.368488652980037745
0.579000000000000403,-0.369012725748325054
0.580000000000000404,-0.369520076525469920
0.581000000000000405,-0.370010844082991397
0.582000000000000406,-0.370485165995037558
0.583000000000000407,-0.370943178676437779
0.584000000000000408,-0.371385017419406382
0.585000000000000409,-0.371810816428916890
0.586000000000000409,-0.372220708856776439
0.587000000000000410,-0.372614826834458124
0.588000000000000411,-0.372993301504672026
0.589000000000000412,-0.373356263051771275
0.590000000000000413,-0.373703840730961467
0.591000000000000414,-0.374036162896385804
0.592000000000000415,-0.374353357028100187
0.593000000000000416,-0.374655549757964113
0.594000000000000417,-0.374942866894481308
0.595000000000000417,-0.375215433446628555
0.596000000000000418,-0.375473373646669939
0.597000000000000419,-0.375716810972028636
0.598000000000000420,-0.375945868166193742
0.599000000000000421,-0.376160667258734815
0.600000000000000422,-0.376361329584422866
0.601000000000000423,-0.376547975801475199
0.602000000000000424,-0.376720725908985976
0.603000000000000425,-0.376879699263541701
0.604000000000000425,-0.377025014595027297
0.605000000000000426,-0.377156790021696331
0.606000000000000427,-0.377275143064493612
0.607000000000000428,-0.377380190660640102
0.608000000000000429,-0.377472049176565516
0.609000000000000430,-0.377550834420116499
0.610000000000000431,-0.377616661652161678
0.611000000000000432,-0.377669645597536352
0.612000000000000433,-0.377709900455386216
0.613000000000000433,-0.377737539908931275
0.614000000000000434,-0.377752677134651382
0.615000000000000435,-0.377755424810920060
0.616000000000000436,-0.377745895126113673
0.617000000000000437,-0.377724199786213632
