# hydroxyapatite-010-ph5_NITROUSACID-AC
# h[nm],U(h)[kJ/mol]
0.149999999999999994,62.483165284179563059
0.150999999999999995,60.813893921019698041
0.151999999999999996,59.621626706155510078
0.152999999999999997,58.555270823492286070
0.153999999999999998,57.479332804009516167
0.154999999999999999,56.362293466418940113
0.156000000000000000,55.215464642333948575
0.157000000000000001,54.061826480493799352
0.158000000000000002,52.921986396175874745
0.159000000000000002,51.809381603793369209
0.160000000000000003,50.730044861247577614
0.161000000000000004,49.684268022079344007
0.162000000000000005,48.668737916320402803
0.163000000000000006,47.678458506773367276
0.164000000000000007,46.708195310347541351
0.165000000000000008,45.753403475440556747
0.166000000000000009,44.810708177458650425
0.167000000000000010,43.878045311236043347
0.168000000000000010,42.954573187628994901
0.169000000000000011,42.040451123451944682
0.170000000000000012,41.136559544036714442
0.171000000000000013,40.244214570862581581
0.172000000000000014,39.364911031005142661
0.173000000000000015,38.500112560275162821
0.174000000000000016,37.651096113217754180
0.175000000000000017,36.818850353059040970
0.176000000000000018,36.004022465315181023
0.177000000000000018,35.206905265842884489
0.178000000000000019,34.427455449593921344
0.179000000000000020,33.665333931057581651
0.180000000000000021,32.919960044037154034
0.181000000000000022,32.190572578217469868
0.182000000000000023,31.476292001149282385
0.183000000000000024,30.776179587309862029
0.184000000000000025,30.089290448633096986
0.185000000000000026,29.414718574755063685
0.186000000000000026,28.751632919394541688
0.187000000000000027,28.099304307090431365
0.188000000000000028,27.457123491740532018
0.189000000000000029,26.824611093500397629
0.190000000000000030,26.201420396498445342
0.191000000000000031,25.587334130812852351
0.192000000000000032,24.982256411944575802
0.193000000000000033,24.386200991453765852
0.194000000000000034,23.799276902785827303
0.195000000000000034,23.221672483007633758
0.196000000000000035,22.653638627720418697
0.197000000000000036,22.095472003581093645
0.198000000000000037,21.547498808927294078
0.199000000000000038,21.010059544065633474
0.200000000000000039,20.483495133102923802
0.201000000000000040,19.968134631507929555
0.202000000000000041,19.464284659398053634
0.203000000000000042,18.972220620411327729
0.204000000000000042,18.492179699793688030
0.205000000000000043,18.024355582337371118
0.206000000000000044,17.568894790027048458
0.207000000000000045,17.125894509454802517
0.208000000000000046,16.695401758905848766
0.209000000000000047,16.277413733121466777
0.210000000000000048,15.871879158769001350
0.211000000000000049,15.478700494318747616
0.212000000000000050,15.097736813171332315
0.213000000000000050,14.728807217444114031
0.214000000000000051,14.371694640878377669
0.215000000000000052,14.026149912068991199
0.216000000000000053,13.691895962964418132
0.217000000000000054,13.368632081771091080
0.218000000000000055,13.056038123566523268
0.219000000000000056,12.753778605717982941
0.220000000000000057,12.461506628341243896
0.221000000000000058,12.178867572318271328
0.222000000000000058,11.905502538681606239
0.223000000000000059,11.641051503386790955
0.224000000000000060,11.385156170588377478
0.225000000000000061,11.137462515507939642
0.226000000000000062,10.897623014855920331
0.227000000000000063,10.665298568589511419
0.228000000000000064,10.440160121616441913
0.229000000000000065,10.221889997961394414
0.230000000000000066,10.010182962977902221
0.231000000000000066,9.804747031495267606
0.232000000000000067,9.605304041422414230
0.233000000000000068,9.411590013369766083
0.234000000000000069,9.223355317377036400
0.235000000000000070,9.040364667923984854
0.236000000000000071,8.862396968124144792
0.237000000000000072,8.689245023422776271
0.238000000000000073,8.520715144299799704
0.239000000000000073,8.356626656469956060
0.240000000000000074,8.196811335922376429
0.241000000000000075,8.041112784893588383
0.242000000000000076,7.889385763557138276
0.243000000000000077,7.741495490870759610
0.244000000000000078,7.597316926675484972
0.245000000000000079,7.456734045811447054
0.246000000000000080,7.319639113721231993
0.247000000000000081,7.185931971767033133
0.248000000000000081,7.055519339304479942
0.249000000000000082,6.928314138441770353
0.250000000000000111,6.804234846373501178
0.251000000000000112,6.683204879218306083
0.252000000000000113,6.565152010409522454
0.253000000000000114,6.450007825889722213
0.254000000000000115,6.337707217641022517
0.255000000000000115,6.228187916442908367
0.256000000000000116,6.121390064183894530
0.257000000000000117,6.017255825560056337
0.258000000000000118,5.915729038568171561
0.259000000000000119,5.816754902839295305
0.260000000000000120,5.720279704555908395
0.261000000000000121,5.626250576447821672
0.262000000000000122,5.534615291163573758
0.263000000000000123,5.445322086161356268
0.264000000000000123,5.358319518151082761
0.265000000000000124,5.273556345043791005
0.266000000000000125,5.190981433320869698
0.267000000000000126,5.110543688720859734
0.268000000000000127,5.032192008150723872
0.269000000000000128,4.955875250759559592
0.270000000000000129,4.881542226161071696
0.271000000000000130,4.809141697854839137
0.272000000000000131,4.738622399972169497
0.273000000000000131,4.669933065558002028
0.274000000000000132,4.603022464693492743
0.275000000000000133,4.537839450862593438
0.276000000000000134,4.474333014068525571
0.277000000000000135,4.412452339310861227
0.278000000000000136,4.352146869139453145
0.279000000000000137,4.293366369106832003
0.280000000000000138,4.236060995044669930
0.281000000000000139,4.180181361191585232
0.282000000000000139,4.125678608298526839
0.283000000000000140,4.072504470933134613
0.284000000000000141,4.020611343296017992
0.285000000000000142,3.969952342948627866
0.286000000000000143,3.920481371934913195
0.287000000000000144,3.872153174856423075
0.288000000000000145,3.824923393532985383
0.289000000000000146,3.778748617948863853
0.290000000000000147,3.733586433246609992
0.291000000000000147,3.689395462588709762
0.292000000000000148,3.646135405759665105
0.293000000000000149,3.603767073429305245
0.294000000000000150,3.562252417041555930
0.295000000000000151,3.521554554331798759
0.296000000000000152,3.481637790510950570
0.297000000000000153,3.442467635184957686
0.298000000000000154,3.404010815105591004
0.299000000000000155,3.366235282871647083
0.300000000000000155,3.329110221719798091
0.301000000000000156,3.292606046561246558
0.302000000000000157,3.256694401434252484
0.303000000000000158,3.221348153554001392
0.304000000000000159,3.186541384149992773
0.305000000000000160,3.152249376287849181
0.306000000000000161,3.118448599876774807
0.307000000000000162,3.085116694066634135
0.308000000000000163,3.052232447239550783
0.309000000000000163,3.019775774800322221
0.310000000000000164,2.987727694968127956
0.311000000000000165,2.956070302768854852
0.312000000000000166,2.924786742423316266
0.313000000000000167,2.893861178321621264
0.314000000000000168,2.863278764768193874
0.315000000000000169,2.833025614675548365
0.316000000000000170,2.803088767377964974
0.317000000000000171,2.773456155728869277
0.318000000000000171,2.744116572638048090
0.319000000000000172,2.715059637196790554
0.320000000000000173,2.686275760531010359
0.321000000000000174,2.657756111514138819
0.322000000000000175,2.629492582463285988
0.323000000000000176,2.601477754933935405
0.324000000000000177,2.573704865720247703
0.325000000000000178,2.546167773159938807
0.326000000000000179,2.518860923834762566
0.327000000000000179,2.491779319749897859
0.328000000000000180,2.464918486067972037
0.329000000000000181,2.438274439466058929
0.330000000000000182,2.411843657177108469
0.331000000000000183,2.385623046770210642
0.332000000000000184,2.359609916717801070
0.333000000000000185,2.333801947791570353
0.334000000000000186,2.308197165322904088
0.335000000000000187,2.282793912358130228
0.336000000000000187,2.257590823733407692
0.337000000000000188,2.232586801089216699
0.338000000000000189,2.207780988839540104
0.339000000000000190,2.183172751106504439
0.340000000000000191,2.158761649627145118
0.341000000000000192,2.134547422635002967
0.342000000000000193,2.110529964715875728
0.343000000000000194,2.086709307633591859
0.344000000000000195,2.063085602118882811
0.345000000000000195,2.039659100611423526
0.346000000000000196,2.016430140942833127
0.347000000000000197,1.993399130946029940
0.348000000000000198,1.970566533974335455
0.349000000000000199,1.947932855311915956
0.350000000000000200,1.925498629455511423
0.351000000000000201,1.903264408245986417
0.352000000000000202,1.881230749827059512
0.353000000000000203,1.859398208407406994
0.354000000000000203,1.837767324801568236
0.355000000000000204,1.816338617724262861
0.356000000000000205,1.795112575812181088
0.357000000000000206,1.774089650346799774
0.358000000000000207,1.753270248651568552
0.359000000000000208,1.732654728136467481
0.360000000000000209,1.712243390962884693
0.361000000000000210,1.692036479301839647
0.362000000000000210,1.672034171158522042
0.363000000000000211,1.652236576736420215
0.364000000000000212,1.632643735314481592
0.365000000000000213,1.613255612611110834
0.366000000000000214,1.594072098609186972
0.367000000000000215,1.575093005816702973
0.368000000000000216,1.556318067938103455
0.369000000000000217,1.537746938932017304
0.370000000000000218,1.519379192431510983
0.371000000000000218,1.501214321503738569
0.372000000000000219,1.483251738726381053
0.373000000000000220,1.465490776558980857
0.374000000000000221,1.447930687987952991
0.375000000000000222,1.430570647424755704
0.376000000000000223,1.413409751837328754
0.377000000000000224,1.396447022095754331
0.378000000000000225,1.379681404513681819
0.379000000000000226,1.363111772567911828
0.380000000000000226,1.346736928779085130
0.381000000000000227,1.330555606737364061
0.382000000000000228,1.314566473257482437
0.383000000000000229,1.298768130648428443
0.384000000000000230,1.283159119083642885
0.385000000000000231,1.267737919058271823
0.386000000000000232,1.252502953920825890
0.387000000000000233,1.237452592467097157
0.388000000000000234,1.222585151585001251
0.389000000000000234,1.207898898939500532
0.390000000000000235,1.193392055687537034
0.391000000000000236,1.179062799213379753
0.392000000000000237,1.164909265875480493
0.393000000000000238,1.150929553756438128
0.394000000000000239,1.137121725408289263
0.395000000000000240,1.123483810585817810
0.396000000000000241,1.110013808961142434
0.397000000000000242,1.096709692813333081
0.398000000000000242,1.083569409687261009
0.399000000000000243,1.070590885016403870
0.400000000000000244,1.057772024704731084
0.401000000000000245,1.045110717663210176
0.402000000000000246,1.032604838296963035
0.403000000000000247,1.020252248939387041
0.404000000000000248,1.008050802230008092
0.405000000000000249,0.995998343433140421
0.406000000000000250,0.984092712694817906
0.407000000000000250,0.972331747235713251
0.408000000000000251,0.960713283478132896
0.409000000000000252,0.949235159105423998
0.410000000000000253,0.937895215052423348
0.411000000000000254,0.926691297425813021
0.412000000000000255,0.915621259353540884
0.413000000000000256,0.904682962762597298
0.414000000000000257,0.893874280084793860
0.415000000000000258,0.883193095890227098
0.416000000000000258,0.872637308448453775
0.417000000000000259,0.862204831217461831
0.418000000000000260,0.851893594260754616
0.419000000000000261,0.841701545592975053
0.420000000000000262,0.831626652454682258
0.421000000000000263,0.821666902516946629
0.422000000000000264,0.811820305016660804
0.423000000000000265,0.802084891823453106
0.424000000000000266,0.792458718439267296
0.425000000000000266,0.782939864931743612
0.426000000000000267,0.773526436802608686
0.427000000000000268,0.764216565792355751
0.428000000000000269,0.755008410622586723
0.429000000000000270,0.745900157677400366
0.430000000000000271,0.736890021625314362
0.431000000000000272,0.727976245983205206
0.432000000000000273,0.719157103623834781
0.433000000000000274,0.710430897228517377
0.434000000000000274,0.701795959686541404
0.435000000000000275,0.693250654442979064
0.436000000000000276,0.684793375796504677
0.437000000000000277,0.676422549148893770
0.438000000000000278,0.668136631207856491
0.439000000000000279,0.659934110144860364
0.440000000000000280,0.651813505709614271
0.441000000000000281,0.643773369302882426
0.442000000000000282,0.635812284009241724
0.443000000000000282,0.627928864591474567
0.444000000000000283,0.620121757448176880
0.445000000000000284,0.612389640536220359
0.446000000000000285,0.604731223259665884
0.447000000000000286,0.597145246326657331
0.448000000000000287,0.589630481575911247
0.449000000000000288,0.582185731774266246
0.450000000000000289,0.574809830386826204
0.451000000000000290,0.567501641321166983
0.452000000000000290,0.560260058647022885
0.453000000000000291,0.553084006292906327
0.454000000000000292,0.545972437721004011
0.455000000000000293,0.538924335581725034
0.456000000000000294,0.531938711349207893
0.457000000000000295,0.525014604939072038
0.458000000000000296,0.518151084309663057
0.459000000000000297,0.511347245048012766
0.460000000000000298,0.504602209941684920
0.461000000000000298,0.497915128537670448
0.462000000000000299,0.491285176689421565
0.463000000000000300,0.484711556093125773
0.464000000000000301,0.478193493814241422
0.465000000000000302,0.471730241805314143
0.466000000000000303,0.465321076416041202
0.467000000000000304,0.458965297896519353
0.468000000000000305,0.452662229894590928
0.469000000000000306,0.446411218948145561
0.470000000000000306,0.440211633973206062
0.471000000000000307,0.434062865748635507
0.472000000000000308,0.427964326398193595
0.473000000000000309,0.421915448870699872
0.474000000000000310,0.415915686419021768
0.475000000000000311,0.409964512078530130
0.476000000000000312,0.404061418145701012
0.477000000000000313,0.398205915657443232
0.478000000000000314,0.392397533871775395
0.479000000000000314,0.386635819750362264
0.480000000000000315,0.380920337443482637
0.481000000000000316,0.375250667777889790
0.482000000000000317,0.369626407748068042
0.483000000000000318,0.364047170011308652
0.484000000000000319,0.358512582387043477
0.485000000000000320,0.353022287360820031
0.486000000000000321,0.347575941593296078
0.487000000000000322,0.342173215434595501
0.488000000000000322,0.336813792444372151
0.489000000000000323,0.331497368917852531
0.490000000000000324,0.326223653418160620
0.491000000000000325,0.320992366315187128
0.492000000000000326,0.315803239331236718
0.493000000000000327,0.310656015093672466
0.494000000000000328,0.305550446694776157
0.495000000000000329,0.300486297258983737
0.496000000000000330,0.295463339517702095
0.497000000000000330,0.290481355391802198
0.498000000000000331,0.285540135581992982
0.499000000000000332,0.280639479167131001
0.500000000000000333,0.275779193210604678
0.501000000000000334,0.270959092374884858
0.502000000000000335,0.266178998544296275
0.503000000000000336,0.261438740456094887
0.504000000000000337,0.256738153339887420
0.505000000000000338,0.252077078565439816
0.506000000000000338,0.247455363298899916
0.507000000000000339,0.242872860167440224
0.508000000000000340,0.238329426932354954
0.509000000000000341,0.233824926170561026
0.510000000000000342,0.229359224964543529
0.511000000000000343,0.224932194600673985
0.512000000000000344,0.220543710275905275
0.513000000000000345,0.216193650812789823
0.514000000000000346,0.211881898382764527
0.515000000000000346,0.207608338237672468
0.516000000000000347,0.203372858449446581
0.517000000000000348,0.199175349657876616
0.518000000000000349,0.195015704826419556
0.519000000000000350,0.190893819005933413
0.520000000000000351,0.186809589106294721
0.521000000000000352,0.182762913675763528
0.522000000000000353,0.178753692688056465
0.523000000000000353,0.174781827336973117
0.524000000000000354,0.170847219838526632
0.525000000000000355,0.166949773240434612
0.526000000000000356,0.163089391238890269
0.527000000000000357,0.159265978002482211
0.528000000000000358,0.155479438003159748
0.529000000000000359,0.151729675854126000
0.530000000000000360,0.148016596154544738
0.531000000000000361,0.144340103340923953
0.532000000000000361,0.140700101545077672
0.533000000000000362,0.137096494458520068
0.534000000000000363,0.133529185203187795
0.535000000000000364,0.129998076208340196
0.536000000000000365,0.126503069093539144
0.537000000000000366,0.123044064557549487
0.538000000000000367,0.119620962273067399
0.539000000000000368,0.116233660787105467
0.540000000000000369,0.112882057426950538
0.541000000000000369,0.109566048211522798
0.542000000000000370,0.106285527768049379
0.543000000000000371,0.103040389253884146
0.544000000000000372,0.099830524283372982
0.545000000000000373,0.096655822859625998
0.546000000000000374,0.093516173311065098
0.547000000000000375,0.090411462232637449
0.548000000000000376,0.087341574431542807
0.549000000000000377,0.084306392877378442
0.550000000000000377,0.081305798656549216
0.551000000000000378,0.078339670930851507
0.552000000000000379,0.075407886900072052
0.553000000000000380,0.072510321768520264
0.554000000000000381,0.069646848715346737
0.555000000000000382,0.066817338868531584
0.556000000000000383,0.064021661282455233
0.557000000000000384,0.061259682918887039
0.558000000000000385,0.058531268631332269
0.559000000000000385,0.055836281152585210
0.560000000000000386,0.053174581085391991
0.561000000000000387,0.050546026896122621
0.562000000000000388,0.047950474911334903
0.563000000000000389,0.045387779317120944
0.564000000000000390,0.042857792161150224
0.565000000000000391,0.040360363357288633
0.566000000000000392,0.037895340692708432
0.567000000000000393,0.035462569837373260
0.568000000000000393,0.033061894355826647
0.569000000000000394,0.030693155721166245
0.570000000000000395,0.028356193331119339
0.571000000000000396,0.026050844526143480
0.572000000000000397,0.023776944609428009
0.573000000000000398,0.021534326868752073
0.574000000000000399,0.019322822600077914
0.575000000000000400,0.017142261132820580
0.576000000000000401,0.014992469856703239
0.577000000000000401,0.012873274250106181
0.578000000000000402,0.010784497909857426
0.579000000000000403,0.008725962582375591
0.580000000000000404,0.006697488196074031
0.581000000000000405,0.004698892894992546
0.582000000000000406,0.002729993073547865
0.583000000000000407,0.000790603412359259
0.584000000000000408,-0.001119463084931960
0.585000000000000409,-0.003000395053904192
0.586000000000000409,-0.004852382730725147
0.587000000000000410,-0.006675617912725662
0.588000000000000411,-0.008470293918200067
0.589000000000000412,-0.010236605545542421
0.590000000000000413,-0.011974749031728770
0.591000000000000414,-0.013684922010228417
0.592000000000000415,-0.015367323468390981
0.593000000000000416,-0.017022153704353317
0.594000000000000417,-0.018649614283523918
0.595000000000000417,-0.020249907994701066
0.596000000000000418,-0.021823238805844591
0.597000000000000419,-0.023369811819585518
0.598000000000000420,-0.024889833228476110
0.599000000000000421,-0.026383510270063214
0.600000000000000422,-0.027851051181794938
0.601000000000000423,-0.029292665155809017
0.602000000000000424,-0.030708562293654162
0.603000000000000425,-0.032098953560970658
0.604000000000000425,-0.033464050742154083
0.605000000000000426,-0.034804066395062214
0.606000000000000427,-0.036119213805784256
0.607000000000000428,-0.037409706943487706
0.608000000000000429,-0.038675760415422242
0.609000000000000430,-0.039917589422039809
0.610000000000000431,-0.041135409712331386
0.611000000000000432,-0.042329437539352220
0.612000000000000433,-0.043499889615988295
0.613000000000000433,-0.044646983070989688
0.614000000000000434,-0.045770935405277803
0.615000000000000435,-0.046871964448564209
0.616000000000000436,-0.047950288316293152
0.617000000000000437,-0.049006125366943619
0.618000000000000438,-0.050039694159687120
0.619000000000000439,-0.051051213412434834
0.620000000000000440,-0.052040901960295316
