# hydroxyapatite-010-ph5_CYCLOPENTANE-AC
# h[nm],U(h)[kJ/mol]
0.149999999999999994,175.123508463501735832
0.150999999999999995,172.716504010408954173
0.151999999999999996,170.025920061815440931
0.152999999999999997,167.328220950838328918
0.153999999999999998,164.716364863008777775
0.154999999999999999,162.197833870452143401
0.156000000000000000,159.748148883003921128
0.157000000000000001,157.337744439259495266
0.158000000000000002,154.943544624781708308
0.159000000000000002,152.552269387104473708
0.160000000000000003,150.159695655587881902
0.161000000000000004,147.768305620292039748
0.162000000000000005,145.384635424577510321
0.163000000000000006,143.016959483488165006
0.164000000000000007,140.673551807123061508
0.165000000000000008,138.361551105994493582
0.166000000000000009,136.086351705508207033
0.167000000000000010,133.851402260354916507
0.168000000000000010,131.658290144654955611
0.169000000000000011,129.507003305686396288
0.170000000000000012,127.396282576455035951
0.171000000000000013,125.323999838985542965
0.172000000000000014,123.287517828372187978
0.173000000000000015,121.284004364840484413
0.174000000000000016,119.310687039002189636
0.175000000000000017,117.365044065119462857
0.176000000000000018,115.444933642474026669
0.177000000000000018,113.548668304645246963
0.178000000000000019,111.675042962918411149
0.179000000000000020,109.823326176522755304
0.180000000000000021,107.993224041111176348
0.181000000000000022,106.184825324348906861
0.182000000000000023,104.398535359931230460
0.183000000000000024,102.635004934893984796
0.184000000000000025,100.895059107513489494
0.185000000000000026,99.179629665623593837
0.186000000000000026,97.489693833110464993
0.187000000000000027,95.826220884284538215
0.188000000000000028,94.190127541263933608
0.189000000000000029,92.582242404907361788
0.190000000000000030,91.003279193356817700
0.191000000000000031,89.453818217267709656
0.192000000000000032,87.934295288499441767
0.193000000000000033,86.444997120200568475
0.194000000000000034,84.986062212454200449
0.195000000000000034,83.557486212110589463
0.196000000000000035,82.159130773247241564
0.197000000000000036,80.790735013114115759
0.198000000000000037,79.451928746809713289
0.199000000000000038,78.142246783670643140
0.200000000000000039,76.861143672648950087
0.201000000000000040,75.608008387605266876
0.202000000000000041,74.382178542666920862
0.203000000000000042,73.182953819943946883
0.204000000000000042,72.009608375272108560
0.205000000000000043,70.861402061337969371
0.206000000000000044,69.737590371191629401
0.207000000000000045,68.637433058889499193
0.208000000000000046,67.560201438263845830
0.209000000000000047,66.505184396250271561
0.210000000000000048,65.471693184624257356
0.211000000000000049,64.459065074283586227
0.212000000000000050,63.466665970269197317
0.213000000000000050,62.493892094446685803
0.214000000000000051,61.540170847023162537
0.215000000000000052,60.604960958659333414
0.216000000000000053,59.687752042580441980
0.217000000000000054,58.788063651450400471
0.218000000000000055,57.905443937431002155
0.219000000000000056,57.039468006300218406
0.220000000000000057,56.189736048178801298
0.221000000000000058,55.355871318673010251
0.222000000000000058,54.537518035368485414
0.223000000000000059,53.734339245853355749
0.224000000000000060,52.946014714980961458
0.225000000000000061,52.172238871051249021
0.226000000000000062,51.412718843092477528
0.227000000000000063,50.667172614528752206
0.228000000000000064,49.935327312267915545
0.229000000000000065,49.216917644649484487
0.230000000000000066,48.511684496760928198
0.231000000000000066,47.819373687339393086
0.232000000000000067,47.139734887805076369
0.233000000000000068,46.472520700881645439
0.234000000000000069,45.817485893712579070
0.235000000000000070,45.174386778332710435
0.236000000000000071,44.542980730757186336
0.237000000000000072,43.923025838757325801
0.238000000000000073,43.314280667560737470
0.239000000000000073,42.716504132194117460
0.240000000000000074,42.129455464939532305
0.241000000000000075,41.552894266360105746
0.242000000000000076,40.986580628528564318
0.243000000000000077,40.430275319430243997
0.244000000000000078,39.883740017977999059
0.245000000000000079,39.346737589642756916
0.246000000000000080,38.819032393345423770
0.247000000000000081,38.300390610949804682
0.248000000000000081,37.790580591425026569
0.249000000000000082,37.289373202491979953
0.250000000000000111,36.796542183316901742
0.251000000000000112,36.311864492556189532
0.252000000000000113,35.835120646777816944
0.253000000000000114,35.366095044981435080
0.254000000000000115,34.904576275602110513
0.255000000000000115,34.450357403008723622
0.256000000000000116,34.003236231094170705
0.257000000000000117,33.563015542096728439
0.258000000000000118,33.129503309290853963
0.259000000000000119,32.702512882639702241
0.260000000000000120,32.281863146910879436
0.261000000000000121,31.867378652123306892
0.262000000000000122,31.458889716516733159
0.263000000000000123,31.056232502518263061
0.264000000000000123,30.659249066425228847
0.265000000000000124,30.267787382731427215
0.266000000000000125,29.881701344197409753
0.267000000000000126,29.500850738908248161
0.268000000000000127,29.125101205674276628
0.269000000000000128,28.754324169217237994
0.270000000000000129,28.388396756645210672
0.271000000000000130,28.027201696760290162
0.272000000000000131,27.670627203762553137
0.273000000000000131,27.318566846917139657
0.274000000000000132,26.970919407738715989
0.275000000000000133,26.627588726221706139
0.276000000000000134,26.288483537607596929
0.277000000000000135,25.953517301134290562
0.278000000000000136,25.622608022156960317
0.279000000000000137,25.295678068968893371
0.280000000000000138,24.972653985584450709
0.281000000000000139,24.653466301675059924
0.282000000000000139,24.338049340776624518
0.283000000000000140,24.026341027810794060
0.284000000000000141,23.718282696886738847
0.285000000000000142,23.413818900273604129
0.286000000000000143,23.112897219357829925
0.287000000000000144,22.815468078324983026
0.288000000000000145,22.521484561232178123
0.289000000000000146,22.230902233066547780
0.290000000000000147,21.943678965315967844
0.291000000000000147,21.659774766512548183
0.292000000000000148,21.379151618146064351
0.293000000000000149,21.101773316284472060
0.294000000000000150,20.827605319182175947
0.295000000000000151,20.556614601102619844
0.296000000000000152,20.288769512532280004
0.297000000000000153,20.024039646916087065
0.298000000000000154,19.762395714000955849
0.299000000000000155,19.503809419834297501
0.300000000000000155,19.248253353427294599
0.301000000000000156,18.995700880059665394
0.302000000000000157,18.746126041171518040
0.303000000000000158,18.499503460761218321
0.304000000000000159,18.255808258182799619
0.305000000000000160,18.015015967215290971
0.306000000000000161,17.777102461256557575
0.307000000000000162,17.542043884477855897
0.308000000000000163,17.309816588760597256
0.309000000000000163,17.080397076224858921
0.310000000000000164,16.853761947148704792
0.311000000000000165,16.629887853069391213
0.312000000000000166,16.408751454850818874
0.313000000000000167,16.190329385496969650
0.314000000000000168,15.974598217487605112
0.315000000000000169,15.761534434410624073
0.316000000000000170,15.551114406664845902
0.317000000000000171,15.343314371007375385
0.318000000000000171,15.138110413721539871
0.319000000000000172,14.935478457183322121
0.320000000000000173,14.735394249608072315
0.321000000000000174,14.537833357763025433
0.322000000000000175,14.342771162435823840
0.323000000000000176,14.150182856454577518
0.324000000000000177,13.960043445060756895
0.325000000000000178,13.772327748442247497
0.326000000000000179,13.587010406240329630
0.327000000000000179,13.404065883851364660
0.328000000000000180,13.223468480350632603
0.329000000000000181,13.045192337873027455
0.330000000000000182,12.869211452292706355
0.331000000000000183,12.695499685050755545
0.332000000000000184,12.524030775987650799
0.333000000000000185,12.354778357044489567
0.334000000000000186,12.187715966704107728
0.335000000000000187,12.022817065050746876
0.336000000000000187,11.860055049333634969
0.337000000000000188,11.699403269927397986
0.338000000000000189,11.540835046588512114
0.339000000000000190,11.384323684913983499
0.340000000000000191,11.229842492915173224
0.341000000000000192,11.077364797625495640
0.342000000000000193,10.926863961667365288
0.343000000000000194,10.778313399709293918
0.344000000000000195,10.631686594750181740
0.345000000000000195,10.486957114172842154
0.346000000000000196,10.344098625514430267
0.347000000000000197,10.203084911906426413
0.348000000000000198,10.063889887141460378
0.349000000000000199,9.926487610329099098
0.350000000000000200,9.790852300106836381
0.351000000000000201,9.656958348376864620
0.352000000000000202,9.524780333542997468
0.353000000000000203,9.394293033225839196
0.354000000000000203,9.265471436437753283
0.355000000000000204,9.138290755202575610
0.356000000000000205,9.012726435607905984
0.357000000000000206,8.888754168280714296
0.358000000000000207,8.766349898279921504
0.359000000000000208,8.645489834401715257
0.360000000000000209,8.526150457895901980
0.361000000000000210,8.408308530593822994
0.362000000000000210,8.291941102450007151
0.363000000000000211,8.177025518501897849
0.364000000000000212,8.063539425253388515
0.365000000000000213,7.951460776489547300
0.366000000000000214,7.840767838531230716
0.367000000000000215,7.731439194939541792
0.368000000000000216,7.623453750681088437
0.369000000000000217,7.516790735766273990
0.370000000000000218,7.411429708373280967
0.371000000000000218,7.307350557471671948
0.372000000000000219,7.204533504959750090
0.373000000000000220,7.102959107330683253
0.374000000000000221,7.002608256882747462
0.375000000000000222,6.903462182489593424
0.376000000000000223,6.805502449946378540
0.377000000000000224,6.708710961908368908
0.378000000000000225,6.613069957438381330
0.379000000000000226,6.518562011179791504
0.380000000000000226,6.425170032171635626
0.381000000000000227,6.332877262322691436
0.382000000000000228,6.241667274560988687
0.383000000000000229,6.151523970675385478
0.384000000000000230,6.062431578865583148
0.385000000000000231,5.974374651016712612
0.386000000000000232,5.887338059714671168
0.387000000000000233,5.801306995017701418
0.388000000000000234,5.716266961000000535
0.389000000000000234,5.632203772082284843
0.390000000000000235,5.549103549164327021
0.391000000000000236,5.466952715573960120
0.392000000000000237,5.385737992846687305
0.393000000000000238,5.305446396349717375
0.394000000000000239,5.226065230763870417
0.395000000000000240,5.147582085436321897
0.396000000000000241,5.069984829616833721
0.397000000000000242,4.993261607589699835
0.398000000000000242,4.917400833713114316
0.399000000000000243,4.842391187377491413
0.400000000000000244,4.768221607893538661
0.401000000000000245,4.694881289320651518
0.402000000000000246,4.622359675245895971
0.403000000000000247,4.550646453523015111
0.404000000000000248,4.479731550980963206
0.405000000000000249,4.409605128110706929
0.406000000000000250,4.340257573738838026
0.407000000000000250,4.271679499695967053
0.408000000000000251,4.203861735487626206
0.409000000000000252,4.136795322974940348
0.410000000000000253,4.070471511071920290
0.411000000000000254,4.004881750465914436
0.412000000000000255,3.940017688367404958
0.413000000000000256,3.875871163294817734
0.414000000000000257,3.812434199899962461
0.415000000000000258,3.749699003838974143
0.416000000000000258,3.687657956693748851
0.417000000000000259,3.626303610948137468
0.418000000000000260,3.565628685023153999
0.419000000000000261,3.505626058374893717
0.420000000000000262,3.446288766658874181
0.421000000000000263,3.387609996963817593
0.422000000000000264,3.329583083118115461
0.423000000000000265,3.272201501071462904
0.424000000000000266,3.215458864354219681
0.425000000000000266,3.159348919616767670
0.426000000000000267,3.103865542250713094
0.427000000000000268,3.049002732093804013
0.428000000000000269,2.994754609220069419
0.429000000000000270,2.941115409816476678
0.430000000000000271,2.888079482147309474
0.431000000000000272,2.835641282607159308
0.432000000000000273,2.783795371863340140
0.433000000000000274,2.732536411088325234
0.434000000000000274,2.681859158282583255
0.435000000000000275,2.631758464688205734
0.436000000000000276,2.582229271293358774
0.437000000000000277,2.533266605427615836
0.438000000000000278,2.484865577448042817
0.439000000000000279,2.437021377515742770
0.440000000000000280,2.389729272462523646
0.441000000000000281,2.342984602747230749
0.442000000000000282,2.296782779501071126
0.443000000000000282,2.251119281661392080
0.444000000000000283,2.205989653193008326
0.445000000000000284,2.161389500396336594
0.446000000000000285,2.117314489301378000
0.447000000000000286,2.073760343146483720
0.448000000000000287,2.030722839940977131
0.449000000000000288,1.988197810110375441
0.450000000000000289,1.946181134223113673
0.451000000000000290,1.904668740797523352
0.452000000000000290,1.863656604187738264
0.453000000000000291,1.823140742547308069
0.454000000000000292,1.783117215869060690
0.455000000000000293,1.743582124099883002
0.456000000000000294,1.704531605329014265
0.457000000000000295,1.665961834048322432
0.458000000000000296,1.627869019483220381
0.459000000000000297,1.590249403992624710
0.460000000000000298,1.553099261536511122
0.461000000000000298,1.516414896209560714
0.462000000000000299,1.480192640839322227
0.463000000000000300,1.444428855647424736
0.464000000000000301,1.409119926972238090
0.465000000000000302,1.374262266051504700
0.466000000000000303,1.339852307863368619
0.467000000000000304,1.305886510024254266
0.468000000000000305,1.272361351742119062
0.469000000000000306,1.239273332823515483
0.470000000000000306,1.206618972732911965
0.471000000000000307,1.174394809702873355
0.472000000000000308,1.142597399893505505
0.473000000000000309,1.111223316599692312
0.474000000000000310,1.080269149504753390
0.475000000000000311,1.049731503978913683
0.476000000000000312,1.019607000421332232
0.477000000000000313,0.989892273644063514
0.478000000000000314,0.960583972296777611
0.479000000000000314,0.931678758330657830
0.480000000000000315,0.903173306500262840
0.481000000000000316,0.875064303901917695
0.482000000000000317,0.847348449547391858
0.483000000000000318,0.820022453971508858
0.484000000000000319,0.793083038872449242
0.485000000000000320,0.766526936783519020
0.486000000000000321,0.740350890775090309
0.487000000000000322,0.714551654185581975
0.488000000000000322,0.689125990380293207
0.489000000000000323,0.664070672536903106
0.490000000000000324,0.639382483456540474
0.491000000000000325,0.615058215399318486
0.492000000000000326,0.591094669943268869
0.493000000000000327,0.567488657865578894
0.494000000000000328,0.544236999045180192
0.495000000000000329,0.521336522385596135
0.496000000000000330,0.498784065757201855
0.497000000000000330,0.476576475957747880
0.498000000000000331,0.454710608690485185
0.499000000000000332,0.433183328558735758
0.500000000000000333,0.411991509076175155
0.501000000000000334,0.391132032691993980
0.502000000000000335,0.370601790829977684
0.503000000000000336,0.350397683940865234
0.504000000000000337,0.330516621567063074
0.505000000000000338,0.310955522419065600
0.506000000000000338,0.291711314462786420
0.507000000000000339,0.272780935017098880
0.508000000000000340,0.254161330860948276
0.509000000000000341,0.235849458349265462
0.510000000000000342,0.217842283537182269
0.511000000000000343,0.200136782311763461
0.512000000000000344,0.182729940530810542
0.513000000000000345,0.165618754168061072
0.514000000000000346,0.148800229464211953
0.515000000000000346,0.132271383083323202
0.516000000000000347,0.116029242273994956
0.517000000000000348,0.100070845034832212
0.518000000000000349,0.084393240283760870
0.519000000000000350,0.068993488030664740
0.520000000000000351,0.053868659552986101
0.521000000000000352,0.039015837573736480
0.522000000000000353,0.024432116441675044
0.523000000000000353,0.010114602313084009
0.524000000000000354,-0.003939586665089245
0.525000000000000355,-0.017733320171179436
0.526000000000000356,-0.031269455524112179
0.527000000000000357,-0.044550837498474952
0.528000000000000358,-0.057580298139601659
0.529000000000000359,-0.070360656579021102
0.530000000000000360,-0.082894718850484522
0.531000000000000361,-0.095185277706938631
0.532000000000000361,-0.107235112438621799
0.533000000000000362,-0.119046988692563291
0.534000000000000363,-0.130623658293700873
0.535000000000000364,-0.141967859067881091
0.536000000000000365,-0.153082314666861480
0.537000000000000366,-0.163969734395623873
0.538000000000000367,-0.174632813042055579
0.539000000000000368,-0.185074230709314808
0.540000000000000369,-0.195296652650900876
0.541000000000000369,-0.205302729108718385
0.542000000000000370,-0.215095095154127502
0.543000000000000371,-0.224676370532272157
0.544000000000000372,-0.234049159509685467
0.545000000000000373,-0.243216050725359706
0.546000000000000374,-0.252179617045360627
0.547000000000000375,-0.260942415421060947
0.548000000000000376,-0.269506986751148758
0.549000000000000377,-0.277875855747410694
0.550000000000000377,-0.286051530804457665
0.551000000000000378,-0.294036503873338684
0.552000000000000379,-0.301833250339250792
0.553000000000000380,-0.309444228903258789
0.554000000000000381,-0.316871881468153926
0.555000000000000382,-0.324118633028508962
0.556000000000000383,-0.331186891564847707
0.557000000000000384,-0.338079047942144439
0.558000000000000385,-0.344797475812467169
0.559000000000000385,-0.351344531521954773
0.560000000000000386,-0.357722554022064265
0.561000000000000387,-0.363933864785090655
0.562000000000000388,-0.369980767723975590
0.563000000000000389,-0.375865549116447206
0.564000000000000390,-0.381590477533405636
0.565000000000000391,-0.387157803771612463
0.566000000000000392,-0.392569760790631994
0.567000000000000393,-0.397828563654062273
0.568000000000000393,-0.402936409474940749
0.569000000000000394,-0.407895477365406323
0.570000000000000395,-0.412707928390537382
0.571000000000000396,-0.417375905526315261
0.572000000000000397,-0.421901533621767300
0.573000000000000398,-0.426286919365145234
0.574000000000000399,-0.430534151254195308
0.575000000000000400,-0.434645299570428634
0.576000000000000401,-0.438622416357345279
0.577000000000000401,-0.442467535402645662
0.578000000000000402,-0.446182672224271937
0.579000000000000403,-0.449769824060290091
0.580000000000000404,-0.453230969862626842
0.581000000000000405,-0.456568070294446904
0.582000000000000406,-0.459783067731314277
0.583000000000000407,-0.462877886265916083
0.584000000000000408,-0.465854431716406669
0.585000000000000409,-0.468714591638278943
0.586000000000000409,-0.471460235339657197
0.587000000000000410,-0.474093213900083132
0.588000000000000411,-0.476615360192562676
0.589000000000000412,-0.479028488908991801
0.590000000000000413,-0.481334396588752988
0.591000000000000414,-0.483534861650512959
0.592000000000000415,-0.485631644427144238
0.593000000000000416,-0.487626487203671577
0.594000000000000417,-0.489521114258215040
0.595000000000000417,-0.491317231905897045
0.596000000000000418,-0.493016528545545452
0.597000000000000419,-0.494620674709278063
0.598000000000000420,-0.496131323114752221
0.599000000000000421,-0.497550108720156647
0.600000000000000422,-0.498878648781782452
0.601000000000000423,-0.500118542914133046
0.602000000000000424,-0.501271373152569200
0.603000000000000425,-0.502338704018353233
0.604000000000000425,-0.503322082586040609
0.605000000000000426,-0.504223038553201719
0.606000000000000427,-0.505043084312400969
0.607000000000000428,-0.505783715025269087
0.608000000000000429,-0.506446408698827399
0.609000000000000430,-0.507032626263727915
0.610000000000000431,-0.507543811654598054
0.611000000000000432,-0.507981391892266432
0.612000000000000433,-0.508346777167867359
0.613000000000000433,-0.508641360928790531
0.614000000000000434,-0.508866519966370889
0.615000000000000435,-0.509023614505276778
