# hydroxyapatite-010-ph5_DIFLUOROMETHANE
# h[nm],U(h)[kJ/mol]
0.149999999999999994,65.067165976616678336
0.150999999999999995,63.657386925964033253
0.151999999999999996,62.586943682618269236
0.152999999999999997,61.589928061291082884
0.153999999999999998,60.573923564633901151
0.154999999999999999,59.525493927254686355
0.156000000000000000,58.460234987940040696
0.157000000000000001,57.398663509964158891
0.158000000000000002,56.356396465041100896
0.159000000000000002,55.341694575865155059
0.160000000000000003,54.356365998916672311
0.161000000000000004,53.397834305926792808
0.162000000000000005,52.461262716289390085
0.163000000000000006,51.541256140801316121
0.164000000000000007,50.633007024689732134
0.165000000000000008,49.732922831313636891
0.166000000000000009,48.838844392642258185
0.167000000000000010,47.949980495386625989
0.168000000000000010,47.066672582395568725
0.169000000000000011,46.190080566993835021
0.170000000000000012,45.321855524622456812
0.171000000000000013,44.463842039707714093
0.172000000000000014,43.617834195025565691
0.173000000000000015,42.785395042556629619
0.174000000000000016,41.967739550243322810
0.175000000000000017,41.165674788544478702
0.176000000000000018,40.379587715429465788
0.177000000000000018,39.609469586556350862
0.178000000000000019,38.854966108610312858
0.179000000000000020,38.115443442117694417
0.180000000000000021,37.390061642533112263
0.181000000000000022,36.677848811970378051
0.182000000000000023,35.977770917417174701
0.183000000000000024,35.288793786396794872
0.184000000000000025,34.609935145029325554
0.185000000000000026,33.940305683826757388
0.186000000000000026,33.279139018774515080
0.187000000000000027,32.625811072883045938
0.188000000000000028,31.979849860731576427
0.189000000000000029,31.340936945163509364
0.190000000000000030,30.708901982313939527
0.191000000000000031,30.083711808613706751
0.192000000000000032,29.465455478792183186
0.193000000000000033,28.854326561238345050
0.194000000000000034,28.250603856663509816
0.195000000000000034,27.654631544368317719
0.196000000000000035,27.066799590567320877
0.197000000000000036,26.487525085016592641
0.198000000000000037,25.917235012735613253
0.199000000000000038,25.356350821725822442
0.200000000000000039,24.805275018199967718
0.201000000000000040,24.264379909394346413
0.202000000000000041,23.733998520849588942
0.203000000000000042,23.214417639582794806
0.204000000000000042,22.705872875711389014
0.205000000000000043,22.208545591324622137
0.206000000000000044,21.722561515005146759
0.207000000000000045,21.247990841566394948
0.208000000000000046,20.784849607476623135
0.209000000000000047,20.333102131348891106
0.210000000000000048,19.892664314166704997
0.211000000000000049,19.463407604119339567
0.212000000000000050,19.045163444732896352
0.213000000000000050,18.637728041274591817
0.214000000000000051,18.240867298211973946
0.215000000000000052,17.854321799028138429
0.216000000000000053,17.477811718275894748
0.217000000000000054,17.111041573883383649
0.218000000000000055,16.753704745007599541
0.219000000000000056,16.405487696881639437
0.220000000000000057,16.066073868918614664
0.221000000000000058,15.735147195699520140
0.222000000000000058,15.412395242322919131
0.223000000000000059,15.097511945926362031
0.224000000000000060,14.790199964032812119
0.225000000000000061,14.490172637794151100
0.226000000000000062,14.197155584283317253
0.227000000000000063,13.910887936827469602
0.228000000000000064,13.631123256087954942
0.229000000000000065,13.357630137293245554
0.230000000000000066,13.090192540837175983
0.231000000000000066,12.828609874478885899
0.232000000000000067,12.572696855736023025
0.233000000000000068,12.322283182851530015
0.234000000000000069,12.077213042035403134
0.235000000000000070,11.837344477625066475
0.236000000000000071,11.602548650452931156
0.237000000000000072,11.372709008129461949
0.238000000000000073,11.147720389209387903
0.239000000000000073,10.927488081363854633
0.240000000000000074,10.711926851779377756
0.241000000000000075,10.500959966088359465
0.242000000000000076,10.294518210238631895
0.243000000000000077,10.092538927859457942
0.244000000000000078,9.894965083901718472
0.245000000000000079,9.701744363637590851
0.246000000000000080,9.512828314513802397
0.247000000000000081,9.328171536870931035
0.248000000000000081,9.147730928176168064
0.249000000000000082,8.971464984171145574
0.250000000000000111,8.799333159210309674
0.251000000000000112,8.631295287058323495
0.252000000000000113,8.467311062523290133
0.253000000000000114,8.307339583523210891
0.254000000000000115,8.151338952509206592
0.255000000000000115,7.999265935596291399
0.256000000000000116,7.851075677273010811
0.257000000000000117,7.706721468169059897
0.258000000000000118,7.566154563047757797
0.259000000000000119,7.429324045950624900
0.260000000000000120,7.296176739247654197
0.261000000000000121,7.166657153232177890
0.262000000000000122,7.040707472836784220
0.263000000000000123,6.918267578030421916
0.264000000000000123,6.799275094480317527
0.265000000000000124,6.683665471120539436
0.266000000000000125,6.571372081355886685
0.267000000000000126,6.462326344741555317
0.268000000000000127,6.356457866109919586
0.269000000000000128,6.253694589263139036
0.270000000000000129,6.153962962509305967
0.271000000000000130,6.057188113487804060
0.272000000000000131,5.963294030903604437
0.273000000000000131,5.872203750967257108
0.274000000000000132,5.783839546515713081
0.275000000000000133,5.698123116966335999
0.276000000000000134,5.614975777431161497
0.277000000000000135,5.534318645489269883
0.278000000000000136,5.456072824280376210
0.279000000000000137,5.380159580742082781
0.280000000000000138,5.306500517965533348
0.281000000000000139,5.235017740788755702
0.282000000000000139,5.165634013883762421
0.283000000000000140,5.098272911721648093
0.284000000000000141,5.032858959919890296
0.285000000000000142,4.969317767587139834
0.286000000000000143,4.907576150383492042
0.287000000000000144,4.847562244108473806
0.288000000000000145,4.789205608714710571
0.289000000000000146,4.732437322723304085
0.290000000000000147,4.677190068086661157
0.291000000000000147,4.623398205607308853
0.292000000000000148,4.570997841076376744
0.293000000000000149,4.519926882344093677
0.294000000000000150,4.470125087576759526
0.295000000000000151,4.421534104990692882
0.296000000000000152,4.374097504384160118
0.297000000000000153,4.327760800813374331
0.298000000000000154,4.282471470779084299
0.299000000000000155,4.238178961305905545
0.300000000000000155,4.194834692308371693
0.301000000000000156,4.152392052645533127
0.302000000000000157,4.110806390270433042
0.303000000000000158,4.070034996882232470
0.304000000000000159,4.030037087487395198
0.305000000000000160,3.990773775272582924
0.306000000000000161,3.952208042185908710
0.307000000000000162,3.914304705615299529
0.308000000000000163,3.877030381543291160
0.309000000000000163,3.840353444546519945
0.310000000000000164,3.804243984996125594
0.311000000000000165,3.768673763802160348
0.312000000000000166,3.733616165031064860
0.313000000000000167,3.699046146710863070
0.314000000000000168,3.664940190123547659
0.315000000000000169,3.631276247868869600
0.316000000000000170,3.598033690968045484
0.317000000000000171,3.565193255260320715
0.318000000000000171,3.532736987329681888
0.319000000000000172,3.500648190183337505
0.320000000000000173,3.468911368888380586
0.321000000000000174,3.437512176357874871
0.322000000000000175,3.406437359462811010
0.323000000000000176,3.375674705632030648
0.324000000000000177,3.345212990088190175
0.325000000000000178,3.315041923854373351
0.326000000000000179,3.285152102652852513
0.327000000000000179,3.255534956805032465
0.328000000000000180,3.226182702229661636
0.329000000000000181,3.197088292624841621
0.330000000000000182,3.168245372908626400
0.331000000000000183,3.139648233982570424
0.332000000000000184,3.111291768872887609
0.333000000000000185,3.083171430294674220
0.334000000000000186,3.055283189676005318
0.335000000000000187,3.027623497670588470
0.336000000000000187,3.000189246180140934
0.337000000000000188,2.972977731900632747
0.338000000000000189,2.945986621399939942
0.339000000000000190,2.919213917728483931
0.340000000000000191,2.892657928558935332
0.341000000000000192,2.866317235845825540
0.342000000000000193,2.840190666991442292
0.343000000000000194,2.814277267500024493
0.344000000000000195,2.788576275098635815
0.345000000000000195,2.763087095299459062
0.346000000000000196,2.737809278375446631
0.347000000000000197,2.712742497718383383
0.348000000000000198,2.687886529546158254
0.349000000000000199,2.663241233923971052
0.350000000000000200,2.638806537062393431
0.351000000000000201,2.614582414853816150
0.352000000000000202,2.590568877607525078
0.353000000000000203,2.566765955942684307
0.354000000000000203,2.543173687797771976
0.355000000000000204,2.519792106514453511
0.356000000000000205,2.496621229953542187
0.357000000000000206,2.473661050600456157
0.358000000000000207,2.450911526617691294
0.359000000000000208,2.428372573801870882
0.360000000000000209,2.406044058403185915
0.361000000000000210,2.383925790765592190
0.362000000000000210,2.362017519746441696
0.363000000000000211,2.340318927874982968
0.364000000000000212,2.318829627209798794
0.365000000000000213,2.297549155856049463
0.366000000000000214,2.276476975104238853
0.367000000000000215,2.255612467153142120
0.368000000000000216,2.234954933380437936
0.369000000000000217,2.214503593125721093
0.370000000000000218,2.194257582951469665
0.371000000000000218,2.174215956348748868
0.372000000000000219,2.154377683855438708
0.373000000000000220,2.134741653555934704
0.374000000000000221,2.115306671932413174
0.375000000000000222,2.096071465038900961
0.376000000000000223,2.077034679970435338
0.377000000000000224,2.058194886600915652
0.378000000000000225,2.039550579564219923
0.379000000000000226,2.021100180454419082
0.380000000000000226,2.002842040221911368
0.381000000000000227,1.984774441743568874
0.382000000000000228,1.966895602545905675
0.383000000000000229,1.949203677661465406
0.384000000000000230,1.931696762599650175
0.385000000000000231,1.914372896414173297
0.386000000000000232,1.897230064850438325
0.387000000000000233,1.880266203556994586
0.388000000000000234,1.863479201346305292
0.389000000000000234,1.846866903490833156
0.390000000000000235,1.830427115041507680
0.391000000000000236,1.814157604156363846
0.392000000000000237,1.798056105428069928
0.393000000000000238,1.782120323199823941
0.394000000000000239,1.766347934859912261
0.395000000000000240,1.750736594105912758
0.396000000000000241,1.735283934170326559
0.397000000000000242,1.719987571000040516
0.398000000000000242,1.704845106382700592
0.399000000000000243,1.689854131013757810
0.400000000000000244,1.675012227498469120
0.401000000000000245,1.660316973283749720
0.402000000000000246,1.645765943515372642
0.403000000000000247,1.631356713816403126
0.404000000000000248,1.617086862983395434
0.405000000000000249,1.602953975597213088
0.406000000000000250,1.588955644545902768
0.407000000000000250,1.575089473457339961
0.408000000000000251,1.561353079039879521
0.409000000000000252,1.547744093329504800
0.410000000000000253,1.534260165842419976
0.411000000000000254,1.520898965632256683
0.412000000000000255,1.507658183251467499
0.413000000000000256,1.494535532616656726
0.414000000000000257,1.481528752777992786
0.415000000000000258,1.468635609592940483
0.416000000000000258,1.455853897304936861
0.417000000000000259,1.443181440027711870
0.418000000000000260,1.430616093136241718
0.419000000000000261,1.418155744565430032
0.420000000000000262,1.405798316017860650
0.421000000000000263,1.393541764081988266
0.422000000000000264,1.381384081262426955
0.423000000000000265,1.369323296923973032
0.424000000000000266,1.357357478151173691
0.425000000000000266,1.345484730525382977
0.426000000000000267,1.333703198821244440
0.427000000000000268,1.322011067624693004
0.428000000000000269,1.310406561874599252
0.429000000000000270,1.298887947330230386
0.430000000000000271,1.287453530966762516
0.431000000000000272,1.276101661301113577
0.432000000000000273,1.264830728650397251
0.433000000000000274,1.253639165325302507
0.434000000000000274,1.242525445760749081
0.435000000000000275,1.231488086586163044
0.436000000000000276,1.220525646637706796
0.437000000000000277,1.209636726914821381
0.438000000000000278,1.198819970483414821
0.439000000000000279,1.188074062328012603
0.440000000000000280,1.177397729155182482
0.441000000000000281,1.166789739150536187
0.442000000000000282,1.156248901691516284
0.443000000000000282,1.145774067018274334
0.444000000000000283,1.135364125864766871
0.445000000000000284,1.125018009052282553
0.446000000000000285,1.114734687047518547
0.447000000000000286,1.104513169487262747
0.448000000000000287,1.094352504671781690
0.449000000000000288,1.084251779028866380
0.450000000000000289,1.074210116550525562
0.451000000000000290,1.064226678204226451
0.452000000000000290,1.054300661320537236
0.453000000000000291,1.044431298959008547
0.454000000000000292,1.034617859254032934
0.455000000000000293,1.024859644742414977
0.456000000000000294,1.015155991674307590
0.457000000000000295,1.005506269309128120
0.458000000000000296,0.995909879198017323
0.459000000000000297,0.986366254454347891
0.460000000000000298,0.976874859013740937
0.461000000000000298,0.967435186885003739
0.462000000000000299,0.958046761393326229
0.463000000000000300,0.948709134417067723
0.464000000000000301,0.939421885619358243
0.465000000000000302,0.930184621675744672
0.466000000000000303,0.920996975499016157
0.467000000000000304,0.911858605462327554
0.468000000000000305,0.902769194621671822
0.469000000000000306,0.893728449938716474
0.470000000000000306,0.884736101504952743
0.471000000000000307,0.875791901768106174
0.472000000000000308,0.866895624761646055
0.473000000000000309,0.858047065338239046
0.474000000000000310,0.849246038407943216
0.475000000000000311,0.840492378181858180
0.476000000000000312,0.831785937421965493
0.477000000000000313,0.823126586697785934
0.478000000000000314,0.814514213650517460
0.479000000000000314,0.805948722265194539
0.480000000000000315,0.797430032151458912
0.481000000000000316,0.788958077833412097
0.482000000000000317,0.780532808049065663
0.483000000000000318,0.772154185059796605
0.484000000000000319,0.763822183970242818
0.485000000000000320,0.755536792059005480
0.486000000000000321,0.747298008120501067
0.487000000000000322,0.739105841818286313
0.488000000000000322,0.730960313050152632
0.489000000000000323,0.722861451325227056
0.490000000000000324,0.714809295153334134
0.491000000000000325,0.706803891446818766
0.492000000000000326,0.698845294935017569
0.493000000000000327,0.690933567591524578
0.494000000000000328,0.683068778074412464
0.495000000000000329,0.675251001179492105
0.496000000000000330,0.667480317306740734
0.497000000000000330,0.659756811939926857
0.498000000000000331,0.652080575139540430
0.499000000000000332,0.644451701049018721
0.500000000000000333,0.636870287414297520
0.501000000000000334,0.629336435116715776
0.502000000000000335,0.621850247719218152
0.503000000000000336,0.614411831025863164
0.504000000000000337,0.607021292654563061
0.505000000000000338,0.599678741623025369
0.506000000000000338,0.592384287947806731
0.507000000000000339,0.585138042256402202
0.508000000000000340,0.577940115412287847
0.509000000000000341,0.570790618152789975
0.510000000000000342,0.563689660739695508
0.511000000000000343,0.556637352622444959
0.512000000000000344,0.549633802113813852
0.513000000000000345,0.542679116077914414
0.514000000000000346,0.535773399630371072
0.515000000000000346,0.528916755850528775
0.516000000000000347,0.522109285505526821
0.517000000000000348,0.515351086786048573
0.518000000000000349,0.508642255053612602
0.519000000000000350,0.501982882599185998
0.520000000000000351,0.495373058412968192
0.521000000000000352,0.488812867965127129
0.522000000000000353,0.482302392997332796
0.523000000000000353,0.475841711324849204
0.524000000000000354,0.469430896649025708
0.525000000000000355,0.463070018379958426
0.526000000000000356,0.456759141469142205
0.527000000000000357,0.450498326251883019
0.528000000000000358,0.444287628299282145
0.529000000000000359,0.438127098279578964
0.530000000000000360,0.432016781828641228
0.531000000000000361,0.425956719429396002
0.532000000000000361,0.419946946299985080
0.533000000000000362,0.413987492290438297
0.534000000000000363,0.408078381787665090
0.535000000000000364,0.402219633628523532
0.536000000000000365,0.396411261020796712
0.537000000000000366,0.390653271471831931
0.538000000000000367,0.384945666724667401
0.539000000000000368,0.379288442701400386
0.540000000000000369,0.373681589453634944
0.541000000000000369,0.368125091119763270
0.542000000000000370,0.362618925888918420
0.543000000000000371,0.357163065971359273
0.544000000000000372,0.351757477575115440
0.545000000000000373,0.346402120888684883
0.546000000000000374,0.341096950069585847
0.547000000000000375,0.335841913238583811
0.548000000000000376,0.330636952479383073
0.549000000000000377,0.325482003843618473
0.550000000000000377,0.320376997360935611
0.551000000000000378,0.315321857054005117
0.552000000000000379,0.310316500958264130
0.553000000000000380,0.305360841146227358
0.554000000000000381,0.300454783756186505
0.555000000000000382,0.295598229025113013
0.556000000000000383,0.290791071325628314
0.557000000000000384,0.286033199206832400
0.558000000000000385,0.281324495438868283
0.559000000000000385,0.276664837061033397
0.560000000000000386,0.272054095433295395
0.561000000000000387,0.267492136291054672
0.562000000000000388,0.262978819803008690
0.563000000000000389,0.258514000631949070
0.564000000000000390,0.254097527998382033
0.565000000000000391,0.249729245746796114
0.566000000000000392,0.245408992414464094
0.567000000000000393,0.241136601302622433
0.568000000000000393,0.236911900549920867
0.569000000000000394,0.232734713207985333
0.570000000000000395,0.228604857318989885
0.571000000000000396,0.224522145995110278
0.572000000000000397,0.220486387499722408
0.573000000000000398,0.216497385330255782
0.574000000000000399,0.212554938302565499
0.575000000000000400,0.208658840636724963
0.576000000000000401,0.204808882044131557
0.577000000000000401,0.201004847815799886
0.578000000000000402,0.197246518911772334
0.579000000000000403,0.193533672051532879
0.580000000000000404,0.189866079805306981
0.581000000000000405,0.186243510686199598
0.582000000000000406,0.182665729243034008
0.583000000000000407,0.179132496153837750
0.584000000000000408,0.175643568319867438
0.585000000000000409,0.172198698960106145
0.586000000000000409,0.168797637706145504
0.587000000000000410,0.165440130697365767
0.588000000000000411,0.162125920676370827
0.589000000000000412,0.158854747084555492
0.590000000000000413,0.155626346157791667
0.591000000000000414,0.152440451022121087
0.592000000000000415,0.149296791789410216
0.593000000000000416,0.146195095652904339
0.594000000000000417,0.143135086982619231
0.595000000000000417,0.140116487420496760
0.596000000000000418,0.137139015975302647
0.597000000000000419,0.134202389117173360
0.598000000000000420,0.131306320871792670
0.599000000000000421,0.128450522914126369
0.600000000000000422,0.125634704661676061
0.601000000000000423,0.122858573367220864
0.602000000000000424,0.120121834210970932
0.603000000000000425,0.117424190392112937
0.604000000000000425,0.114765343219720470
0.605000000000000426,0.112144992202958482
0.606000000000000427,0.109562835140562795
0.607000000000000428,0.107018568209583886
0.608000000000000429,0.104511886053295353
0.609000000000000430,0.102042481868331175
0.610000000000000431,0.099610047490926459
0.611000000000000432,0.097214273482303507
0.612000000000000433,0.094854849213148601
0.613000000000000433,0.092531462947144108
0.614000000000000434,0.090243801923562822
0.615000000000000435,0.087991552438877588
0.616000000000000436,0.085774399927381006
0.617000000000000437,0.083592029040775950
0.618000000000000438,0.081444123726745560
0.619000000000000439,0.079330367306472360
0.620000000000000440,0.077250442551085347
0.621000000000000441,0.075204031757031733
