# AuFCC100-Ablate100_HIESCA-AC
# h[nm],U(h)[kJ/mol]
0.200000000000000011,126.828324720335558595
0.201000000000000012,118.735992143165887569
0.202000000000000013,113.620245163212302941
0.203000000000000014,109.885577321642060156
0.204000000000000015,106.635012224587811147
0.205000000000000016,103.412881747431441681
0.206000000000000016,100.030381064609343866
0.207000000000000017,96.449923156320878093
0.208000000000000018,92.710712505236500647
0.209000000000000019,88.882753966883896624
0.210000000000000020,85.040089453865931546
0.211000000000000021,81.246705925824613814
0.212000000000000022,77.550509119581377604
0.213000000000000023,73.982181683137440587
0.214000000000000024,70.556774274338707187
0.215000000000000024,67.276614587700791503
0.216000000000000025,64.134638697538818519
0.217000000000000026,61.117609364261355154
0.218000000000000027,58.208930511983986378
0.219000000000000028,55.390928453549420851
0.220000000000000029,52.646572765797017723
0.221000000000000030,49.960670819266660203
0.222000000000000031,47.320602872317778065
0.223000000000000032,44.716678783365743755
0.224000000000000032,42.142199523192445554
0.225000000000000033,39.593301534765309668
0.226000000000000034,37.068652875253292223
0.227000000000000035,34.569059197484421020
0.228000000000000036,32.097026426759455831
0.229000000000000037,29.656316354604513208
0.230000000000000038,27.251521809844611255
0.231000000000000039,24.887679822151472564
0.232000000000000040,22.569934331965395558
0.233000000000000040,20.303254480202042487
0.234000000000000041,18.092210222108398909
0.235000000000000042,15.940803807978076279
0.236000000000000043,13.852353401656760212
0.237000000000000044,11.829423608844393812
0.238000000000000045,9.873796813251050963
0.239000000000000046,7.986478835927502296
0.240000000000000047,6.167732424251875401
0.241000000000000048,4.417132341910595450
0.242000000000000048,2.733636286145321836
0.243000000000000049,1.115666435346028162
0.244000000000000050,-0.438802925578699821
0.245000000000000051,-1.932155584961388062
0.246000000000000052,-3.367044608998892130
0.247000000000000053,-4.746307157400137200
0.248000000000000054,-6.072884908148841632
0.249000000000000055,-7.349751557009996716
0.250000000000000056,-8.579848386068713140
0.251000000000000056,-9.766028487326583019
0.252000000000000057,-10.911009881483130002
0.253000000000000058,-12.017337485840641875
0.254000000000000059,-13.087353654802205583
0.255000000000000060,-14.123176836827264324
0.256000000000000061,-15.126687757643633603
0.257000000000000062,-16.099522445474754306
0.258000000000000063,-17.043071354557522312
0.259000000000000064,-17.958483813028557563
0.260000000000000064,-18.846677015392792498
0.261000000000000065,-19.708348793691243372
0.262000000000000066,-20.543993431027097074
0.263000000000000067,-21.353919822604837009
0.264000000000000068,-22.138271339661748982
0.265000000000000069,-22.897046807833756787
0.266000000000000070,-23.630122071222139368
0.267000000000000071,-24.337271674733145232
0.268000000000000071,-25.018190258511701529
0.269000000000000072,-25.672513318175685271
0.270000000000000073,-26.299837042048288538
0.271000000000000074,-26.899736990904631995
0.272000000000000075,-27.471785436335217412
0.273000000000000076,-28.015567220301697660
0.274000000000000077,-28.530694040603776784
0.275000000000000078,-29.016817104693313212
0.276000000000000079,-29.473638127581317292
0.277000000000000079,-29.900918678582531385
0.278000000000000080,-30.298487906495630284
0.279000000000000081,-30.666248693742261366
0.280000000000000082,-31.004182307234181337
0.281000000000000083,-31.312351627581779923
0.282000000000000084,-31.590903048988820956
0.283000000000000085,-31.840067150093307902
0.284000000000000086,-32.060158241409467905
0.285000000000000087,-32.251572898188250349
0.286000000000000087,-32.414787588726547085
0.287000000000000088,-32.550355507680635014
0.288000000000000089,-32.658902722030404675
0.289000000000000090,-32.741123734230846765
0.290000000000000091,-32.797776562988417481
0.291000000000000092,-32.829677437213106828
0.292000000000000093,-32.837695193196019261
0.293000000000000094,-32.822745459109029298
0.294000000000000095,-32.785784704658006206
0.295000000000000095,-32.727804227269544413
0.296000000000000096,-32.649824139661170364
0.297000000000000097,-32.552887417129554137
0.298000000000000098,-32.438054056471067099
0.299000000000000099,-32.306395392188605342
0.300000000000000100,-32.158988609594416630
0.301000000000000101,-31.996911488632417075
0.302000000000000102,-31.821237406752423738
0.303000000000000103,-31.633030623995146868
0.304000000000000103,-31.433341868611307746
0.305000000000000104,-31.223204237051042753
0.306000000000000105,-31.003629418027550457
0.307000000000000106,-30.775604246580162027
0.308000000000000107,-30.540087590636439074
0.309000000000000108,-30.298007569490231106
0.310000000000000109,-30.050259100864632700
0.311000000000000110,-29.797701770802838439
0.312000000000000111,-29.541158018510781602
0.313000000000000111,-29.281411626448793584
0.314000000000000112,-29.019206504417375925
0.315000000000000113,-28.755245755087468496
0.316000000000000114,-28.490191007371407750
0.317000000000000115,-28.224662003197106941
0.318000000000000116,-27.959236422618545248
0.319000000000000117,-27.694449931752927796
0.320000000000000118,-27.430796437759994433
0.321000000000000119,-27.168728534956709808
0.322000000000000119,-26.908658126174675118
0.323000000000000120,-26.650957203602011703
0.324000000000000121,-26.395958773592575142
0.325000000000000122,-26.143957910258471600
0.326000000000000123,-25.895212923075057176
0.327000000000000124,-25.649946624207917267
0.328000000000000125,-25.408347681808812979
0.329000000000000126,-25.170572046110144981
0.330000000000000127,-24.936744435767394634
0.331000000000000127,-24.706959872546882195
0.332000000000000128,-24.481285253124021040
0.333000000000000129,-24.259760947437715828
0.334000000000000130,-24.042402413734301092
0.335000000000000131,-23.829201821123017879
0.336000000000000132,-23.620129671148767159
0.337000000000000133,-23.415136410564251435
0.338000000000000134,-23.214154028146449349
0.339000000000000135,-23.017097629050603302
0.340000000000000135,-22.823866980823609651
0.341000000000000136,-22.634348025807355498
0.342000000000000137,-22.448414355247670926
0.343000000000000138,-22.265928640985926279
0.344000000000000139,-22.086744021145392480
0.345000000000000140,-21.910705436734065898
0.346000000000000141,-21.737650916566551018
0.347000000000000142,-21.567412808362899312
0.348000000000000143,-21.399818954308472030
0.349000000000000143,-21.234693809758351080
0.350000000000000144,-21.071859504141869479
0.351000000000000145,-20.911136843467854618
0.352000000000000146,-20.752346254150008775
0.353000000000000147,-20.595308668165010602
0.354000000000000148,-20.439846349824332350
0.355000000000000149,-20.285783664684419847
0.356000000000000150,-20.132947791341493371
0.357000000000000151,-19.981169377055426395
0.358000000000000151,-19.830283138324908521
0.359000000000000152,-19.680128407693072035
0.360000000000000153,-19.530549628200994050
0.361000000000000154,-19.381396797026134493
0.362000000000000155,-19.232525859945496904
0.363000000000000156,-19.083799058349804056
0.364000000000000157,-18.935085230606446771
0.365000000000000158,-18.786260069626589342
0.366000000000000159,-18.637206338535861505
0.367000000000000159,-18.487814046380155020
0.368000000000000160,-18.337980585819604329
0.369000000000000161,-18.187610834773764168
0.370000000000000162,-18.036617223982602809
0.371000000000000163,-17.884919772440913022
0.372000000000000164,-17.732446092647613511
0.373000000000000165,-17.579131367590424162
0.374000000000000166,-17.424918301356889572
0.375000000000000167,-17.269757045228988801
0.376000000000000167,-17.113605101079585324
0.377000000000000168,-16.956427203845056084
0.378000000000000169,-16.798195184801379298
0.379000000000000170,-16.638887817320430429
0.380000000000000171,-16.478490646729760272
0.381000000000000172,-16.316995805843600209
0.382000000000000173,-16.154401817675328346
0.383000000000000174,-15.990713386782948291
0.384000000000000175,-15.825941180638860573
0.385000000000000175,-15.660101602354634664
0.386000000000000176,-15.493216556030636966
0.387000000000000177,-15.325313205938638106
0.388000000000000178,-15.156423730684982942
0.389000000000000179,-14.986585073440844340
0.390000000000000180,-14.815838689266076500
0.391000000000000181,-14.644230290493865709
0.392000000000000182,-14.471809591085190050
0.393000000000000183,-14.298630050804248981
0.394000000000000183,-14.124748620010814548
0.395000000000000184,-13.950225485810136661
0.396000000000000185,-13.775123820248035500
0.397000000000000186,-13.599509531187212730
0.398000000000000187,-13.423451016450709261
0.399000000000000188,-13.247018921769770472
0.400000000000000189,-13.070285903027226482
0.401000000000000190,-12.893326393241846262
0.402000000000000191,-12.716216374696740488
0.403000000000000191,-12.539033156572697791
0.404000000000000192,-12.361855158408406652
0.405000000000000193,-12.184761699671300406
0.406000000000000194,-12.007832795686832483
0.407000000000000195,-11.831148960140023263
0.408000000000000196,-11.654791014330047716
0.409000000000000197,-11.478839903328456273
0.410000000000000198,-11.303376519162208425
0.411000000000000199,-11.128481531115344438
0.412000000000000199,-10.954235223217320794
0.413000000000000200,-10.780717338962073626
0.414000000000000201,-10.608006933278838702
0.415000000000000202,-10.436182231754797201
0.416000000000000203,-10.265320497090245411
0.417000000000000204,-10.095497902747933239
0.418000000000000205,-9.926789413742209689
0.419000000000000206,-9.759268674497363349
0.420000000000000207,-9.593007903690295990
0.421000000000000207,-9.428077795980055242
0.422000000000000208,-9.264547430513866644
0.423000000000000209,-9.102484186089434104
0.424000000000000210,-8.941953662842786699
0.425000000000000211,-8.783019610322416071
0.426000000000000212,-8.625743861802821044
0.427000000000000213,-8.470186274683268124
0.428000000000000214,-8.316404676812071628
0.429000000000000214,-8.164454818570968442
0.430000000000000215,-8.014390330550169139
0.431000000000000216,-7.866262686640925317
0.432000000000000217,-7.720121172369097451
0.433000000000000218,-7.576012858291420571
0.434000000000000219,-7.433982578274090258
0.435000000000000220,-7.294072912472235437
0.436000000000000221,-7.156324174828258222
0.437000000000000222,-7.020774404906816812
0.438000000000000222,-6.887459363884737229
0.439000000000000223,-6.756412534514808499
0.440000000000000224,-6.627665124883503900
0.441000000000000225,-6.501246075784377965
0.442000000000000226,-6.377182071530794083
0.443000000000000227,-6.255497554033483176
0.444000000000000228,-6.136214739971377341
0.445000000000000229,-6.019353640886439649
0.446000000000000230,-5.904932086036533967
0.447000000000000230,-5.792965747843119573
0.448000000000000231,-5.683468169774362977
0.449000000000000232,-5.576450796507298691
0.450000000000000233,-5.471923006216627527
0.451000000000000234,-5.369892144841382553
0.452000000000000235,-5.270363562184552819
0.453000000000000236,-5.173340649704654126
0.454000000000000237,-5.078824879862547270
0.455000000000000238,-4.986815846890392478
0.456000000000000238,-4.897311308854361833
0.457000000000000239,-4.810307230886244234
0.458000000000000240,-4.725797829463981081
0.459000000000000241,-4.643775617624561924
0.460000000000000242,-4.564231450997713324
0.461000000000000243,-4.487154574552249642
0.462000000000000244,-4.412532669951744424
0.463000000000000245,-4.340351903419720436
0.464000000000000246,-4.270596974019187364
0.465000000000000246,-4.203251162255009277
0.466000000000000247,-4.138296378911787698
0.467000000000000248,-4.075713214043716448
0.468000000000000249,-4.015480986037000655
0.469000000000000250,-3.957577790668968643
0.470000000000000251,-3.901980550091929789
0.471000000000000252,-3.848665061673336218
0.472000000000000253,-3.797606046627726162
0.473000000000000254,-3.748777198378962616
0.474000000000000254,-3.702151230595142728
0.475000000000000255,-3.657699924841643302
0.476000000000000256,-3.615394177801143805
0.477000000000000257,-3.575204048012612823
0.478000000000000258,-3.537098802084307270
0.479000000000000259,-3.501046960338854319
0.480000000000000260,-3.467016341851429040
0.481000000000000261,-3.434974108844701668
0.482000000000000262,-3.404886810407258935
0.483000000000000262,-3.376720425504442513
0.484000000000000263,-3.350440405253474641
0.485000000000000264,-3.326011714436851285
0.486000000000000265,-3.303398872230741468
0.487000000000000266,-3.282565992126988963
0.488000000000000267,-3.263476821029773767
0.489000000000000268,-3.246094777510157847
0.490000000000000269,-3.230382989203397504
0.491000000000000270,-3.216304329336338697
0.492000000000000270,-3.203821452373588841
0.493000000000000271,-3.192896828773362561
0.494000000000000272,-3.183492778845159243
0.495000000000000273,-3.175571505703547182
0.496000000000000274,-3.169095127313404703
0.497000000000000275,-3.164025707623641104
0.498000000000000276,-3.160325286788012722
0.499000000000000277,-3.157955910472489247
0.500000000000000222,-3.156879658250457688
0.501000000000000334,-3.157058671087670465
0.502000000000000224,-3.158455177920523216
0.503000000000000336,-3.161031521331783889
0.504000000000000226,-3.164750182329342465
0.505000000000000338,-3.169573804234166126
0.506000000000000227,-3.175465215684721620
0.507000000000000339,-3.182387452765855329
0.508000000000000229,-3.190303780270856926
0.509000000000000341,-3.199177712106383797
0.510000000000000231,-3.208973030850221342
0.511000000000000343,-3.219653806472833057
0.512000000000000233,-3.231184414233915447
0.513000000000000345,-3.243529551765998775
0.514000000000000234,-3.256654255357382510
0.515000000000000346,-3.270523915447253849
0.516000000000000236,-3.285104291346119254
0.517000000000000348,-3.300361525195339762
0.518000000000000238,-3.316262155179384052
0.519000000000000350,-3.332773128005277474
0.520000000000000240,-3.349861810663462336
0.521000000000000352,-3.367496001484946877
0.522000000000000242,-3.385643940509371674
0.523000000000000353,-3.404274319179334096
0.524000000000000243,-3.423356289375772299
0.525000000000000355,-3.442859471810007843
0.526000000000000245,-3.462753963787539302
0.527000000000000357,-3.483010346359194820
0.528000000000000247,-3.503599690874941608
0.529000000000000359,-3.524493564955898162
0.530000000000000249,-3.545664037899952881
0.531000000000000361,-3.567083685536432736
0.532000000000000250,-3.588725594545172815
0.533000000000000362,-3.610563366255399753
0.534000000000000252,-3.632571119939378868
0.535000000000000364,-3.654723495616460038
0.536000000000000254,-3.676995656381978783
0.537000000000000366,-3.699363290276378002
0.538000000000000256,-3.721802611709066788
0.539000000000000368,-3.744290362451753396
0.540000000000000258,-3.766803812215653302
0.541000000000000369,-3.789320758826983049
0.542000000000000259,-3.811819528014682934
0.543000000000000371,-3.834278972824504361
0.544000000000000261,-3.856678472673085167
0.545000000000000373,-3.878997932055603393
0.546000000000000263,-3.901217778920293533
0.547000000000000375,-3.923318962723089331
0.548000000000000265,-3.945282952175089175
0.549000000000000377,-3.967091732695771977
0.550000000000000266,-3.988727803584162679
0.551000000000000378,-4.010174174920431156
0.552000000000000268,-4.031414364209717327
0.553000000000000380,-4.052432392780056070
0.554000000000000270,-4.073212781945843020
0.555000000000000382,-4.093740548948209046
0.556000000000000272,-4.114001202683239100
0.557000000000000384,-4.133980739228874768
0.558000000000000274,-4.153665637181076953
0.559000000000000385,-4.173042852809492942
0.560000000000000275,-4.192099815042717559
0.561000000000000387,-4.210824420292984094
0.562000000000000277,-4.229205027129752992
0.563000000000000389,-4.247230450811709801
0.564000000000000279,-4.264889957686048838
0.565000000000000391,-4.282173259464089554
0.566000000000000281,-4.299070507381609119
0.567000000000000393,-4.315572286252505663
0.568000000000000282,-4.331669608423721840
0.569000000000000394,-4.347353907639471160
0.570000000000000284,-4.362617032822279306
0.571000000000000396,-4.377451241778514301
0.572000000000000286,-4.391849194835392822
0.573000000000000398,-4.405803948416581406
0.574000000000000288,-4.419308948563104522
0.575000000000000400,-4.432358024406227059
0.576000000000000290,-4.444945381598439660
0.577000000000000401,-4.457065595708951555
0.578000000000000291,-4.468713605589353044
0.579000000000000403,-4.479884706715361986
0.580000000000000293,-4.490574544510016253
0.581000000000000405,-4.500779107653820610
0.582000000000000295,-4.510494721386707262
0.583000000000000407,-4.519718040807074289
0.584000000000000297,-4.528446044172295792
0.585000000000000409,-4.536676026205599399
0.586000000000000298,-4.544405591413438472
0.587000000000000410,-4.551632647417736877
0.588000000000000300,-4.558355398306927597
0.589000000000000412,-4.564572338009757146
0.590000000000000302,-4.570282243695437785
0.591000000000000414,-4.575484169203823726
0.592000000000000304,-4.580177438508899357
0.593000000000000416,-4.584361639218795581
0.594000000000000306,-4.588036616115514832
0.595000000000000417,-4.591202464737223821
0.596000000000000307,-4.593859525005863809
0.597000000000000419,-4.596008374902828209
0.598000000000000309,-4.597649824195185531
0.599000000000000421,-4.598784908214733846
0.600000000000000311,-4.599414881692310608
0.601000000000000423,-4.599541212649343791
0.602000000000000313,-4.599165576348685391
0.603000000000000425,-4.598289849306663513
0.604000000000000314,-4.596916103368062778
0.605000000000000426,-4.595046599845696633
0.606000000000000316,-4.592683783726191571
0.607000000000000428,-4.589830277943259595
0.608000000000000318,-4.586488877720073631
0.609000000000000430,-4.582662544981687347
0.610000000000000320,-4.578354402838847648
0.611000000000000432,-4.573567730144176835
0.612000000000000322,-4.568305956121713862
0.613000000000000433,-4.562572655070631811
0.614000000000000323,-4.556371541144040194
0.615000000000000435,-4.549706463203437856
0.616000000000000325,-4.542581399749538562
0.617000000000000437,-4.535000453930029707
0.618000000000000327,-4.526967848624678048
0.619000000000000439,-4.518487921608240754
0.620000000000000329,-4.509565120791548587
0.621000000000000441,-4.500203999540934419
0.622000000000000330,-4.490409212076373002
0.623000000000000442,-4.480185508948336448
0.624000000000000332,-4.469537732593540369
0.625000000000000444,-4.458470812969610897
0.626000000000000334,-4.446989763268644147
0.627000000000000446,-4.435099675709563982
0.628000000000000336,-4.422805717409234560
0.629000000000000448,-4.410113126332058542
0.630000000000000338,-4.397027207317958819
0.631000000000000449,-4.383553328188368070
0.632000000000000339,-4.369696915930097347
0.633000000000000451,-4.355463452956522374
0.634000000000000341,-4.340858473445934784
0.635000000000000453,-4.325887559756511180
0.636000000000000343,-4.310556338917483465
0.637000000000000455,-4.294870479196083224
0.638000000000000345,-4.278835686739673960
0.639000000000000457,-4.262457702292578254
0.640000000000000346,-4.245742297987046499
0.641000000000000458,-4.228695274207735721
0.642000000000000348,-4.211322456529125624
0.643000000000000460,-4.193629692725152402
0.644000000000000350,-4.175622849850546991
0.645000000000000462,-4.157307811392981556
0.646000000000000352,-4.138690474495545502
0.647000000000000464,-4.119776747248629967
0.648000000000000353,-4.100572546050685219
0.649000000000000465,-4.081083793036838436
0.650000000000000355,-4.061316413574923345
0.651000000000000467,-4.041276333827793721
0.652000000000000357,-4.020969478381474005
0.653000000000000469,-4.000401767937976416
0.654000000000000359,-3.979579117072349792
0.655000000000000471,-3.958507432052785102
0.656000000000000361,-3.937192608723203868
0.657000000000000473,-3.915640530447296097
0.658000000000000362,-3.893857066113326937
0.659000000000000474,-3.871848068198693316
