# AuFCC100-Ablate100_GLUPSCA-JS
# h[nm],U(h)[kJ/mol]
0.149999999999999994,139.662076774516521027
0.150999999999999995,137.694723712076836364
0.151999999999999996,133.610619918967870490
0.152999999999999997,129.114292676046233055
0.153999999999999998,124.879712855464617860
0.154999999999999999,121.066078278534590140
0.156000000000000000,117.610496738734099154
0.157000000000000001,114.383661662452510654
0.158000000000000002,111.264236316862209719
0.159000000000000002,108.167276285918518397
0.160000000000000003,105.048514675580008770
0.161000000000000004,101.897527595229774988
0.162000000000000005,98.727166192164020231
0.163000000000000006,95.563130794167008730
0.164000000000000007,92.435447241933033524
0.165000000000000008,89.372391316987886967
0.166000000000000009,86.396761622922397805
0.167000000000000010,83.524103317501030119
0.168000000000000010,80.762390289706871727
0.169000000000000011,78.112689349269288641
0.170000000000000012,75.570399305856426508
0.171000000000000013,73.126746125368498497
0.172000000000000014,70.770303320979039086
0.173000000000000015,68.488384521386279857
0.174000000000000016,66.268218727506223331
0.175000000000000017,64.097867481989055705
0.176000000000000018,61.966878222143307653
0.177000000000000018,59.866691502914605394
0.178000000000000019,57.790833856409960845
0.179000000000000020,55.734935013292911776
0.180000000000000021,53.696610013638313319
0.181000000000000022,51.675245023744253103
0.182000000000000023,49.671721763070465272
0.183000000000000024,47.688110336409124557
0.184000000000000025,45.727354697229294800
0.185000000000000026,43.792969452950494258
0.186000000000000026,41.888761597883188870
0.187000000000000027,40.018586223676940961
0.188000000000000028,38.186141407140219428
0.189000000000000029,36.394804335014711683
0.190000000000000030,34.647508268818469901
0.191000000000000031,32.946658122876428365
0.192000000000000032,31.294081150097817101
0.193000000000000033,29.691008420240301291
0.194000000000000034,28.138082351057772001
0.195000000000000034,26.635385434716788211
0.196000000000000035,25.182485418116275611
0.197000000000000036,23.778492482809447495
0.198000000000000037,22.422124373908083328
0.199000000000000038,21.111775902630988355
0.200000000000000039,19.845589757688433252
0.201000000000000040,18.621526078009381422
0.202000000000000041,17.437428741915795172
0.203000000000000042,16.291086800212632113
0.204000000000000042,15.180289912297917354
0.205000000000000043,14.102877028932795156
0.206000000000000044,13.056777899653496888
0.207000000000000045,12.040047266433722584
0.208000000000000046,11.050891839503092839
0.209000000000000047,10.087690338976816662
0.210000000000000048,9.149007030864719781
0.211000000000000049,8.233599292396727165
0.212000000000000050,7.340419813997326237
0.213000000000000050,6.468614088305464804
0.214000000000000051,5.617513854893863012
0.215000000000000052,4.786627167097771363
0.216000000000000053,3.975625728608286558
0.217000000000000054,3.184330115844553610
0.218000000000000055,2.412693460830841463
0.219000000000000056,1.660784121205400421
0.220000000000000057,0.928767811519445763
0.221000000000000058,0.216889615222638221
0.222000000000000058,-0.474543758617607558
0.223000000000000059,-1.145181164346407376
0.224000000000000060,-1.794643397602474710
0.225000000000000061,-2.422538555007351935
0.226000000000000062,-3.028476215097296809
0.227000000000000063,-3.612080322608382410
0.228000000000000064,-4.173000696840323265
0.229000000000000065,-4.710923119262770520
0.230000000000000066,-5.225577985778187440
0.231000000000000066,-5.716747535207574060
0.232000000000000067,-6.184271687770769965
0.233000000000000068,-6.628052545804538731
0.234000000000000069,-7.048057623944570693
0.235000000000000070,-7.444321887767782364
0.236000000000000071,-7.816948688736436779
0.237000000000000072,-8.166109689503047164
0.238000000000000073,-8.492043877517369665
0.239000000000000073,-8.795055766712511769
0.240000000000000074,-9.075512887115111837
0.241000000000000075,-9.333842660783693290
0.242000000000000076,-9.570528759777868544
0.243000000000000077,-9.786107038125589241
0.244000000000000078,-9.981161125194029538
0.245000000000000079,-10.156317762669385019
0.246000000000000080,-10.312241961682277136
0.247000000000000081,-10.449632050626963320
0.248000000000000081,-10.569214678045428357
0.249000000000000082,-10.671739828695834262
0.250000000000000111,-10.757975904696197134
0.251000000000000112,-10.828704917509757166
0.252000000000000113,-10.884717830588119369
0.253000000000000114,-10.926810086764467300
0.254000000000000115,-10.955777349039527380
0.255000000000000115,-10.972411478257033224
0.256000000000000116,-10.977496766350798296
0.257000000000000117,-10.971806439376557307
0.258000000000000118,-10.956099440428108238
0.259000000000000119,-10.931117498783004649
0.260000000000000120,-10.897582488225705077
0.261000000000000121,-10.856194074449080134
0.262000000000000122,-10.807627648730239400
0.263000000000000123,-10.752532542699603013
0.264000000000000123,-10.691530516959804942
0.265000000000000124,-10.625214514545188393
0.266000000000000125,-10.554147668727791753
0.267000000000000126,-10.478862553450316142
0.268000000000000127,-10.399860663684828310
0.269000000000000128,-10.317612112255996948
0.270000000000000129,-10.232555529111831305
0.271000000000000130,-10.145098148653797665
0.272000000000000131,-10.055616070534153295
0.273000000000000131,-9.964454679272250814
0.274000000000000132,-9.871929208118473298
0.275000000000000133,-9.778325432786587612
0.276000000000000134,-9.683900480968018698
0.277000000000000135,-9.588883743921122971
0.278000000000000136,-9.493477876880527688
0.279000000000000137,-9.397859875544629205
0.280000000000000138,-9.302182216461879705
0.281000000000000139,-9.206574049737259458
0.282000000000000139,-9.111142433111350414
0.283000000000000140,-9.015973597115717553
0.284000000000000141,-8.921134231672809278
0.285000000000000142,-8.826672785179685121
0.286000000000000143,-8.732620767785670424
0.287000000000000144,-8.638994051239681227
0.288000000000000145,-8.545794158339258928
0.289000000000000146,-8.453009535654715023
0.290000000000000147,-8.360616803826932397
0.291000000000000147,-8.268581980341238591
0.292000000000000148,-8.176861670261937221
0.293000000000000149,-8.085404220969250488
0.294000000000000150,-7.994150837471440063
0.295000000000000151,-7.903036655369673369
0.296000000000000152,-7.811991769028890253
0.297000000000000153,-7.720942212956630968
0.298000000000000154,-7.629810894810757915
0.299000000000000155,-7.538518478848556192
0.300000000000000155,-7.446984218992389160
0.301000000000000156,-7.355126741022313119
0.302000000000000157,-7.262864773713962663
0.303000000000000158,-7.170117829021729783
0.304000000000000159,-7.076806831663186692
0.305000000000000160,-6.982854698691646433
0.306000000000000161,-6.888186869851814720
0.307000000000000162,-6.792731789698040146
0.308000000000000163,-6.696421342617989936
0.309000000000000163,-6.599191242047768746
0.310000000000000164,-6.500981375287760322
0.311000000000000165,-6.401736105433959878
0.312000000000000166,-6.301404532028071159
0.313000000000000167,-6.199940712101811968
0.314000000000000168,-6.097303843348667485
0.315000000000000169,-5.993458411200115243
0.316000000000000170,-5.888374301614614836
0.317000000000000171,-5.782026881407179353
0.318000000000000171,-5.674397047956143858
0.319000000000000172,-5.565471250123041003
0.320000000000000173,-5.455241482211841131
0.321000000000000174,-5.343705252776041803
0.322000000000000175,-5.230865530057689838
0.323000000000000176,-5.116730665811217271
0.324000000000000177,-5.001314299228365456
0.325000000000000178,-4.884635242638998065
0.326000000000000179,-4.766717350617007298
0.327000000000000179,-4.647589374070918211
0.328000000000000180,-4.527284800846389956
0.329000000000000181,-4.405841684313381634
0.330000000000000182,-4.283302461352812784
0.331000000000000183,-4.159713761100110929
0.332000000000000184,-4.035126205742433747
0.333000000000000185,-3.909594204606441359
0.334000000000000186,-3.783175742712368450
0.335000000000000187,-3.655932164909101889
0.336000000000000187,-3.527927956644361984
0.337000000000000188,-3.399230522363395401
0.338000000000000189,-3.269909962470221920
0.339000000000000190,-3.140038849726413339
0.340000000000000191,-3.009692005904519352
0.341000000000000192,-2.878946279457323065
0.342000000000000193,-2.747880324907925775
0.343000000000000194,-2.616574384613076454
0.344000000000000195,-2.485110073499098959
0.345000000000000195,-2.353570167320054196
0.346000000000000196,-2.222038394938605776
0.347000000000000197,-2.090599235083343554
0.348000000000000198,-1.959337717991344263
0.349000000000000199,-1.828339232301218420
0.350000000000000200,-1.697689337521059327
0.351000000000000201,-1.567473582355722428
0.352000000000000202,-1.437777329140793592
0.353000000000000203,-1.308685584594762252
0.354000000000000203,-1.180282837066976231
0.355000000000000204,-1.052652900427323068
0.356000000000000205,-0.925878764713240487
0.357000000000000206,-0.800042453621357397
0.358000000000000207,-0.675224888904457643
0.359000000000000208,-0.551505761709628617
0.360000000000000209,-0.428963410870157102
0.361000000000000210,-0.307674708142092246
0.362000000000000210,-0.187714950356373922
0.363000000000000211,-0.069157758438855771
0.364000000000000212,0.047925016766538132
0.365000000000000213,0.163463381952067111
0.366000000000000214,0.277389282172568197
0.367000000000000215,0.389636675151992296
0.368000000000000216,0.500141599189676933
0.369000000000000217,0.608842234796823645
0.370000000000000218,0.715678960202981274
0.371000000000000218,0.820594400880906627
0.372000000000000219,0.923533473245534475
0.373000000000000220,1.024443422689317318
0.374000000000000221,1.123273856121630221
0.375000000000000222,1.219976769184853094
0.376000000000000223,1.314506568323350333
0.377000000000000224,1.406820087884983028
0.378000000000000225,1.496876602436887804
0.379000000000000226,1.584637834479317942
0.380000000000000226,1.670067957742162434
0.381000000000000227,1.753133596249531578
0.382000000000000228,1.833803819337646912
0.383000000000000229,1.912050132810749092
0.384000000000000230,1.987846466418982772
0.385000000000000231,2.061169157840475386
0.386000000000000232,2.131996933348362155
0.387000000000000233,2.200310885341188794
0.388000000000000234,2.266094446912723548
0.389000000000000234,2.329333363634346288
0.390000000000000235,2.390015662720389678
0.391000000000000236,2.448131619743162624
0.392000000000000237,2.503673723061363265
0.393000000000000238,2.556636636121486728
0.394000000000000239,2.607017157788324546
0.395000000000000240,2.654814180856515549
0.396000000000000241,2.700028648891064087
0.397000000000000242,2.742663511540539112
0.398000000000000242,2.782723678462381223
0.399000000000000243,2.820215971995398530
0.400000000000000244,2.855149078710288002
0.401000000000000245,2.887533499964154871
0.402000000000000246,2.917381501581165271
0.403000000000000247,2.944707062776508621
0.404000000000000248,2.969525824436611394
0.405000000000000249,2.991855036864067952
0.406000000000000250,3.011713507091336339
0.407000000000000250,3.029121545862833553
0.408000000000000251,3.044100914380808653
0.409000000000000252,3.056674770905907224
0.410000000000000253,3.066867617299384730
0.411000000000000254,3.074705245589408609
0.412000000000000255,3.080214684640164347
0.413000000000000256,3.083424146998066995
0.414000000000000257,3.084362975985824207
0.415000000000000258,3.083061593110864695
0.416000000000000258,3.079551445851184344
0.417000000000000259,3.073864955877726235
0.418000000000000260,3.066035467768988720
0.419000000000000261,3.056097198269969173
0.420000000000000262,3.044085186144157795
0.421000000000000263,3.030035242663958961
0.422000000000000264,3.013983902781853352
0.423000000000000265,2.995968377021284823
0.424000000000000266,2.976026504123383543
0.425000000000000266,2.954196704482738856
0.426000000000000267,2.930517934402556701
0.427000000000000268,2.905029641196830603
0.428000000000000269,2.877771719164591513
0.429000000000000270,2.848784466458811337
0.430000000000000271,2.818108542869919297
0.431000000000000272,2.785784928541886085
0.432000000000000273,2.751854883636332794
0.433000000000000274,2.716359908958142722
0.434000000000000274,2.679341707553871466
0.435000000000000275,2.640842147292548070
0.436000000000000276,2.600903224436302175
0.437000000000000277,2.559567028206659600
0.438000000000000278,2.516875706350659492
0.439000000000000279,2.472871431709242618
0.440000000000000280,2.427596369788880715
0.441000000000000281,2.381092647336095158
0.442000000000000282,2.333402321912827482
0.443000000000000282,2.284567352469765833
0.444000000000000283,2.234629570913078123
0.445000000000000284,2.183630654659182380
0.446000000000000285,2.131612100170939605
0.447000000000000286,2.078615197467645892
0.448000000000000287,2.024681005600333261
0.449000000000000288,1.969850329082939000
0.450000000000000289,1.914163695269042620
0.451000000000000290,1.857661332663237630
0.452000000000000290,1.800383150155328238
0.453000000000000291,1.742368717165009739
0.454000000000000292,1.683657244684020338
0.455000000000000293,1.624287567202198135
0.456000000000000294,1.564298125503426951
0.457000000000000295,1.503726950316951250
0.458000000000000296,1.442611646809059511
0.459000000000000297,1.380989379899972169
0.460000000000000298,1.318896860390095238
0.461000000000000298,1.256370331879971713
0.462000000000000299,1.193445558467467027
0.463000000000000300,1.130157813205998618
0.464000000000000301,1.066541867307079450
0.465000000000000302,1.002631980070565199
0.466000000000000303,0.938461889525524895
0.467000000000000304,0.874064803765012721
0.468000000000000305,0.809473392957525739
0.469000000000000306,0.744719782018143039
0.470000000000000306,0.679835543922287955
0.471000000000000307,0.614851693644959840
0.472000000000000308,0.549798682708442898
0.473000000000000309,0.484706394321435308
0.474000000000000310,0.419604139092797257
0.475000000000000311,0.354520651302797474
0.476000000000000312,0.289484085715554063
0.477000000000000313,0.224522014915571333
0.478000000000000314,0.159661427152299390
0.479000000000000314,0.094928724676139192
0.480000000000000315,0.030349722549866721
0.481000000000000316,-0.034050352080577696
0.482000000000000317,-0.098246860271685568
0.483000000000000318,-0.162215751139982350
0.484000000000000319,-0.225933561307018665
0.485000000000000320,-0.289377413946899420
0.486000000000000321,-0.352525017451343070
0.487000000000000322,-0.415354663726937190
0.488000000000000322,-0.477845226139118229
0.489000000000000323,-0.539976157117014077
0.490000000000000324,-0.601727485433266596
0.491000000000000325,-0.663079813172439136
0.492000000000000326,-0.724014312401559446
0.493000000000000327,-0.784512721555955528
0.494000000000000328,-0.844557341553353380
0.495000000000000329,-0.904131031648930383
0.496000000000000330,-0.963217205043670477
0.497000000000000330,-1.021799824258260658
0.498000000000000331,-1.079863396284309829
0.499000000000000332,-1.137392967524470277
0.500000000000000333,-1.194374118532910867
0.501000000000000334,-1.250792958567060964
0.502000000000000335,-1.306636119961481324
0.503000000000000336,-1.361890752334303345
0.504000000000000337,-1.416544516636596196
0.505000000000000338,-1.470585579054482617
0.506000000000000338,-1.524002604773813996
0.507000000000000339,-1.576784751616839397
0.508000000000000340,-1.628921663559987021
0.509000000000000341,-1.680403464141717151
0.510000000000000342,-1.731220749769101008
0.511000000000000343,-1.781364582931538987
0.512000000000000344,-1.830826485329751563
0.513000000000000345,-1.879598430927918340
0.514000000000000346,-1.927672838936732802
0.515000000000000346,-1.975042566734634075
0.516000000000000347,-2.021700902734499206
0.517000000000000348,-2.067641559202696655
0.518000000000000349,-2.112858665037220085
0.519000000000000350,-2.157346758511339058
0.520000000000000351,-2.201100779989092260
0.521000000000000352,-2.244116064618597584
0.522000000000000353,-2.286388335008965988
0.523000000000000353,-2.327913693896558556
0.524000000000000354,-2.368688616805786129
0.525000000000000355,-2.408709944709817474
0.526000000000000356,-2.447974876696048518
0.527000000000000357,-2.486480962641178127
0.528000000000000358,-2.524226095900577782
0.529000000000000359,-2.561208506016125153
0.530000000000000360,-2.597426751446996640
0.531000000000000361,-2.632879712327263366
0.532000000000000361,-2.667566583254299406
0.533000000000000362,-2.701486866111558527
0.534000000000000363,-2.734640362929375179
0.535000000000000364,-2.767027168787081770
0.536000000000000365,-2.798647664759650322
0.537000000000000366,-2.829502510911930724
0.538000000000000367,-2.859592639343349063
0.539000000000000368,-2.888919247285849590
0.540000000000000369,-2.917483790257658249
0.541000000000000369,-2.945287975275336034
0.542000000000000370,-2.972333754126437633
0.543000000000000371,-2.998623316705005148
0.544000000000000372,-3.024159084411919718
0.545000000000000373,-3.048943703622069457
0.546000000000000374,-3.072980039220170490
0.547000000000000375,-3.096271168206892632
0.548000000000000376,-3.118820373376939514
0.549000000000000377,-3.140631137070483803
0.550000000000000377,-3.161707134999425683
0.551000000000000378,-3.182052230149603922
0.552000000000000379,-3.201670466760266898
0.553000000000000380,-3.220566064381752192
0.554000000000000381,-3.238743412012398348
0.555000000000000382,-3.256207062315608969
0.556000000000000383,-3.272961725917732601
0.557000000000000384,-3.289012265787627065
0.558000000000000385,-3.304363691698399386
0.559000000000000385,-3.319021154771945703
0.560000000000000386,-3.332989942106722392
0.561000000000000387,-3.346275471489170261
0.562000000000000388,-3.358883286189069395
0.563000000000000389,-3.370819049839169246
0.564000000000000390,-3.382088541399159709
0.565000000000000391,-3.392697650204233639
0.566000000000000392,-3.402652371098231932
0.567000000000000393,-3.411958799651411134
0.568000000000000393,-3.420623127462758983
0.569000000000000394,-3.428651637546789033
0.570000000000000395,-3.436050699804678032
0.571000000000000396,-3.442826766579448527
0.572000000000000397,-3.448986368295090532
0.573000000000000398,-3.454536109179225711
0.574000000000000399,-3.459482663068997432
0.575000000000000400,-3.463832769299864278
0.576000000000000401,-3.467593228676793871
0.577000000000000401,-3.470770899527508391
0.578000000000000402,-3.473372693837199598
0.579000000000000403,-3.475405573464249276
0.580000000000000404,-3.476876546436400872
0.581000000000000405,-3.477792663326765954
0.582000000000000406,-3.478161013709113014
0.583000000000000407,-3.477988722691699675
0.584000000000000408,-3.477282947529153567
0.585000000000000409,-3.476050874311513272
0.586000000000000409,-3.474299714729878641
0.587000000000000410,-3.472036702917898232
0.588000000000000411,-3.469269092368255425
0.589000000000000412,-3.466004152923564785
0.590000000000000413,-3.462249167840698139
0.591000000000000414,-3.458011430927872887
0.592000000000000415,-3.453298243753665897
0.593000000000000416,-3.448116912927048361
0.594000000000000417,-3.442474747447693773
0.595000000000000417,-3.436379056125680620
0.596000000000000418,-3.429837145069646542
0.597000000000000419,-3.422856315242684300
0.598000000000000420,-3.415443860084903971
0.599000000000000421,-3.407607063201950837
0.600000000000000422,-3.399353196118454434
0.601000000000000423,-3.390689516095557021
0.602000000000000424,-3.381623264011643926
0.603000000000000425,-3.372161662305325880
0.604000000000000425,-3.362311912979733197
0.605000000000000426,-3.352081195667288682
0.606000000000000427,-3.341476665753981390
0.607000000000000428,-3.330505452562196211
0.608000000000000429,-3.319174657591274613
0.609000000000000430,-3.307491352814762031
0.610000000000000431,-3.295462579033554107
0.611000000000000432,-3.283095344283888384
0.612000000000000433,-3.270396622299365674
0.613000000000000433,-3.257373351026051189
0.614000000000000434,-3.244032431189735721
