# AuFCC100-Ablate100_AFUC-AC
# h[nm],U(h)[kJ/mol]
0.200000000000000011,194.877543859333570708
0.201000000000000012,184.052355179764560944
0.202000000000000013,178.525477333054681139
0.203000000000000014,175.366050219375949837
0.204000000000000015,172.924565130070703844
0.205000000000000016,170.365585169452742775
0.206000000000000016,167.348956522137626735
0.207000000000000017,163.817060848092012293
0.208000000000000018,159.856841980459620345
0.209000000000000019,155.613757260915861025
0.210000000000000020,151.241106843963450501
0.211000000000000021,146.872886796235889051
0.212000000000000022,142.611782210893835554
0.213000000000000023,138.526463582217331805
0.214000000000000024,134.654202437894127797
0.215000000000000024,131.006155833074387829
0.216000000000000025,127.573617161134052367
0.217000000000000026,124.334194022956495473
0.218000000000000027,121.257329037375484404
0.219000000000000028,118.308883883814047522
0.220000000000000029,115.454703427166435858
0.221000000000000030,112.663197298934477431
0.222000000000000031,109.907044215240418339
0.223000000000000032,107.164156679623530977
0.224000000000000032,104.418052863537042185
0.225000000000000033,101.657777143841542511
0.226000000000000034,98.877497134739584794
0.227000000000000035,96.075887276899166523
0.228000000000000036,93.255389926559473679
0.229000000000000037,90.421426197906853872
0.230000000000000038,87.581611612198145167
0.231000000000000039,84.745016458535687320
0.232000000000000040,81.921497898320239983
0.233000000000000040,79.121120252235414227
0.234000000000000041,76.353671462348614796
0.235000000000000042,73.628277211937046332
0.236000000000000043,70.953109364278361681
0.237000000000000044,68.335181991504114762
0.238000000000000045,65.780226056238433330
0.239000000000000046,63.292632551318206424
0.240000000000000047,60.875453389977778329
0.241000000000000048,58.530449390902752782
0.242000000000000048,56.258175166918249488
0.243000000000000049,54.058091475926005387
0.244000000000000050,51.928696524840759707
0.245000000000000051,49.867668749536093742
0.246000000000000052,47.872014662448670208
0.247000000000000053,45.938216416384854313
0.248000000000000054,44.062374743287683998
0.249000000000000055,42.240343866101781600
0.250000000000000056,40.467855835013196497
0.251000000000000056,38.740632497757793828
0.252000000000000057,37.054483974258822343
0.253000000000000058,35.405393069504249581
0.254000000000000059,33.789585529173315592
0.255000000000000060,32.203586426011284516
0.256000000000000061,30.644263268582996318
0.257000000000000062,29.108856655836802929
0.258000000000000063,27.594999469208893572
0.259000000000000064,26.100725707106654738
0.260000000000000064,24.624470132563693880
0.261000000000000065,23.165059931253921377
0.262000000000000066,21.721699570907269106
0.263000000000000067,20.293950020891383446
0.264000000000000068,18.881703438031905762
0.265000000000000069,17.485154356700054024
0.266000000000000070,16.104768342205840526
0.267000000000000071,14.741248980365995180
0.268000000000000071,13.395503985968414185
0.269000000000000072,12.068611121372651240
0.270000000000000073,10.761784525837601478
0.271000000000000074,9.476341968078074274
0.272000000000000075,8.213673450358239592
0.273000000000000076,6.975211513140408215
0.274000000000000077,5.762403515627027240
0.275000000000000078,4.576686099932850915
0.276000000000000079,3.419461985355316536
0.277000000000000079,2.292079184357393107
0.278000000000000080,1.195812683389669173
0.279000000000000081,0.131848589379521597
0.280000000000000082,-0.898729293638468762
0.281000000000000083,-1.894950524011239423
0.282000000000000084,-2.855966809811455231
0.283000000000000085,-3.781058636388105132
0.284000000000000086,-4.669639862641602690
0.285000000000000087,-5.521260426677787159
0.286000000000000087,-6.335607310021361016
0.287000000000000088,-7.112503914891350476
0.288000000000000089,-7.851908011551534727
0.289000000000000090,-8.553908412824750229
0.290000000000000091,-9.218720530847756223
0.291000000000000092,-9.846680967379084493
0.292000000000000093,-10.438241283749558619
0.293000000000000094,-10.993961090148282267
0.294000000000000095,-11.514500586611820410
0.295000000000000095,-12.000612680060331883
0.296000000000000096,-12.453134793198508135
0.297000000000000097,-12.872980472252933737
0.298000000000000098,-13.261130891501974105
0.299000000000000099,-13.618626343507367338
0.300000000000000100,-13.946557794989209000
0.301000000000000101,-14.246058579498447116
0.302000000000000102,-14.518296289509587282
0.303000000000000103,-14.764464922351260512
0.304000000000000103,-14.985777326559102107
0.305000000000000104,-15.183457987820784041
0.306000000000000105,-15.358736186710768123
0.307000000000000106,-15.512839553904246515
0.308000000000000107,-15.646988042528159113
0.309000000000000108,-15.762388331754010551
0.310000000000000109,-15.860228670663776285
0.311000000000000110,-15.941674166815735347
0.312000000000000111,-16.007862519795569511
0.313000000000000111,-16.059900196338936951
0.314000000000000112,-16.098859040342667015
0.315000000000000113,-16.125773308219113034
0.316000000000000114,-16.141637117573697680
0.317000000000000115,-16.147402295073600698
0.318000000000000116,-16.143976607605576845
0.319000000000000117,-16.132222359367052178
0.320000000000000118,-16.112955336374174209
0.321000000000000119,-16.086944078979708905
0.322000000000000119,-16.054909462348984306
0.323000000000000120,-16.017524564420913435
0.324000000000000121,-15.975414800662452564
0.325000000000000122,-15.929158304886366082
0.326000000000000123,-15.879286535524661517
0.327000000000000124,-15.826285087014161590
0.328000000000000125,-15.770594686339808987
0.329000000000000126,-15.712612355275386022
0.330000000000000127,-15.652692719448555891
0.331000000000000127,-15.591149446020756031
0.332000000000000128,-15.528256792498476457
0.333000000000000129,-15.464251249970590862
0.334000000000000130,-15.399333264883093619
0.335000000000000131,-15.333669024309610762
0.336000000000000132,-15.267392290541380362
0.337000000000000133,-15.200606271699200533
0.338000000000000134,-15.133385515950886102
0.339000000000000135,-15.065777817797348703
0.340000000000000135,-14.997806125761007578
0.341000000000000136,-14.929470441666699898
0.342000000000000137,-14.860749702544907791
0.343000000000000138,-14.791603637003110094
0.344000000000000139,-14.721974588703332643
0.345000000000000140,-14.651789300348093903
0.346000000000000141,-14.580960652310182013
0.347000000000000142,-14.509389350744603675
0.348000000000000143,-14.436965560690282473
0.349000000000000143,-14.363570480303874177
0.350000000000000144,-14.289077852969771953
0.351000000000000145,-14.213355414595564952
0.352000000000000146,-14.136266273934083415
0.353000000000000147,-14.057670224269212866
0.354000000000000148,-13.977424985265468393
0.355000000000000149,-13.895387374209651199
0.356000000000000150,-13.811414406269033606
0.357000000000000151,-13.725364323754297047
0.358000000000000151,-13.637097554708185854
0.359000000000000152,-13.546477601443701388
0.360000000000000153,-13.453371859930076226
0.361000000000000154,-13.357652371170658512
0.362000000000000155,-13.259196505937504540
0.363000000000000156,-13.157887584422283567
0.364000000000000157,-13.053615432534039442
0.365000000000000158,-12.946276876723953109
0.366000000000000159,-12.835776179343863390
0.367000000000000159,-12.722025416653357510
0.368000000000000160,-12.604944801679645039
0.369000000000000161,-12.484462954205113761
0.370000000000000162,-12.360517120213661002
0.371000000000000163,-12.233053343167238580
0.372000000000000164,-12.102026589509936372
0.373000000000000165,-11.967400830811856238
0.374000000000000166,-11.829149084966330108
0.375000000000000167,-11.687253418845866548
0.376000000000000167,-11.541704914804380877
0.377000000000000168,-11.392503603385936373
0.378000000000000169,-11.239658364565725535
0.379000000000000170,-11.083186799807874579
0.380000000000000171,-10.923115077175729937
0.381000000000000172,-10.759477751678197421
0.382000000000000173,-10.592317562976734990
0.383000000000000174,-10.421685212516248242
0.384000000000000175,-10.247639122077091045
0.385000000000000175,-10.070245175677323246
0.386000000000000176,-9.889576446683637556
0.387000000000000177,-9.705712911916535290
0.388000000000000178,-9.518741154462080800
0.389000000000000179,-9.328754056826911167
0.390000000000000180,-9.135850485998611603
0.391000000000000181,-8.940134971897245819
0.392000000000000182,-8.741717380629165035
0.393000000000000183,-8.540712583878342201
0.394000000000000183,-8.337240125696940396
0.395000000000000184,-8.131423887882998969
0.396000000000000185,-7.923391755060744224
0.397000000000000186,-7.713275280508694820
0.398000000000000187,-7.501209353710635241
0.399000000000000188,-7.287331870537103740
0.400000000000000189,-7.071783406899157853
0.401000000000000190,-6.854706896651462600
0.402000000000000191,-6.636247314460527846
0.403000000000000191,-6.416551364292672588
0.404000000000000192,-6.195767174119202636
0.405000000000000193,-5.974043997379786752
0.406000000000000194,-5.751531921691569238
0.407000000000000195,-5.528381585240130569
0.408000000000000196,-5.304743901238682113
0.409000000000000197,-5.080769790795164553
0.410000000000000198,-4.856609924482037322
0.411000000000000199,-4.632414472860408416
0.412000000000000199,-4.408332866170000308
0.413000000000000200,-4.184513563357979749
0.414000000000000201,-3.961103830583246665
0.415000000000000202,-3.738249529298358631
0.416000000000000203,-3.516094913979759262
0.417000000000000204,-3.294782439545524966
0.418000000000000205,-3.074452578472794073
0.419000000000000206,-2.855243647599754464
0.420000000000000207,-2.637291644572360205
0.421000000000000207,-2.420730093873960875
0.422000000000000208,-2.205689902353442200
0.423000000000000209,-1.992299224149351122
0.424000000000000210,-1.780683334888398361
0.425000000000000211,-1.570964515020831120
0.426000000000000212,-1.363261942140111094
0.427000000000000213,-1.157691592120462909
0.428000000000000214,-0.954366148894046695
0.429000000000000214,-0.753394922677934731
0.430000000000000215,-0.554883776451710831
0.431000000000000216,-0.358935060477973855
0.432000000000000217,-0.165647554649869189
0.433000000000000218,0.024883581555990197
0.434000000000000219,0.212566851748750812
0.435000000000000220,0.397314458146725780
0.436000000000000221,0.579042330190721932
0.437000000000000222,0.757670146485898366
0.438000000000000222,0.933121350312761444
0.439000000000000223,1.105323158949367945
0.440000000000000224,1.274206567047552863
0.441000000000000225,1.439706344306021624
0.442000000000000226,1.601761027682219618
0.443000000000000227,1.760312908384663144
0.444000000000000228,1.915308013884885030
0.445000000000000229,2.066696085186768617
0.446000000000000230,2.214430549588148889
0.447000000000000230,2.358468489166936077
0.448000000000000231,2.498770605220566488
0.449000000000000232,2.635301178884196904
0.450000000000000233,2.768028028149003283
0.451000000000000234,2.896922461497983825
0.452000000000000235,3.021959228372116169
0.453000000000000236,3.143116466675428988
0.454000000000000237,3.260375647522244513
0.455000000000000238,3.373721517425617211
0.456000000000000238,3.483142038120210060
0.457000000000000239,3.588628324208348097
0.458000000000000240,3.690174578811938666
0.459000000000000241,3.787778027408460702
0.460000000000000242,3.881438850022879361
0.461000000000000243,3.971160111942698023
0.462000000000000244,4.056947693117147757
0.463000000000000245,4.138810216396704433
0.464000000000000246,4.216758974762892187
0.465000000000000246,4.290807857693354599
0.466000000000000247,4.360973276801494158
0.467000000000000248,4.427274090884576019
0.468000000000000249,4.489731530508672463
0.469000000000000250,4.548369122253690833
0.470000000000000251,4.603212612736220066
0.471000000000000252,4.654289892522994521
0.472000000000000253,4.701630920042162209
0.473000000000000254,4.745267645595094841
0.474000000000000254,4.785233935565990748
0.475000000000000255,4.821565496921875749
0.476000000000000256,4.854299802090909388
0.477000000000000257,4.883476014301914248
0.478000000000000258,4.909134913463816474
0.479000000000000259,4.931318822659042311
0.480000000000000260,4.950071535320489602
0.481000000000000261,4.965438243157715981
0.482000000000000262,4.977465464893407798
0.483000000000000262,4.986200975867761009
0.484000000000000263,4.991693738563897753
0.485000000000000264,4.993993834104212048
0.486000000000000265,4.993152394763314739
0.487000000000000266,4.989221537540244000
0.488000000000000267,4.982254298828826755
0.489000000000000268,4.972304570221711906
0.490000000000000269,4.959427035480808321
0.491000000000000270,4.943677108703171008
0.492000000000000270,4.925110873709033221
0.493000000000000271,4.903785024675223703
0.494000000000000272,4.879756808035045523
0.495000000000000273,4.853083965662427168
0.496000000000000274,4.823824679356226497
0.497000000000000275,4.792037516637776662
0.498000000000000276,4.757781377872357886
0.499000000000000277,4.721115444723573695
0.500000000000000222,4.682099129946742266
0.501000000000000334,4.640792028526172786
0.502000000000000224,4.597253870158587219
0.503000000000000336,4.551544473083596998
0.504000000000000226,4.503723699260206104
0.505000000000000338,4.453851410886586315
0.506000000000000227,4.401987428259037216
0.507000000000000339,4.348191488964284090
0.508000000000000229,4.292523208398260515
0.509000000000000341,4.235042041602556040
0.510000000000000231,4.175807246409362072
0.511000000000000343,4.114877847883652962
0.512000000000000233,4.052312604051121703
0.513000000000000345,3.988169972898505389
0.514000000000000234,3.922508080632817862
0.515000000000000346,3.855384691184407409
0.516000000000000236,3.786857176938609459
0.517000000000000348,3.716982490679156648
0.518000000000000238,3.645817138726943796
0.519000000000000350,3.573417155255735445
0.520000000000000240,3.499838077767273514
0.521000000000000352,3.425134923706296242
0.522000000000000242,3.349362168196829082
0.523000000000000353,3.272573722879291491
0.524000000000000243,3.194822915829086174
0.525000000000000355,3.116162472535477512
0.526000000000000245,3.036644497920617969
0.527000000000000357,2.956320459377108190
0.528000000000000247,2.875241170803418900
0.529000000000000359,2.793456777615255238
0.530000000000000249,2.711016742711635619
0.531000000000000361,2.627969833373704489
0.532000000000000250,2.544364109074848557
0.533000000000000362,2.460246910179780144
0.534000000000000252,2.375664847511489874
0.535000000000000364,2.290663792763214968
0.536000000000000254,2.205288869734753465
0.537000000000000366,2.119584446370279984
0.538000000000000256,2.033594127576900945
0.539000000000000368,1.947360748801622021
0.540000000000000258,1.860926370345952208
0.541000000000000369,1.774332272396101473
0.542000000000000259,1.687618950748456470
0.543000000000000371,1.600826113208536183
0.544000000000000261,1.513992676643252766
0.545000000000000373,1.427156764665530542
0.546000000000000263,1.340355705931295605
0.547000000000000375,1.253626033028104381
0.548000000000000265,1.167003481936422116
0.549000000000000377,1.080522992042937558
0.550000000000000266,0.994218706687524767
0.551000000000000378,0.908123974223934427
0.552000000000000268,0.822271349576113586
0.553000000000000380,0.736692596271121269
0.554000000000000270,0.651418688930894163
0.555000000000000382,0.566479816204533138
0.556000000000000272,0.481905384123947289
0.557000000000000384,0.397724019865274836
0.558000000000000274,0.313963575899287028
0.559000000000000385,0.230651134514086753
0.560000000000000275,0.147813012693904178
0.561000000000000387,0.065474767337784387
0.562000000000000277,-0.016338799197053409
0.563000000000000389,-0.097603633243063717
0.564000000000000279,-0.178296423675815024
0.565000000000000391,-0.258394595488209144
0.566000000000000281,-0.337876303099253317
0.567000000000000393,-0.416720423411927665
0.568000000000000282,-0.494906548633236743
0.569000000000000394,-0.572414978870337432
0.570000000000000284,-0.649226714515016790
0.571000000000000396,-0.725323448430049367
0.572000000000000286,-0.800687557948920103
0.573000000000000398,-0.875302096701554788
0.574000000000000288,-0.949150786277290992
0.575000000000000400,-1.022218007736919620
0.576000000000000290,-1.094488792984264380
0.577000000000000401,-1.165948816008714584
0.578000000000000291,-1.236584384008525772
0.579000000000000403,-1.306382428405477025
0.580000000000000293,-1.375330495760323846
0.581000000000000405,-1.443416738599080373
0.582000000000000295,-1.510629906158647895
0.583000000000000407,-1.576959335061583589
0.584000000000000297,-1.642394939927790620
0.585000000000000409,-1.706927203932371739
0.586000000000000298,-1.770547169316896596
0.587000000000000410,-1.833246427862731620
0.588000000000000300,-1.895017111333224591
0.589000000000000412,-1.955851881892733957
0.590000000000000302,-2.015743922508921759
0.591000000000000414,-2.074686927345662735
0.592000000000000304,-2.132675092152595653
0.593000000000000416,-2.189703104658004662
0.594000000000000306,-2.245766134970812011
0.595000000000000417,-2.300859825997742192
0.596000000000000307,-2.354980283880908409
0.597000000000000419,-2.408124068461586553
0.598000000000000309,-2.460288183775046544
0.599000000000000421,-2.511470068581374004
0.600000000000000311,-2.561667586937139252
0.601000000000000423,-2.610879018812419350
0.602000000000000313,-2.659103050757182451
0.603000000000000425,-2.706338766621703584
0.604000000000000314,-2.752585638334296370
0.605000000000000426,-2.797843516740693648
0.606000000000000316,-2.842112622508124797
0.607000000000000428,-2.885393537097842298
0.608000000000000318,-2.927687193809084487
0.609000000000000430,-2.968994868897643524
0.610000000000000320,-3.009318172771720867
0.611000000000000432,-3.048659041268097614
0.612000000000000322,-3.087019727010777537
0.613000000000000433,-3.124402790854886369
0.614000000000000323,-3.160811093417831508
0.615000000000000435,-3.196247786700010085
0.616000000000000325,-3.230716305796809795
0.617000000000000437,-3.264220360704118029
0.618000000000000327,-3.296763928218655160
0.619000000000000439,-3.328351243935012693
0.620000000000000329,-3.358986794340713011
0.621000000000000441,-3.388675309010702019
0.622000000000000330,-3.417421752902471077
0.623000000000000442,-3.445231318753028571
0.624000000000000332,-3.472109419578494283
0.625000000000000444,-3.498061681277606194
0.626000000000000334,-3.523093935339562055
0.627000000000000446,-3.547212211657197578
0.628000000000000336,-3.570422731445960007
0.629000000000000448,-3.592731900269323653
0.630000000000000338,-3.614146301170906295
0.631000000000000449,-3.634672687913941047
0.632000000000000339,-3.654317978328078365
0.633000000000000451,-3.673089247763923648
0.634000000000000341,-3.690993722655289133
0.635000000000000453,-3.708038774189468256
0.636000000000000343,-3.724231912085087970
0.637000000000000455,-3.739580778477987533
0.638000000000000345,-3.754093141914467857
0.639000000000000457,-3.767776891452118804
0.640000000000000346,-3.780640030867667978
0.641000000000000458,-3.792690672971742227
0.642000000000000348,-3.803937034029989839
0.643000000000000460,-3.814387428290292092
0.644000000000000350,-3.824050262615473095
0.645000000000000462,-3.832934031221067350
0.646000000000000352,-3.841047310517501590
0.647000000000000464,-3.848398754056197024
0.648000000000000353,-3.854997087578810433
0.649000000000000465,-3.860851104169028325
0.650000000000000355,-3.865969659506144573
0.651000000000000467,-3.870361667219653246
0.652000000000000357,-3.874036094344164294
0.653000000000000469,-3.877001956873610489
0.654000000000000359,-3.879268315414178936
0.655000000000000471,-3.880844270934843188
0.656000000000000361,-3.881738960614713019
0.657000000000000473,-3.881961553786260399
0.658000000000000362,-3.881521247973465982
0.659000000000000474,-3.880427265023904226
0.660000000000000364,-3.878688847333772394
0.661000000000000476,-3.876315254164892643
0.662000000000000366,-3.873315758052623181
0.663000000000000478,-3.869699641303628646
