# AuFCC100-Ablate100_CS-693-AC
# h[nm],U(h)[kJ/mol]
0.200000000000000011,117.078845214734130309
0.201000000000000012,110.885019743912266676
0.202000000000000013,107.017382112351626233
0.203000000000000014,104.159578920160384996
0.204000000000000015,101.606944206971505196
0.205000000000000016,99.028425900652607083
0.206000000000000016,96.308954828894911770
0.207000000000000017,93.447954963104237436
0.208000000000000018,90.496414898227939716
0.209000000000000019,87.519927133468200964
0.210000000000000020,84.578777757770282619
0.211000000000000021,81.718859392803267383
0.212000000000000022,78.969132530855219443
0.213000000000000023,76.342763241450342093
0.214000000000000024,73.840061487489862202
0.215000000000000024,71.452041839949984592
0.216000000000000025,69.163908248424704084
0.217000000000000026,66.958087291909620831
0.218000000000000027,64.816645019083253487
0.219000000000000028,62.723054320447531040
0.220000000000000029,60.663357093475291038
0.221000000000000030,58.626805927364458171
0.222000000000000031,56.606086322204987482
0.223000000000000032,54.597221545899607520
0.224000000000000032,52.599254374519887278
0.225000000000000033,50.613787422104294933
0.226000000000000034,48.644449370434593050
0.227000000000000035,46.696339957607492011
0.228000000000000036,44.775493153868389129
0.229000000000000037,42.888386123966185437
0.230000000000000038,41.041511592357458937
0.231000000000000039,39.241023119032135469
0.232000000000000040,37.492456454147237821
0.233000000000000040,35.800525388523112724
0.234000000000000041,34.168987138589784536
0.235000000000000042,32.600570073949661776
0.236000000000000043,31.096955296629118948
0.237000000000000044,29.658803014441964763
0.238000000000000045,28.285814640784700202
0.239000000000000046,26.976821948672881746
0.240000000000000047,25.729895281736002488
0.241000000000000048,24.542463676365269265
0.242000000000000048,23.411440695524866840
0.243000000000000049,22.333350752717148424
0.244000000000000050,21.304451666992523684
0.245000000000000051,20.320850102796534031
0.246000000000000052,19.378607388918492660
0.247000000000000053,18.473833964709438504
0.248000000000000054,17.602771361876662581
0.249000000000000055,16.761861194649295470
0.250000000000000056,15.947801101997464812
0.251000000000000056,15.157587967751615210
0.252000000000000057,14.388549044670389421
0.253000000000000058,13.638361834676299367
0.254000000000000059,12.905063738125104322
0.255000000000000060,12.187052588761362770
0.256000000000000061,11.483079246412168928
0.257000000000000062,10.792233434553855531
0.258000000000000063,10.113923992142449748
0.259000000000000064,9.447854665356604897
0.260000000000000064,8.793996501264922827
0.261000000000000065,8.152557827270815238
0.262000000000000066,7.523952712151159794
0.263000000000000067,6.908768710550989844
0.264000000000000068,6.307734596227027701
0.265000000000000069,5.721688692864123738
0.266000000000000070,5.151548317094431617
0.267000000000000071,4.598280758122937684
0.268000000000000071,4.062876133383385380
0.269000000000000072,3.546322380822993559
0.270000000000000073,3.049582576346203666
0.271000000000000074,2.573574699975384128
0.272000000000000075,2.119153916531564263
0.273000000000000076,1.687097386052219150
0.274000000000000077,1.278091575549720860
0.275000000000000078,0.892722006777725952
0.276000000000000079,0.531465344031263442
0.277000000000000079,0.194683701223464262
0.278000000000000080,-0.117378971913909336
0.279000000000000081,-0.404598579163971572
0.280000000000000082,-0.666970807461862214
0.281000000000000083,-0.904609467820266078
0.282000000000000084,-1.117743421328489584
0.283000000000000085,-1.306712263858055945
0.284000000000000086,-1.471960940439490217
0.285000000000000087,-1.614033455499853442
0.286000000000000087,-1.733565838645505508
0.287000000000000088,-1.831278517785247528
0.288000000000000089,-1.907968242428119909
0.289000000000000090,-1.964499690239110974
0.290000000000000091,-2.001796879642387061
0.291000000000000092,-2.020834500646619514
0.292000000000000093,-2.022629265318279579
0.293000000000000094,-2.008231368612027889
0.294000000000000095,-1.978716139718963429
0.295000000000000095,-1.935175953829678885
0.296000000000000096,-1.878712464323740949
0.297000000000000097,-1.810429205965216282
0.298000000000000098,-1.731424610762940075
0.299000000000000099,-1.642785469788149655
0.300000000000000100,-1.545580866458680314
0.301000000000000101,-1.440856599616551659
0.302000000000000102,-1.329630108152526802
0.303000000000000103,-1.212885902964110807
0.304000000000000103,-1.091571506665489188
0.305000000000000104,-0.966593896683879628
0.306000000000000105,-0.838816443157025526
0.307000000000000106,-0.709056329366944738
0.308000000000000107,-0.578082439280405036
0.309000000000000108,-0.446613694086109070
0.310000000000000109,-0.315317817392816502
0.311000000000000110,-0.184810506950010917
0.312000000000000111,-0.055654989340334103
0.313000000000000111,0.071638066960087926
0.314000000000000112,0.196610305483359837
0.315000000000000113,0.318855128394149923
0.316000000000000114,0.438016861760814169
0.317000000000000115,0.553789665325199243
0.318000000000000116,0.665916212340904812
0.319000000000000117,0.774186164584492520
0.320000000000000118,0.878434467021086740
0.321000000000000119,0.978539485847390034
0.322000000000000119,1.074421012763111749
0.323000000000000120,1.166038157356906080
0.324000000000000121,1.253387148452483446
0.325000000000000122,1.336499064162231409
0.326000000000000123,1.415437509254741544
0.327000000000000124,1.490296257272857083
0.328000000000000125,1.561196873652104911
0.329000000000000126,1.628286334898465526
0.330000000000000127,1.691734657697408606
0.331000000000000127,1.751732550652381537
0.332000000000000128,1.808489100198716004
0.333000000000000129,1.862229501113343177
0.334000000000000130,1.913192840948536144
0.335000000000000131,1.961629946662736046
0.336000000000000132,2.007801300708252690
0.337000000000000133,2.051975032865962500
0.338000000000000134,2.094424993194991202
0.339000000000000135,2.135428910590513318
0.340000000000000135,2.175266640618740865
0.341000000000000136,2.214218505523272817
0.342000000000000137,2.252563728573106605
0.343000000000000138,2.290578964248791927
0.344000000000000139,2.328536925139141012
0.345000000000000140,2.366705105845584800
0.346000000000000141,2.405344603664127945
0.347000000000000142,2.444709035333890057
0.348000000000000143,2.485043548705298200
0.349000000000000143,2.526583927788951911
0.350000000000000144,2.569555789295058013
0.351000000000000145,2.614173868462727146
0.352000000000000146,2.660641391705271364
0.353000000000000147,2.709149533360718287
0.354000000000000148,2.759876953633478625
0.355000000000000149,2.812989414642272923
0.356000000000000150,2.868639471348004566
0.357000000000000151,2.926966234022263524
0.358000000000000151,2.988095198830047483
0.359000000000000152,3.052138143037287588
0.360000000000000153,3.119193081313127891
0.361000000000000154,3.189344279576658447
0.362000000000000155,3.262662322836463513
0.363000000000000156,3.339204233486791740
0.364000000000000157,3.419013636555402691
0.365000000000000158,3.502120968442802962
0.366000000000000159,3.588543725750217739
0.367000000000000159,3.678286750862046262
0.368000000000000160,3.771342551026400258
0.369000000000000161,3.867691647764421869
0.370000000000000162,3.967302953532714671
0.371000000000000163,4.070134172663307126
0.372000000000000164,4.176132223711415570
0.373000000000000165,4.285233680450222238
0.374000000000000166,4.397365228865497855
0.375000000000000167,4.512444137617967144
0.376000000000000167,4.630378739558874024
0.377000000000000168,4.751068922002585460
0.378000000000000169,4.874406623578980913
0.379000000000000170,5.000276335607034994
0.380000000000000171,5.128555606049526538
0.381000000000000172,5.259115544225460681
0.382000000000000173,5.391821324572751983
0.383000000000000174,5.526532687867150351
0.384000000000000175,5.663104438415095032
0.385000000000000175,5.801386935846870152
0.386000000000000176,5.941226580243032629
0.387000000000000177,6.082466289429969031
0.388000000000000178,6.224945967380721257
0.389000000000000179,6.368502962754002183
0.390000000000000180,6.512972516697473679
0.391000000000000181,6.658188199131539697
0.392000000000000182,6.803982332815513345
0.393000000000000183,6.950186404581316424
0.394000000000000183,7.096631463198045608
0.395000000000000184,7.243148503406206196
0.396000000000000185,7.389568835732040597
0.397000000000000186,7.535724441759699133
0.398000000000000187,7.681448314603523286
0.399000000000000188,7.826574784383270256
0.400000000000000189,7.970939828561642848
0.401000000000000190,8.114381367057816874
0.402000000000000191,8.256739542099804652
0.403000000000000191,8.397856982826276351
0.404000000000000192,8.537579054691333269
0.405000000000000193,8.675754093766464337
0.406000000000000194,8.812233626071378723
0.407000000000000195,8.946872572099625387
0.408000000000000196,9.079529436736800463
0.409000000000000197,9.210066484797909681
0.410000000000000198,9.338349902436664962
0.411000000000000199,9.464249944703423623
0.412000000000000199,9.587641069549793116
0.413000000000000200,9.708402058596773188
0.414000000000000201,9.826416125000502433
0.415000000000000202,9.941571008764338302
0.416000000000000203,10.053759059858567326
0.417000000000000204,10.162877309520535363
0.418000000000000205,10.268827530116537261
0.419000000000000206,10.371516283954733240
0.420000000000000207,10.470854961444278075
0.421000000000000207,10.566759808999865555
0.422000000000000208,10.659151947094676061
0.423000000000000209,10.747957378865793387
0.424000000000000210,10.833106989677206755
0.425000000000000211,10.914536538044774971
0.426000000000000212,10.992186638325932790
0.427000000000000213,11.066002735574471671
0.428000000000000214,11.135935072957147796
0.429000000000000214,11.201938652124809437
0.430000000000000215,11.263973186925621661
0.431000000000000216,11.322003050842196714
0.432000000000000217,11.375997218528500099
0.433000000000000218,11.425929201815174352
0.434000000000000219,11.471776980544843738
0.435000000000000220,11.513522928591083172
0.436000000000000221,11.551153735406611389
0.437000000000000222,11.584660323437773854
0.438000000000000222,11.614037761733536414
0.439000000000000223,11.639285176068089100
0.440000000000000224,11.660405655887233323
0.441000000000000225,11.677406158378840217
0.442000000000000226,11.690297409958343877
0.443000000000000227,11.699093805450658579
0.444000000000000228,11.703813305239943787
0.445000000000000229,11.704477330649043054
0.446000000000000230,11.701110657800416703
0.447000000000000230,11.693741310201080097
0.448000000000000231,11.682400450283637383
0.449000000000000232,11.667122270126373706
0.450000000000000233,11.647943881565691271
0.451000000000000234,11.624905205904237704
0.452000000000000235,11.598048863409342601
0.453000000000000236,11.567420062786590407
0.454000000000000237,11.533066490804436910
0.455000000000000238,11.495038202236887770
0.456000000000000238,11.453387510282249551
0.457000000000000239,11.408168877607582914
0.458000000000000240,11.359438808159868728
0.459000000000000241,11.307255739876648448
0.460000000000000242,11.251679938421002447
0.461000000000000243,11.192773392057778992
0.462000000000000244,11.130599707780293173
0.463000000000000245,11.065224008789426691
0.464000000000000246,10.996712833419788780
0.465000000000000246,10.925134035600555293
0.466000000000000247,10.850556686931911443
0.467000000000000248,10.773050980451431613
0.468000000000000249,10.692688136158503553
0.469000000000000250,10.609540308358495153
0.470000000000000251,10.523680494882944103
0.471000000000000252,10.435182448235931219
0.472000000000000253,10.344120588711565034
0.473000000000000254,10.250569919522325435
0.474000000000000254,10.154605943972825344
0.475000000000000255,10.056304584708765759
0.476000000000000256,9.955742105066423875
0.477000000000000257,9.852995032543381271
0.478000000000000258,9.748140084407006967
0.479000000000000259,9.641254095453566819
0.480000000000000260,9.532413947926416498
0.481000000000000261,9.421696503598600003
0.482000000000000262,9.309178538021484428
0.483000000000000262,9.194936676937974340
0.484000000000000263,9.079047334855470552
0.485000000000000264,8.961586655771215604
0.486000000000000265,8.842630456039490383
0.487000000000000266,8.722254169367923637
0.488000000000000267,8.600532793927509800
0.489000000000000268,8.477540841558633744
0.490000000000000269,8.353352289053466606
0.491000000000000270,8.228040531492892384
0.492000000000000270,8.101678337614393044
0.493000000000000271,7.974337807185517768
0.494000000000000272,7.846090330356209286
0.495000000000000273,7.717006548961167667
0.496000000000000274,7.587156319743087352
0.497000000000000275,7.456608679465387191
0.498000000000000276,7.325431811882398669
0.499000000000000277,7.193693016534166595
0.500000000000000222,7.061458679331407140
0.501000000000000334,6.928794244896222310
0.502000000000000224,6.795764190622763934
0.503000000000000336,6.662432002421543764
0.504000000000000226,6.528860152111100490
0.505000000000000338,6.395110076419074474
0.506000000000000227,6.261242157555976462
0.507000000000000339,6.127315705322768480
0.508000000000000229,5.993388940715070667
0.509000000000000341,5.859518980984603331
0.510000000000000231,5.725761826120486120
0.511000000000000343,5.592172346710778008
0.512000000000000233,5.458804273146784958
0.513000000000000345,5.325710186130645951
0.514000000000000234,5.192941508448827292
0.515000000000000346,5.060548497972291671
0.516000000000000236,4.928580241846383103
0.517000000000000348,4.797084651831559299
0.518000000000000238,4.666108460758533916
0.519000000000000350,4.535697220059561552
0.520000000000000240,4.405895298340102073
0.521000000000000352,4.276745880953375156
0.522000000000000242,4.148290970542715783
0.523000000000000353,4.020571388515103095
0.524000000000000243,3.893626777411760997
0.525000000000000355,3.767495604140165710
0.526000000000000245,3.642215164034188213
0.527000000000000357,3.517821585707845422
0.528000000000000247,3.394349836670472520
0.529000000000000359,3.271833729669921809
0.530000000000000249,3.150305929732529542
0.531000000000000361,3.029797961867880751
0.532000000000000250,2.910340219408181994
0.533000000000000362,2.791961972951310766
0.534000000000000252,2.674691379878982644
0.535000000000000364,2.558555494419832321
0.536000000000000254,2.443580278230475411
0.537000000000000366,2.329790611465544448
0.538000000000000256,2.217210304310786029
0.539000000000000368,2.105862108951844114
0.540000000000000258,1.995767731953850710
0.541000000000000369,1.886947847025727043
0.542000000000000259,1.779422108145767067
0.543000000000000371,1.673209163023627211
0.544000000000000261,1.568326666876254993
0.545000000000000373,1.464791296494696082
0.546000000000000263,1.362618764580252773
0.547000000000000375,1.261823834328009708
0.548000000000000265,1.162420334237930231
0.549000000000000377,1.064421173132407805
0.550000000000000266,0.967838355361740676
0.551000000000000378,0.872682996177844617
0.552000000000000268,0.778965337258565427
0.553000000000000380,0.686694762364360667
0.554000000000000270,0.595879813110749779
0.555000000000000382,0.506528204839460150
0.556000000000000272,0.418646842572829248
0.557000000000000384,0.332241837035616050
0.558000000000000274,0.247318520729666258
0.559000000000000385,0.163881464046866515
0.560000000000000275,0.081934491406873117
0.561000000000000387,0.001480697405999540
0.562000000000000277,-0.077477537035054528
0.563000000000000389,-0.154938528537395537
0.564000000000000279,-0.230901275155265762
0.565000000000000391,-0.305365440304311897
0.566000000000000281,-0.378331336737080914
0.567000000000000393,-0.449799910576580142
0.568000000000000282,-0.519772725417289139
0.569000000000000394,-0.588251946503586809
0.570000000000000284,-0.655240324993972889
0.571000000000000396,-0.720741182320388307
0.572000000000000286,-0.784758394650106106
0.573000000000000398,-0.847296377458508609
0.574000000000000288,-0.908360070219702331
0.575000000000000400,-0.967954921222334952
0.576000000000000290,-1.026086872516817960
0.577000000000000401,-1.082762345000669146
0.578000000000000291,-1.137988223647393049
0.579000000000000403,-1.191771842884885357
0.580000000000000293,-1.244120972128184732
0.581000000000000405,-1.295043801471874367
0.582000000000000295,-1.344548927546240558
0.583000000000000407,-1.392645339541985106
0.584000000000000297,-1.439342405406896619
0.585000000000000409,-1.484649858218734408
0.586000000000000298,-1.528577782737208235
0.587000000000000410,-1.571136602138633265
0.588000000000000300,-1.612337064935738695
0.589000000000000412,-1.652190232085626764
0.590000000000000302,-1.690707464287893869
0.591000000000000414,-1.727900409475358945
0.592000000000000304,-1.763780990499099754
0.593000000000000416,-1.798361393009577869
0.594000000000000306,-1.831654053535275439
0.595000000000000417,-1.863671647760236194
0.596000000000000307,-1.894427079001362202
0.597000000000000419,-1.923933466886569077
0.598000000000000309,-1.952204136234380938
0.599000000000000421,-1.979252606135478487
0.600000000000000311,-2.005092579236621653
0.601000000000000423,-2.029737931227116654
0.602000000000000313,-2.053202700527729796
0.603000000000000425,-2.075501078182244274
0.604000000000000314,-2.096647397950989422
0.605000000000000426,-2.116656126606343058
0.606000000000000316,-2.135541854429374276
0.607000000000000428,-2.153319285907152825
0.608000000000000318,-2.170003230629923063
0.609000000000000430,-2.185608594387187686
0.610000000000000320,-2.200150370461781080
0.611000000000000432,-2.213643631120805200
0.612000000000000322,-2.226103519302239597
0.613000000000000433,-2.237545240495916410
0.614000000000000323,-2.247984054817540933
0.615000000000000435,-2.257435269274235878
0.616000000000000325,-2.265914230220044345
0.617000000000000437,-2.273436315999935342
0.618000000000000327,-2.280016929780404489
0.619000000000000439,-2.285671492565091167
0.620000000000000329,-2.290415436393533177
0.621000000000000441,-2.294264197721168852
0.622000000000000330,-2.297233210978708140
0.623000000000000442,-2.299337902308882242
0.624000000000000332,-2.300593683478486362
0.625000000000000444,-2.301015945963761133
0.626000000000000334,-2.300620055206919368
0.627000000000000446,-2.299421345041674947
0.628000000000000336,-2.297435112285654668
0.629000000000000448,-2.294676611497435736
0.630000000000000338,-2.291161049895943158
0.631000000000000449,-2.286903582440023452
0.632000000000000339,-2.281919307065859659
0.633000000000000451,-2.276223260079881072
0.634000000000000341,-2.269830411704924611
0.635000000000000453,-2.262755661777266614
0.636000000000000343,-2.255013835592157179
0.637000000000000455,-2.246619679895525135
0.638000000000000345,-2.237587859019458669
0.639000000000000457,-2.227932951159079522
0.640000000000000346,-2.217669444788472166
0.641000000000000458,-2.206811735213196624
0.642000000000000348,-2.195374121257115618
0.643000000000000460,-2.183370802081005646
0.644000000000000350,-2.170815874130731071
0.645000000000000462,-2.157723328212418856
0.646000000000000352,-2.144107046692450780
0.647000000000000464,-2.129980800819733844
0.648000000000000353,-2.115358248168055955
0.649000000000000465,-2.100252930195966261
0.650000000000000355,-2.084678269922115135
0.651000000000000467,-2.068647569713419898
0.652000000000000357,-2.052174009184081438
0.653000000000000469,-2.035270643202759189
0.654000000000000359,-2.017950400006046863
0.655000000000000471,-2.000226079415628355
0.656000000000000361,-1.982110351157077233
0.657000000000000473,-1.963615753277940357
0.658000000000000362,-1.944754690663013097
0.659000000000000474,-1.925539433644500420
0.660000000000000364,-1.905982116704977525
0.661000000000000476,-1.886094737270903821
0.662000000000000366,-1.865889154594703836
0.663000000000000478,-1.845377088723101577
0.664000000000000368,-1.824570119549856262
0.665000000000000480,-1.803479685950633682
0.666000000000000369,-1.782117084998107615
0.667000000000000481,-1.760493471255214715
