# AuFCC100-Ablate100_CS-5439-AC
# h[nm],U(h)[kJ/mol]
0.149999999999999994,128.751573329966362280
0.150999999999999995,126.690208620090317027
0.151999999999999996,122.521496792818084032
0.152999999999999997,117.948076181135633078
0.153999999999999998,113.643803799909079544
0.154999999999999999,109.767714540866592188
0.156000000000000000,106.256240312688561289
0.157000000000000001,102.978980413031237617
0.158000000000000002,99.813337128499796336
0.159000000000000002,96.673168117657183984
0.160000000000000003,93.513220041286501782
0.161000000000000004,90.322357855184790765
0.162000000000000005,87.112995746895592220
0.163000000000000006,83.910630160298595115
0.164000000000000007,80.745256913043348845
0.165000000000000008,77.645234370807912683
0.166000000000000009,74.633503020099823289
0.167000000000000010,71.725768737143710041
0.168000000000000010,68.930158529833335024
0.169000000000000011,66.247871109195401118
0.170000000000000012,63.674412657624181122
0.171000000000000013,61.201095987191159509
0.172000000000000014,58.816569316054106764
0.173000000000000015,56.508219067432001737
0.174000000000000016,54.263355214193403242
0.175000000000000017,52.070136994307667067
0.176000000000000018,49.918232420255577608
0.177000000000000018,47.799228892285341885
0.178000000000000019,45.706826675789457681
0.179000000000000020,43.636854229665914318
0.180000000000000021,41.587146347592302220
0.181000000000000022,39.557324454570213845
0.182000000000000023,37.548514515129731706
0.183000000000000024,35.563032878031272332
0.184000000000000025,33.604064756884106657
0.185000000000000026,31.675354453953673328
0.186000000000000026,29.780921222449403984
0.187000000000000027,27.924810038036220305
0.188000000000000028,26.110882616083564756
0.189000000000000029,24.342650795158558452
0.190000000000000030,22.623151886085814510
0.191000000000000031,20.954863703369625227
0.192000000000000032,19.339655677028552816
0.193000000000000033,17.778771604665543293
0.194000000000000034,16.272839161561787336
0.195000000000000034,14.821901160230671834
0.196000000000000035,13.425463666619261716
0.197000000000000036,12.082556373010334028
0.198000000000000037,10.791801041978111186
0.199000000000000038,9.551484325095310979
0.200000000000000039,8.359631786908581219
0.201000000000000040,7.214080499477935504
0.202000000000000041,6.112548093136958904
0.203000000000000042,5.052696638854406785
0.204000000000000042,4.032190185626186363
0.205000000000000043,3.048745175930679618
0.206000000000000044,2.100173310078666145
0.207000000000000045,1.184416725600075271
0.208000000000000046,0.299575601953512960
0.209000000000000047,-0.556071503391289523
0.210000000000000048,-1.384054130286149320
0.211000000000000049,-2.185702634480680473
0.212000000000000050,-2.962146505803516128
0.213000000000000050,-3.714317597533964399
0.214000000000000051,-4.442957559770707832
0.215000000000000052,-5.148628772343752935
0.216000000000000053,-5.831728092913686545
0.217000000000000054,-6.492502769569242105
0.218000000000000055,-7.131067911079428612
0.219000000000000056,-7.747424959002694678
0.220000000000000057,-8.341480661535108254
0.221000000000000058,-8.913066107105080960
0.222000000000000058,-9.461955434490425532
0.223000000000000059,-9.987883894157773668
0.224000000000000060,-10.490564991441090115
0.225000000000000061,-10.969706495182750317
0.226000000000000062,-11.425025144896054030
0.227000000000000063,-11.856259934918991661
0.228000000000000064,-12.263183895132899082
0.229000000000000065,-12.645614324486919244
0.230000000000000066,-13.003421465782892597
0.231000000000000066,-13.336535638023878647
0.232000000000000067,-13.644952866270946501
0.233000000000000068,-13.928739068607153939
0.234000000000000069,-14.188032875734426952
0.235000000000000070,-14.423047171217779905
0.236000000000000071,-14.634069449747070024
0.237000000000000072,-14.821461097324164058
0.238000000000000073,-14.985655701314513522
0.239000000000000073,-15.127156500133741801
0.240000000000000074,-15.246533082269266401
0.241000000000000075,-15.344417442641832494
0.242000000000000076,-15.421499501257539322
0.243000000000000077,-15.478522184930417538
0.244000000000000078,-15.516276167792714347
0.245000000000000079,-15.535594360556462590
0.246000000000000080,-15.537346232229262810
0.247000000000000081,-15.522432041380056944
0.248000000000000081,-15.491777047238707965
0.249000000000000082,-15.446325764020940596
0.250000000000000111,-15.387036315002845299
0.251000000000000112,-15.314874936115305815
0.252000000000000113,-15.230810672265075567
0.253000000000000114,-15.135810303272791089
0.254000000000000115,-15.030833530301524803
0.255000000000000115,-14.916828447965238880
0.256000000000000116,-14.794727321984822765
0.257000000000000117,-14.665442687317291615
0.258000000000000118,-14.529863777131367897
0.259000000000000119,-14.388853288845629308
0.260000000000000120,-14.243244489680858322
0.261000000000000121,-14.093838660800003026
0.262000000000000122,-13.941402876108236697
0.263000000000000123,-13.786668109146926753
0.264000000000000123,-13.630327659224585446
0.265000000000000124,-13.473035885965888525
0.266000000000000125,-13.315407239809090356
0.267000000000000126,-13.158015574620071320
0.268000000000000127,-13.001393727499698016
0.269000000000000128,-12.846033350017023622
0.270000000000000129,-12.692384974484644644
0.271000000000000130,-12.540858298482284283
0.272000000000000131,-12.391822670611968960
0.273000000000000131,-12.245607760411379772
0.274000000000000132,-12.102504395444469765
0.275000000000000133,-11.962765548811026051
0.276000000000000134,-11.826607460652930115
0.277000000000000135,-11.694210877669448223
0.278000000000000136,-11.565722395170670467
0.279000000000000137,-11.441255886784691853
0.280000000000000138,-11.320894007577271267
0.281000000000000139,-11.204689757030262598
0.282000000000000139,-11.092668089047295510
0.283000000000000140,-10.984827556901919365
0.284000000000000141,-10.881141981805654950
0.285000000000000142,-10.781562134544461884
0.286000000000000143,-10.686017420403491229
0.287000000000000144,-10.594417558366988175
0.288000000000000145,-10.506654246337006953
0.289000000000000146,-10.422602804855843672
0.290000000000000147,-10.342123792540320437
0.291000000000000147,-10.265064587136293994
0.292000000000000148,-10.191260926777918172
0.293000000000000149,-10.120538406684158161
0.294000000000000150,-10.052713927144893091
0.295000000000000151,-9.987597089238059667
0.296000000000000152,-9.924991535276944887
0.297000000000000153,-9.864696231513230273
0.298000000000000154,-9.806506691114558194
0.299000000000000155,-9.750216135897508352
0.300000000000000155,-9.695616595726161080
0.301000000000000156,-9.642499944884370677
0.302000000000000157,-9.590658875096927716
0.303000000000000158,-9.539887805211384020
0.304000000000000159,-9.489983727859735652
0.305000000000000160,-9.440746993697903378
0.306000000000000161,-9.391982034072729135
0.307000000000000162,-9.343498023191553870
0.308000000000000163,-9.295109481069832924
0.309000000000000163,-9.246636818708992678
0.310000000000000164,-9.197906827110880812
0.311000000000000165,-9.148753111867970134
0.312000000000000166,-9.099016475181654684
0.313000000000000167,-9.048545247254917712
0.314000000000000168,-8.997195569082620636
0.315000000000000169,-8.944831628722976546
0.316000000000000170,-8.891325853179285588
0.317000000000000171,-8.836559058052554150
0.318000000000000171,-8.780420557144092086
0.319000000000000172,-8.722808234194641130
0.320000000000000173,-8.663628578942489611
0.321000000000000174,-8.602796689670027419
0.322000000000000175,-8.540236244386083087
0.323000000000000176,-8.475879442761543814
0.324000000000000177,-8.409666920899040221
0.325000000000000178,-8.341547640974347644
0.326000000000000179,-8.271478757739314958
0.327000000000000179,-8.199425463822494820
0.328000000000000180,-8.125360815707210804
0.329000000000000181,-8.049265542206391899
0.330000000000000182,-7.971127837189825982
0.331000000000000183,-7.890943138255005707
0.332000000000000184,-7.808713892964716408
0.333000000000000185,-7.724449314206613515
0.334000000000000186,-7.638165126160581408
0.335000000000000187,-7.549883302289726039
0.336000000000000187,-7.459631796701168938
0.337000000000000188,-7.367444270152750718
0.338000000000000189,-7.273359811912735395
0.339000000000000190,-7.177422658610868034
0.340000000000000191,-7.079681911151351592
0.341000000000000192,-6.980191250692430849
0.342000000000000193,-6.879008654631261876
0.343000000000000194,-6.776196113469969085
0.344000000000000195,-6.671819349376010955
0.345000000000000195,-6.565947537190396588
0.346000000000000196,-6.458653028578206445
0.347000000000000197,-6.350011079959768878
0.348000000000000198,-6.240099584806186428
0.349000000000000199,-6.128998810830152522
0.350000000000000200,-6.016791142553015170
0.351000000000000201,-5.903560829680080779
0.352000000000000202,-5.789393741670384230
0.353000000000000203,-5.674377128842689189
0.354000000000000203,-5.558599390317482403
0.355000000000000204,-5.442149849054730204
0.356000000000000205,-5.325118534209272170
0.357000000000000206,-5.207595970989800982
0.358000000000000207,-5.089672978173337192
0.359000000000000208,-4.971440473395461801
0.360000000000000209,-4.852989286306245376
0.361000000000000210,-4.734409979653834810
0.362000000000000210,-4.615792678331194665
0.363000000000000211,-4.497226906397052915
0.364000000000000212,-4.378801432059171717
0.365000000000000213,-4.260604120586770627
0.366000000000000214,-4.142721795099514992
0.367000000000000215,-4.025240105162188442
0.368000000000000216,-3.908243403097774404
0.369000000000000217,-3.791814627916278990
0.370000000000000218,-3.676035196743015376
0.371000000000000218,-3.560984903617354203
0.372000000000000219,-3.446741825521791647
0.373000000000000220,-3.333382235490968348
0.374000000000000221,-3.220980522641455845
0.375000000000000222,-3.109609118954903551
0.376000000000000223,-2.999338432640550334
0.377000000000000224,-2.890236787896889759
0.378000000000000225,-2.782370370887377486
0.379000000000000226,-2.675803181740669778
0.380000000000000226,-2.570596992382717882
0.381000000000000227,-2.466811310005016633
0.382000000000000228,-2.364503345971677994
0.383000000000000229,-2.263727989966450860
0.384000000000000230,-2.164537789180074778
0.385000000000000231,-2.066982932338438772
0.386000000000000232,-1.971111238372089458
0.387000000000000233,-1.876968149528679630
0.388000000000000234,-1.784596728731168369
0.389000000000000234,-1.694037660986427385
0.390000000000000235,-1.605329258650697755
0.391000000000000236,-1.518507470361248224
0.392000000000000237,-1.433605893445764057
0.393000000000000238,-1.350655789624585212
0.394000000000000239,-1.269686103823717493
0.395000000000000240,-1.190723485920373914
0.396000000000000241,-1.113792315246353581
0.397000000000000242,-1.038914727678449168
0.398000000000000242,-0.966110645149239722
0.399000000000000243,-0.895397807415638902
0.400000000000000244,-0.826791805926828438
0.401000000000000245,-0.760306119637942368
0.402000000000000246,-0.695952152619773390
0.403000000000000247,-0.633739273319664287
0.404000000000000248,-0.573674855333264899
0.405000000000000249,-0.515764319551267225
0.406000000000000250,-0.460011177549960071
0.407000000000000250,-0.406417076099021446
0.408000000000000251,-0.354981842664504055
0.409000000000000252,-0.305703531789700778
0.410000000000000253,-0.258578472240874935
0.411000000000000254,-0.213601314809674925
0.412000000000000255,-0.170765080668181524
0.413000000000000256,-0.130061210177295744
0.414000000000000257,-0.091479612053160755
0.415000000000000258,-0.055008712800987528
0.416000000000000258,-0.020635506329531317
0.417000000000000259,0.011654396336143586
0.418000000000000260,0.041876717322050297
0.419000000000000261,0.070048462227246672
0.420000000000000262,0.096187870570870304
0.421000000000000263,0.120314366430956166
0.422000000000000264,0.142448509338138490
0.423000000000000265,0.162611945483567499
0.424000000000000266,0.180827359296897139
0.425000000000000266,0.197118425446905304
0.426000000000000267,0.211509761313832534
0.427000000000000268,0.224026879979354832
0.428000000000000269,0.234696143777021277
0.429000000000000270,0.243544718442953056
0.430000000000000271,0.250600527903586889
0.431000000000000272,0.255892209734599918
0.432000000000000273,0.259449071322249813
0.433000000000000274,0.261301046755878785
0.434000000000000274,0.261478654477655004
0.435000000000000275,0.260012955713392446
0.436000000000000276,0.256935513705737972
0.437000000000000277,0.252278353768918995
0.438000000000000278,0.246073924182054926
0.439000000000000279,0.238355057935909886
0.440000000000000280,0.229154935346098293
0.441000000000000281,0.218507047543833821
0.442000000000000282,0.206445160853389098
0.443000000000000282,0.193003282063982845
0.444000000000000283,0.178215624601867850
0.445000000000000284,0.162116575607079122
0.446000000000000285,0.144740663917733492
0.447000000000000286,0.126122528963289321
0.448000000000000287,0.106296890567040642
0.449000000000000288,0.085298519656660771
0.450000000000000289,0.063162209880544495
0.451000000000000290,0.039922750126562191
0.452000000000000290,0.015614897938749317
0.453000000000000291,-0.009726646173505337
0.454000000000000292,-0.036067263540166886
0.455000000000000293,-0.063372441256380224
0.456000000000000294,-0.091607795237503106
0.457000000000000295,-0.120739092412111379
0.458000000000000296,-0.150732272062600536
0.459000000000000297,-0.181553466323422480
0.460000000000000298,-0.213169019847912977
0.461000000000000298,-0.245545508654828465
0.462000000000000299,-0.278649758166680972
0.463000000000000300,-0.312448860451996491
0.464000000000000301,-0.346910190684355524
0.465000000000000302,-0.382001422831243886
0.466000000000000303,-0.417690544586338697
0.467000000000000304,-0.453945871558814162
0.468000000000000305,-0.490736060733900636
0.469000000000000306,-0.528030123218904968
0.470000000000000306,-0.565797436289199207
0.471000000000000307,-0.604007754748896120
0.472000000000000308,-0.642631221621038029
0.473000000000000309,-0.681638378182244709
0.474000000000000310,-0.721000173356816765
0.475000000000000311,-0.760687972485599162
0.476000000000000312,-0.800673565484464111
0.477000000000000313,-0.840929174407944124
0.478000000000000314,-0.881427460432931076
0.479000000000000314,-0.922141530277792554
0.480000000000000315,-0.963044942071944021
0.481000000000000316,-1.004111710691027115
0.482000000000000317,-1.045316312572662998
0.483000000000000318,-1.086633690027743127
0.484000000000000319,-1.128039255062057489
0.485000000000000320,-1.169508892722998183
0.486000000000000321,-1.211018963985921459
0.487000000000000322,-1.252546308194591784
0.488000000000000322,-1.294068245070061129
0.489000000000000323,-1.335562576302028237
0.490000000000000324,-1.377007586736760159
0.491000000000000325,-1.418382045175282657
0.492000000000000326,-1.459665204795474125
0.493000000000000327,-1.500836803211465398
0.494000000000000328,-1.541877062183565794
0.495000000000000329,-1.582766686991717853
0.496000000000000330,-1.623486865485246566
0.497000000000000330,-1.664019266821542331
0.498000000000000331,-1.704346039905977550
0.499000000000000332,-1.744449811545167872
0.500000000000000333,-1.784313684325584237
0.501000000000000334,-1.823921234229091137
0.502000000000000335,-1.863256507996903455
0.503000000000000336,-1.902304020253132943
0.504000000000000337,-1.941048750398960410
0.505000000000000338,-1.979476139288084413
0.506000000000000338,-2.017572085694009143
0.507000000000000339,-2.055322942579419720
0.508000000000000340,-2.092715513177638709
0.509000000000000341,-2.129737046895966657
0.510000000000000342,-2.166375235050455039
0.511000000000000343,-2.202618206441419701
0.512000000000000344,-2.238454522778773104
0.513000000000000345,-2.273873173965966554
0.514000000000000346,-2.308863573251265677
0.515000000000000346,-2.343415552254594747
0.516000000000000347,-2.377519355878185969
0.517000000000000348,-2.411165637108941162
0.518000000000000349,-2.444345451720179252
0.519000000000000350,-2.477050252880236947
0.520000000000000351,-2.509271885675227853
0.521000000000000352,-2.541002581552930906
0.522000000000000353,-2.572234952694636423
0.523000000000000353,-2.602961986321637333
0.524000000000000354,-2.633177038942634329
0.525000000000000355,-2.662873830548390774
0.526000000000000356,-2.692046438759494453
0.527000000000000357,-2.720689292933112569
0.528000000000000358,-2.748797168234362154
0.529000000000000359,-2.776365179677532158
0.530000000000000360,-2.803388776142589300
0.531000000000000361,-2.829863734371842465
0.532000000000000361,-2.855786152951703905
0.533000000000000362,-2.881152446284128477
0.534000000000000363,-2.905959338552319693
0.535000000000000364,-2.930203857684959612
0.536000000000000365,-2.953883329323134355
0.537000000000000366,-2.976995370793946272
0.538000000000000367,-2.999537885094635481
0.539000000000000368,-3.021509054890893164
0.540000000000000369,-3.042907336532874929
0.541000000000000369,-3.063731454092269768
0.542000000000000370,-3.083980393423654487
0.543000000000000371,-3.103653396253227115
0.544000000000000372,-3.122749954297816100
0.545000000000000373,-3.141269803416988360
0.546000000000000374,-3.159212917800941600
0.547000000000000375,-3.176579504196657133
0.548000000000000376,-3.193369996174813430
0.549000000000000377,-3.209585048439639543
0.550000000000000377,-3.225225531183995908
0.551000000000000378,-3.240292524491616089
0.552000000000000379,-3.254787312788558040
0.553000000000000380,-3.268711379345595525
0.554000000000000381,-3.282066400833342890
0.555000000000000382,-3.294854241931719052
0.556000000000000383,-3.307076949995214843
0.557000000000000384,-3.318736749775473616
0.558000000000000385,-3.329836038202411252
0.559000000000000385,-3.340377379225225152
0.560000000000000386,-3.350363498714302501
0.561000000000000387,-3.359797279425210892
0.562000000000000388,-3.368681756025659446
0.563000000000000389,-3.377020110186389701
0.564000000000000390,-3.384815665736744528
0.565000000000000391,-3.392071883885727779
0.566000000000000392,-3.398792358509171496
0.567000000000000393,-3.404980811503647509
0.568000000000000393,-3.410641088207602145
0.569000000000000394,-3.415777152890237200
0.570000000000000395,-3.420393084308531506
0.571000000000000396,-3.424493071332665117
0.572000000000000397,-3.428081408640261341
0.573000000000000398,-3.431162492479570947
0.574000000000000399,-3.433740816501785531
0.575000000000000400,-3.435820967662665648
0.576000000000000401,-3.437407622193454415
0.577000000000000401,-3.438505541641192487
0.578000000000000402,-3.439119568978347807
0.579000000000000403,-3.439254624781713510
0.580000000000000404,-3.438915703480482478
0.581000000000000405,-3.438107869673304950
0.582000000000000406,-3.436836254514185729
0.583000000000000407,-3.435106052166946533
0.584000000000000408,-3.432922516328059892
0.585000000000000409,-3.430290956817469983
0.586000000000000409,-3.427216736237141959
0.587000000000000410,-3.423705266696983163
0.588000000000000411,-3.419762006607663274
0.589000000000000412,-3.415392457540055382
0.590000000000000413,-3.410602161150710465
0.591000000000000414,-3.405396696173017546
0.592000000000000415,-3.399781675473502851
0.593000000000000416,-3.393762743172732854
0.594000000000000417,-3.387345571830363333
0.595000000000000417,-3.380535859693718947
0.596000000000000418,-3.373339328009328231
0.597000000000000419,-3.365761718396904634
0.598000000000000420,-3.357808790285034206
0.599000000000000421,-3.349486318408101848
0.600000000000000422,-3.340800090363693187
0.601000000000000423,-3.331755904229882326
0.602000000000000424,-3.322359566241757989
0.603000000000000425,-3.312616888526496162
0.604000000000000425,-3.302533686896254039
0.605000000000000426,-3.292115778698283979
0.606000000000000427,-3.281368980721506290
0.607000000000000428,-3.270299107158808116
0.608000000000000429,-3.258911967624443573
0.609000000000000430,-3.247213365225699366
0.610000000000000431,-3.235209094688210829
0.611000000000000432,-3.222904940534077500
0.612000000000000433,-3.210306675312156521
