# AuFCC100-Ablate100_CS-7610-AC
# h[nm],U(h)[kJ/mol]
0.149999999999999994,128.756979896687511200
0.150999999999999995,126.234639964102072440
0.151999999999999996,122.161422936108834847
0.152999999999999997,117.829877079327005163
0.153999999999999998,113.744632025424806443
0.154999999999999999,110.017721208484999806
0.156000000000000000,106.593011537194342964
0.157000000000000001,103.365508816900131706
0.158000000000000002,100.238202129407710572
0.159000000000000002,97.143560927950517225
0.160000000000000003,94.046469336261012018
0.161000000000000004,90.938628250216979154
0.162000000000000005,87.830125940925128702
0.163000000000000006,84.741171480215641054
0.164000000000000007,81.695350370690746900
0.165000000000000008,78.714821039459209828
0.166000000000000009,75.817369455954320756
0.167000000000000010,73.015007134927287780
0.168000000000000010,70.313723778286089328
0.169000000000000011,67.714018285798289298
0.170000000000000012,65.211886195456187920
0.171000000000000013,62.800011011265425509
0.172000000000000014,60.468976174707712801
0.173000000000000015,58.208375862872138384
0.174000000000000016,56.007753125670568295
0.175000000000000017,53.857332548380227877
0.176000000000000018,51.748542534993397624
0.177000000000000018,49.674341025019081997
0.178000000000000019,47.629369769701909831
0.179000000000000020,45.609967940257654107
0.180000000000000021,43.614077368345540719
0.181000000000000022,41.641070427532227427
0.182000000000000023,39.691528496047283170
0.183000000000000024,37.766994896650814439
0.184000000000000025,35.869721778844827043
0.185000000000000026,34.002426005699717848
0.186000000000000026,32.168065004545113084
0.187000000000000027,30.369639900404791888
0.188000000000000028,28.610030154096239841
0.189000000000000029,26.891861395227845577
0.190000000000000030,25.217406155460462713
0.191000000000000031,23.588515725147768620
0.192000000000000032,22.006580317906266231
0.193000000000000033,20.472514067268221538
0.194000000000000034,18.986761030971130992
0.195000000000000034,17.549318278266774485
0.196000000000000035,16.159772225973117799
0.197000000000000036,14.817344618682463775
0.198000000000000037,13.520944873746334025
0.199000000000000038,12.269225895861165299
0.200000000000000039,11.060640879705259110
0.201000000000000040,9.893499038894063347
0.202000000000000041,8.766018607920113226
0.203000000000000042,7.676375847967999100
0.204000000000000042,6.622749138865659191
0.205000000000000043,5.603357552640408912
0.206000000000000044,4.616493576559885348
0.207000000000000045,3.660549884638034435
0.208000000000000046,2.734040247430292059
0.209000000000000047,1.835614822742945851
0.210000000000000048,0.964070187628365050
0.211000000000000049,0.118354558210035238
0.212000000000000050,-0.702431297802462273
0.213000000000000050,-1.499036916795892127
0.214000000000000051,-2.272068210130792743
0.215000000000000052,-3.021996200151354284
0.216000000000000053,-3.749167887757605566
0.217000000000000054,-4.453818745030277526
0.218000000000000055,-5.136086361359409658
0.219000000000000056,-5.796024812047043895
0.220000000000000057,-6.433619362416544973
0.221000000000000058,-7.048801166348309444
0.222000000000000058,-7.641461664463423453
0.223000000000000059,-8.211466432728048659
0.224000000000000060,-8.758668276146405418
0.225000000000000061,-9.282919403746054954
0.226000000000000062,-9.784082559724501138
0.227000000000000063,-10.262041021073056157
0.228000000000000064,-10.716707404008046112
0.229000000000000065,-11.148031250028315853
0.230000000000000066,-11.556005387374494120
0.231000000000000066,-11.940671085168769849
0.232000000000000067,-12.302122035693040303
0.233000000000000068,-12.640507215299832566
0.234000000000000069,-12.956032686552845234
0.235000000000000070,-13.248962413595936738
0.236000000000000071,-13.519618169695666765
0.237000000000000072,-13.768378620644142529
0.238000000000000073,-13.995677670495060951
0.239000000000000073,-14.202002157179814290
0.240000000000000074,-14.387888985150041776
0.241000000000000075,-14.553921780536390074
0.242000000000000076,-14.700727151611630461
0.243000000000000077,-14.828970633791774603
0.244000000000000078,-14.939352394176898642
0.245000000000000079,-15.032602765883783746
0.246000000000000080,-15.109477677299054221
0.247000000000000081,-15.170754036009839183
0.248000000000000081,-15.217225121660522547
0.249000000000000082,-15.249696036434887247
0.250000000000000111,-15.268979256355791563
0.251000000000000112,-15.275890321197081789
0.252000000000000113,-15.271243695574222343
0.253000000000000114,-15.255848828764317915
0.254000000000000115,-15.230506436043501850
0.255000000000000115,-15.196005019842885986
0.256000000000000116,-15.153117644837996281
0.257000000000000117,-15.102598977210140774
0.258000000000000118,-15.045182594760689199
0.259000000000000119,-14.981578571321719551
0.260000000000000120,-14.912471335987124377
0.261000000000000121,-14.838517805079732170
0.262000000000000122,-14.760345782464685982
0.263000000000000123,-14.678552621804229261
0.264000000000000123,-14.593704142611837682
0.265000000000000124,-14.506333790488024960
0.266000000000000125,-14.416942030692258214
0.267000000000000126,-14.325995963205368611
0.268000000000000127,-14.233929146651508546
0.269000000000000128,-14.141141617857050150
0.270000000000000129,-14.048000093411895151
0.271000000000000130,-13.954838339347688247
0.272000000000000131,-13.861957694942159236
0.273000000000000131,-13.769627736682963359
0.274000000000000132,-13.678087068563376860
0.275000000000000133,-13.587544225121273911
0.276000000000000134,-13.498178673958715734
0.277000000000000135,-13.410141904879612440
0.278000000000000136,-13.323558593245271808
0.279000000000000137,-13.238527825661259740
0.280000000000000138,-13.155124376664426578
0.281000000000000139,-13.073400025665668167
0.282000000000000139,-12.993384904015385928
0.283000000000000140,-12.915088862685234261
0.284000000000000141,-12.838502851696299345
0.285000000000000142,-12.763600303063395103
0.286000000000000143,-12.690338509662673516
0.287000000000000144,-12.618659993060045821
0.288000000000000145,-12.548493853958072819
0.289000000000000146,-12.479757099523535402
0.290000000000000147,-12.412355942446037460
0.291000000000000147,-12.346187067145237393
0.292000000000000148,-12.281138859090372506
0.293000000000000149,-12.217092593717332250
0.294000000000000150,-12.153923581925647923
0.295000000000000151,-12.091502269609083697
0.296000000000000152,-12.029695289117819712
0.297000000000000153,-11.968366460968468346
0.298000000000000154,-11.907377744508519157
0.299000000000000155,-11.846590136606284460
0.300000000000000155,-11.785864517774600202
0.301000000000000156,-11.725062445447942849
0.302000000000000157,-11.664046894418472533
0.303000000000000158,-11.602682944697450651
0.304000000000000159,-11.540838417305604224
0.305000000000000160,-11.478384458709538052
0.306000000000000161,-11.415196074813188432
0.307000000000000162,-11.351152615583696814
0.308000000000000163,-11.286138211540940546
0.309000000000000163,-11.220042163471550367
0.310000000000000164,-11.152759286840744579
0.311000000000000165,-11.084190212471522585
0.312000000000000166,-11.014241645140678827
0.313000000000000167,-10.942826581806260222
0.314000000000000168,-10.869864491232110737
0.315000000000000169,-10.795281456813800247
0.316000000000000170,-10.719010284436459202
0.317000000000000171,-10.640990577210848400
0.318000000000000171,-10.561168778939308055
0.319000000000000172,-10.479498188159976024
0.320000000000000173,-10.395938944605692456
0.321000000000000174,-10.310457989894866060
0.322000000000000175,-10.223029004245651308
0.323000000000000176,-10.133632320973003260
0.324000000000000177,-10.042254820491040235
0.325000000000000178,-9.948889805501433869
0.326000000000000179,-9.853536859003151349
0.327000000000000179,-9.756201686709463416
0.328000000000000180,-9.656895945406356319
0.329000000000000181,-9.555637058732553868
0.330000000000000182,-9.452448021804325862
0.331000000000000183,-9.347357196051589767
0.332000000000000184,-9.240398095572242454
0.333000000000000185,-9.131609166252607324
0.334000000000000186,-9.021033558841910605
0.335000000000000187,-8.908718897108624191
0.336000000000000187,-8.794717042146947605
0.337000000000000188,-8.679083853841985885
0.338000000000000189,-8.561878950443926328
0.339000000000000190,-8.443165467143208147
0.340000000000000191,-8.323009814481952873
0.341000000000000192,-8.201481437381566764
0.342000000000000193,-8.078652575511329204
0.343000000000000194,-7.954598025670629902
0.344000000000000195,-7.829394906805349663
0.345000000000000195,-7.703122428229543850
0.346000000000000196,-7.575861661575123307
0.347000000000000197,-7.447695316945731392
0.348000000000000198,-7.318707523706605045
0.349000000000000199,-7.188983616298815882
0.350000000000000200,-7.058609925425692211
0.351000000000000201,-6.927673574919461785
0.352000000000000202,-6.796262284558999056
0.353000000000000203,-6.664464179073817718
0.354000000000000203,-6.532367603535473854
0.355000000000000204,-6.400060945305599880
0.356000000000000205,-6.267632462679488370
0.357000000000000206,-6.135170120335414090
0.358000000000000207,-6.002761431673015124
0.359000000000000208,-5.870493308098943430
0.360000000000000209,-5.738451915294131567
0.361000000000000210,-5.606722536475126084
0.362000000000000210,-5.475389442641205306
0.363000000000000211,-5.344535769780121903
0.364000000000000212,-5.214243402987497333
0.365000000000000213,-5.084592867438585628
0.366000000000000214,-4.955663226136303834
0.367000000000000215,-4.827531984345542426
0.368000000000000216,-4.700275000611447318
0.369000000000000217,-4.573966404247862272
0.370000000000000218,-4.448678519172081458
0.371000000000000218,-4.324481793952746678
0.372000000000000219,-4.201444737929696416
0.373000000000000220,-4.079633863257257076
0.374000000000000221,-3.959113632716380948
0.375000000000000222,-3.839946413135289838
0.376000000000000223,-3.722192434254014248
0.377000000000000224,-3.605909752864069784
0.378000000000000225,-3.491154222051615186
0.379000000000000226,-3.377979465369732370
0.380000000000000226,-3.266436855763925173
0.381000000000000227,-3.156575499073366764
0.382000000000000228,-3.048442221930041107
0.383000000000000229,-2.942081563877586348
0.384000000000000230,-2.837535773531868699
0.385000000000000231,-2.734844808606342603
0.386000000000000232,-2.634046339626073596
0.387000000000000233,-2.535175757156007403
0.388000000000000234,-2.438266182370854018
0.389000000000000234,-2.343348480796254130
0.390000000000000235,-2.250451279053040210
0.391000000000000236,-2.159600984439589144
0.392000000000000237,-2.070821807189664465
0.393000000000000238,-1.984135785246800010
0.394000000000000239,-1.899562811399195139
0.395000000000000240,-1.817120662622867755
0.396000000000000241,-1.736825031484293458
0.397000000000000242,-1.658689559457532159
0.398000000000000242,-1.582725872014793644
0.399000000000000243,-1.508943615353224743
0.400000000000000244,-1.437350494624629160
0.401000000000000245,-1.367952313539296139
0.402000000000000246,-1.300753015218695463
0.403000000000000247,-1.235754724176224562
0.404000000000000248,-1.172957789309400534
0.405000000000000249,-1.112360827790837892
0.406000000000000250,-1.053960769749612947
0.407000000000000250,-0.997752903638775335
0.408000000000000251,-0.943730922188747101
0.409000000000000252,-0.891886968850614692
0.410000000000000253,-0.842211684637088176
0.411000000000000254,-0.794694255273191930
0.412000000000000255,-0.749322458572366568
0.413000000000000256,-0.706082711957844222
0.414000000000000257,-0.664960120052628278
0.415000000000000258,-0.625938522265498065
0.416000000000000258,-0.589000540303816655
0.417000000000000259,-0.554127625547707336
0.418000000000000260,-0.521300106223600013
0.419000000000000261,-0.490497234318512110
0.420000000000000262,-0.461697232179943462
0.421000000000000263,-0.434877338749358355
0.422000000000000264,-0.410013855380420289
0.423000000000000265,-0.387082191196295777
0.424000000000000266,-0.366056907943339727
0.425000000000000266,-0.346911764301240710
0.426000000000000267,-0.329619759612638896
0.427000000000000268,-0.314153176997959138
0.428000000000000269,-0.300483625823716072
0.429000000000000270,-0.288582083495167119
0.430000000000000271,-0.278418936546679374
0.431000000000000272,-0.269964021005391908
0.432000000000000273,-0.263186662006179906
0.433000000000000274,-0.258055712637993984
0.434000000000000274,-0.254539592003860893
0.435000000000000275,-0.252606322478675871
0.436000000000000276,-0.252223566151046019
0.437000000000000277,-0.253358660437127070
0.438000000000000278,-0.255978652856227784
0.439000000000000279,-0.260050334959687768
0.440000000000000280,-0.265540275406037363
0.441000000000000281,-0.272414852177024491
0.442000000000000282,-0.280640283930680856
0.443000000000000282,-0.290182660488686517
0.444000000000000283,-0.301007972456971529
0.445000000000000284,-0.313082139979448337
0.446000000000000285,-0.326371040626063258
0.447000000000000286,-0.340840536417564344
0.448000000000000287,-0.356456499990208286
0.449000000000000288,-0.373184839904847521
0.450000000000000289,-0.390991525105654603
0.451000000000000290,-0.409842608534594255
0.452000000000000290,-0.429704249908672786
0.453000000000000291,-0.450542737667657900
0.454000000000000292,-0.472324510100747941
0.455000000000000293,-0.495016175661295688
0.456000000000000294,-0.518584532479318461
0.457000000000000295,-0.542996587082067328
0.458000000000000296,-0.568219572333559020
0.459000000000000297,-0.594220964604255331
0.460000000000000298,-0.620968500182796035
0.461000000000000298,-0.648430190941724605
0.462000000000000299,-0.676574339269961023
0.463000000000000300,-0.705369552284641488
0.464000000000000301,-0.734784755335609718
0.465000000000000302,-0.764789204815827572
0.466000000000000303,-0.795352500291462428
0.467000000000000304,-0.826444595965292850
0.468000000000000305,-0.858035811487566802
0.469000000000000306,-0.890096842128347054
0.470000000000000306,-0.922598768325586405
0.471000000000000307,-0.955513064623284558
0.472000000000000308,-0.988811608014103394
0.473000000000000309,-1.022466685700883726
0.474000000000000310,-1.056451002291436847
0.475000000000000311,-1.090737686441278997
0.476000000000000312,-1.125300296958436919
0.477000000000000313,-1.160112828385052808
0.478000000000000314,-1.195149716069896728
0.479000000000000314,-1.230385840746226922
0.480000000000000315,-1.265796532629106075
0.481000000000000316,-1.301357575046369286
0.482000000000000317,-1.337045207617165943
0.483000000000000318,-1.372836128992008797
0.484000000000000319,-1.408707499168057931
0.485000000000000320,-1.444636941393246943
0.486000000000000321,-1.480602543672713267
0.487000000000000322,-1.516582859890811763
0.488000000000000322,-1.552556910561857073
0.489000000000000323,-1.588504183222490429
0.490000000000000324,-1.624404632478510191
0.491000000000000325,-1.660238679718674559
0.492000000000000326,-1.695987212507879649
0.493000000000000327,-1.731631583671878971
0.494000000000000328,-1.767153610085520965
0.495000000000000329,-1.802535571176277163
0.496000000000000330,-1.837760207154558456
0.497000000000000330,-1.872810716982239443
0.498000000000000331,-1.907670756090417807
0.499000000000000332,-1.942324433857316901
0.500000000000000333,-1.976756310857057830
0.501000000000000334,-2.010951395889685411
0.502000000000000335,-2.044895142802695354
0.503000000000000336,-2.078573447114023587
0.504000000000000337,-2.111972642446332316
0.505000000000000338,-2.145079496782056783
0.506000000000000338,-2.177881208548565706
0.507000000000000339,-2.210365402542548985
0.508000000000000340,-2.242520125702440748
0.509000000000000341,-2.274333842737553901
0.510000000000000342,-2.305795431622333691
0.511000000000000343,-2.336894178963941027
0.512000000000000344,-2.367619775251117886
0.513000000000000345,-2.397962309992081487
0.514000000000000346,-2.427912266749078007
0.515000000000000346,-2.457460518076781675
0.516000000000000347,-2.486598320371773418
0.517000000000000348,-2.515317308639964278
0.518000000000000349,-2.543609491188656868
0.519000000000000350,-2.571467244249734385
0.520000000000000351,-2.598883306540326288
0.521000000000000352,-2.625850773766980506
0.522000000000000353,-2.652363093079252998
0.523000000000000353,-2.678414057478494481
0.524000000000000354,-2.703997800187247780
0.525000000000000355,-2.729108788984678124
0.526000000000000356,-2.753741820513114114
0.527000000000000357,-2.777892014560714884
0.528000000000000358,-2.801554808325088519
0.529000000000000359,-2.824725950662339446
0.530000000000000360,-2.847401496326178005
0.531000000000000361,-2.869577800201232431
0.532000000000000361,-2.891251511534777219
0.533000000000000362,-2.912419568170742323
0.534000000000000363,-2.933079190789904978
0.535000000000000364,-2.953227877159842585
0.536000000000000365,-2.972863396398166991
0.537000000000000366,-2.991983783252400553
0.538000000000000367,-3.010587332399684790
0.539000000000000368,-3.028672592769413363
0.540000000000000369,-3.046238361891706603
0.541000000000000369,-3.063283680274528020
0.542000000000000370,-3.079807825812111766
0.543000000000000371,-3.095810308227259888
0.544000000000000372,-3.111290863549905694
0.545000000000000373,-3.126249448634254691
0.546000000000000374,-3.140686235716697361
0.547000000000000375,-3.154601607016525477
0.548000000000000376,-3.167996149381464122
0.549000000000000377,-3.180870648979813531
0.550000000000000377,-3.193226086040999778
0.551000000000000378,-3.205063629646114798
0.552000000000000379,-3.216384632570071567
0.553000000000000380,-3.227190626176744903
0.554000000000000381,-3.237483315368495873
0.555000000000000382,-3.247264573591372994
0.556000000000000383,-3.256536437897074254
0.557000000000000384,-3.265301104062895199
0.558000000000000385,-3.273560921770544585
0.559000000000000385,-3.281318389844868566
0.560000000000000386,-3.288576151553267657
0.561000000000000387,-3.295336989966629826
0.562000000000000388,-3.301603823382453839
0.563000000000000389,-3.307379700810852974
0.564000000000000390,-3.312667797523958679
0.565000000000000391,-3.317471410669273091
0.566000000000000392,-3.321793954947404703
0.567000000000000393,-3.325638958354571351
0.568000000000000393,-3.329010057990191118
0.569000000000000394,-3.331910995929857400
0.570000000000000395,-3.334345615163918808
0.571000000000000396,-3.336317855601773630
0.572000000000000397,-3.337831750142094656
0.573000000000000398,-3.338891420808975052
0.574000000000000399,-3.339501074954046800
0.575000000000000400,-3.339665001524572574
0.576000000000000401,-3.339387567397401391
0.577000000000000401,-3.338673213778760474
0.578000000000000402,-3.337526452669660415
0.579000000000000403,-3.335951863396796391
0.580000000000000404,-3.333954089208719829
0.581000000000000405,-3.331537833937007864
0.582000000000000406,-3.328707858722206314
0.583000000000000407,-3.325468978804155817
0.584000000000000408,-3.321826060376479539
0.585000000000000409,-3.317784017504737726
0.586000000000000409,-3.313347809107948017
0.587000000000000410,-3.308522436003050071
0.588000000000000411,-3.303312938011788269
0.589000000000000412,-3.297724391129686516
0.590000000000000413,-3.291761904756494772
0.591000000000000414,-3.285430618987692952
0.592000000000000415,-3.278735701966510874
0.593000000000000416,-3.271682347295876703
0.594000000000000417,-3.264275771509804080
0.595000000000000417,-3.256521211603614407
0.596000000000000418,-3.248423922622359239
0.597000000000000419,-3.239989175306967617
0.598000000000000420,-3.231222253797326971
0.599000000000000421,-3.222128453391857938
0.600000000000000422,-3.212713078362790409
0.601000000000000423,-3.202981439826590560
0.602000000000000424,-3.192938853668839450
0.603000000000000425,-3.182590638522936999
0.604000000000000425,-3.171942113801882623
0.605000000000000426,-3.160998597782552100
0.606000000000000427,-3.149765405741725921
0.607000000000000428,-3.138247848143158159
0.608000000000000429,-3.126451228875072097
0.609000000000000430,-3.114380843537284616
0.610000000000000431,-3.102041977777353132
