# AuFCC100-Ablate100_CS-11727-AC
# h[nm],U(h)[kJ/mol]
0.200000000000000011,122.572998756144258437
0.201000000000000012,114.165630328810067340
0.202000000000000013,109.365777690020379964
0.203000000000000014,106.186915708320427143
0.204000000000000015,103.531855833161188229
0.205000000000000016,100.858239495078123582
0.206000000000000016,97.953795503627773655
0.207000000000000017,94.789006168975291189
0.208000000000000018,91.423594320182630213
0.209000000000000019,87.949786499082193814
0.210000000000000020,84.460162515113637483
0.211000000000000021,81.031480176280609840
0.212000000000000022,77.718481993512938288
0.213000000000000023,74.553589113851813863
0.214000000000000024,71.549750267395694436
0.215000000000000024,68.704679390845086573
0.216000000000000025,66.005390037464977127
0.217000000000000026,63.432396822506028400
0.218000000000000027,60.963263170488730225
0.219000000000000028,58.575374533534692034
0.220000000000000029,56.247939533834880876
0.221000000000000030,53.963291951456731965
0.222000000000000031,51.707601402094894638
0.223000000000000032,49.471112318094796478
0.224000000000000032,47.248028226079398451
0.225000000000000033,45.036147400924221529
0.226000000000000034,42.836340912645141543
0.227000000000000035,40.651947603401694664
0.228000000000000036,38.488144362765162043
0.229000000000000037,36.351335229627906642
0.230000000000000038,34.248589870391853651
0.231000000000000039,32.187151070507752593
0.232000000000000040,30.174022024313991608
0.233000000000000040,28.215637282120535900
0.234000000000000041,26.317616008134031347
0.235000000000000042,24.484592480737074283
0.236000000000000043,22.720116284431021825
0.237000000000000044,21.026613167440181940
0.238000000000000045,19.405396857577422054
0.239000000000000046,17.856722053453090382
0.240000000000000047,16.379869177104531275
0.241000000000000048,14.973252152606042031
0.242000000000000048,13.634541352865573671
0.243000000000000049,12.360794845636355888
0.244000000000000050,11.148592101447068359
0.245000000000000051,9.994165349194226167
0.246000000000000052,8.893524742266135874
0.247000000000000053,7.842574403645440562
0.248000000000000054,6.837217236277746579
0.249000000000000055,5.873447106350636382
0.250000000000000056,4.947427628995185955
0.251000000000000056,4.055557309609589822
0.252000000000000057,3.194521223920396835
0.253000000000000058,2.361329762593245452
0.254000000000000059,1.553345229569545127
0.255000000000000060,0.768297275970153293
0.256000000000000061,0.004288282247112818
0.257000000000000062,-0.740210120937499716
0.258000000000000063,-1.466368169453822645
0.259000000000000064,-2.175015499986086009
0.260000000000000064,-2.866663914860090312
0.261000000000000065,-3.541534246514725481
0.262000000000000066,-4.199586264050448214
0.263000000000000067,-4.840550649830200669
0.264000000000000068,-5.463962167549095028
0.265000000000000069,-6.069193240884419360
0.266000000000000070,-6.655487260766896895
0.267000000000000071,-7.221991037029431126
0.268000000000000071,-7.767785904741975500
0.269000000000000072,-8.291917085440847046
0.270000000000000073,-8.793420987601027861
0.271000000000000074,-9.271350208316684771
0.272000000000000075,-9.724796068769048674
0.273000000000000076,-10.152908579428359559
0.274000000000000077,-10.554913787016882765
0.275000000000000078,-10.930128504163498349
0.276000000000000079,-11.277972464648073014
0.277000000000000079,-11.597977982498488103
0.278000000000000080,-11.889797222367795015
0.279000000000000081,-12.153207212036971185
0.280000000000000082,-12.388112746040105705
0.281000000000000083,-12.594547342790841427
0.282000000000000084,-12.772672426699681836
0.283000000000000085,-12.922774912102870104
0.284000000000000086,-13.045263367848942693
0.285000000000000087,-13.140662940564277861
0.286000000000000087,-13.209609211370056059
0.287000000000000088,-13.252841155550195040
0.288000000000000089,-13.271193367739462232
0.289000000000000090,-13.265587706951132319
0.290000000000000091,-13.237024506495259857
0.291000000000000092,-13.186573483827569220
0.292000000000000093,-13.115364474853251409
0.293000000000000094,-13.024578106404334221
0.294000000000000095,-12.915436509696386125
0.295000000000000095,-12.789194166708179878
0.296000000000000096,-12.647128970751333910
0.297000000000000097,-12.490533572115761984
0.298000000000000098,-12.320707069682567791
0.299000000000000099,-12.138947099862106072
0.300000000000000100,-11.946542365195558233
0.301000000000000101,-11.744765636495783312
0.302000000000000102,-11.534867254526222524
0.303000000000000103,-11.318069149940169993
0.304000000000000103,-11.095559393535689097
0.305000000000000104,-10.868487282821334361
0.306000000000000105,-10.637958965427014135
0.307000000000000106,-10.405033595016522696
0.308000000000000107,-10.170720011047043485
0.309000000000000108,-9.935973929950257855
0.310000000000000109,-9.701695632054958551
0.311000000000000110,-9.468728125803826501
0.312000000000000111,-9.237855768505880860
0.313000000000000111,-9.009803320981998098
0.314000000000000112,-8.785235411970452546
0.315000000000000113,-8.564756387031829732
0.316000000000000114,-8.348910515897301821
0.317000000000000115,-8.138182531708778811
0.318000000000000116,-7.932998475375515390
0.319000000000000117,-7.733726818290504568
0.320000000000000118,-7.540679836882665299
0.321000000000000119,-7.354115212903039378
0.322000000000000119,-7.174237833929169028
0.323000000000000120,-7.001201769298394773
0.324000000000000121,-6.835112397527005612
0.325000000000000122,-6.676028662217193599
0.326000000000000123,-6.523965434479505276
0.327000000000000124,-6.378895960987327918
0.328000000000000125,-6.240754377917816065
0.329000000000000126,-6.109438272204090303
0.330000000000000127,-5.984811272715843344
0.331000000000000127,-5.866705655187869795
0.332000000000000128,-5.754924945916959800
0.333000000000000129,-5.649246510440216973
0.334000000000000130,-5.549424114582439671
0.335000000000000131,-5.455190446411533500
0.336000000000000132,-5.366259588761574051
0.337000000000000133,-5.282329433069820723
0.338000000000000134,-5.203084026320949462
0.339000000000000135,-5.128195843897591644
0.340000000000000135,-5.057327982096022190
0.341000000000000136,-4.990136264979690317
0.342000000000000137,-4.926271261108361443
0.343000000000000138,-4.865380206496597637
0.344000000000000139,-4.807108830921457354
0.345000000000000140,-4.751103085416060523
0.346000000000000141,-4.697010769452306889
0.347000000000000142,-4.644483056934410214
0.348000000000000143,-4.593175920695190761
0.349000000000000143,-4.542751455710052788
0.350000000000000144,-4.492879101721676705
0.351000000000000145,-4.443236766401946092
0.352000000000000146,-4.393511850568923904
0.353000000000000147,-4.343402177327066127
0.354000000000000148,-4.292616827310608230
0.355000000000000149,-4.240876882484132082
0.356000000000000150,-4.187916081193931994
0.357000000000000151,-4.133481387369527305
0.358000000000000151,-4.077333476949439373
0.359000000000000152,-4.019247144750485390
0.360000000000000153,-3.959011635117735128
0.361000000000000154,-3.896430899784279145
0.362000000000000155,-3.831323786438293411
0.363000000000000156,-3.763524161541364599
0.364000000000000157,-3.692880970967817866
0.365000000000000158,-3.619258242042820317
0.366000000000000159,-3.542535030547124819
0.367000000000000159,-3.462605316231702091
0.368000000000000160,-3.379377850347006440
0.369000000000000161,-3.292775958639997835
0.370000000000000162,-3.202737303210052566
0.371000000000000163,-3.109213606542710728
0.372000000000000164,-3.012170340958969739
0.373000000000000165,-2.911586386630117484
0.374000000000000166,-2.807453661212675478
0.375000000000000167,-2.699776724058116084
0.376000000000000167,-2.588572357847199079
0.377000000000000168,-2.473869130390135673
0.378000000000000169,-2.355706939222664609
0.379000000000000170,-2.234136541514711194
0.380000000000000171,-2.109219071693179792
0.381000000000000172,-1.981025549065146718
0.382000000000000173,-1.849636377611382887
0.383000000000000174,-1.715140840004894640
0.384000000000000175,-1.577636587793884715
0.385000000000000175,-1.437229129575169129
0.386000000000000176,-1.294031318871601943
0.387000000000000177,-1.148162843316941739
0.388000000000000178,-0.999749716643475894
0.389000000000000179,-0.848923774861894076
0.390000000000000180,-0.695822177920162543
0.391000000000000181,-0.540586918027637031
0.392000000000000182,-0.383364335734112938
0.393000000000000183,-0.224304644758821420
0.394000000000000183,-0.063561466474435863
0.395000000000000184,0.098708625136563907
0.396000000000000185,0.262346547319742274
0.397000000000000186,0.427191140527368951
0.398000000000000187,0.593079587961782395
0.399000000000000188,0.759847822180682031
0.400000000000000189,0.927330918331095710
0.401000000000000190,1.095363473645918351
0.402000000000000191,1.263779972898944504
0.403000000000000191,1.432415139574787943
0.404000000000000192,1.601104272565615050
0.405000000000000193,1.769683568259868833
0.406000000000000194,1.937990427937749116
0.407000000000000195,2.105863750434637360
0.408000000000000196,2.273144210077350902
0.409000000000000197,2.439674519938414221
0.410000000000000198,2.605299680491065750
0.411000000000000199,2.769867213782739590
0.412000000000000199,2.933227383276693079
0.413000000000000200,3.095233399540826547
0.414000000000000201,3.255741611989937390
0.415000000000000202,3.414611686912190525
0.416000000000000203,3.571706772032469779
0.417000000000000204,3.726893647886054595
0.418000000000000205,3.880042866293197612
0.419000000000000206,4.031028876241667724
0.420000000000000207,4.179730137498365750
0.421000000000000207,4.326029222282758546
0.422000000000000208,4.469812905346278953
0.423000000000000209,4.610972242809833865
0.424000000000000210,4.749402640119580354
0.425000000000000211,4.885003909486625773
0.426000000000000212,5.017680317181070215
0.427000000000000213,5.147340621054024901
0.428000000000000214,5.273898098663193146
0.429000000000000214,5.397270566378916001
0.430000000000000215,5.517380389847157396
0.431000000000000216,5.634154486184995037
0.432000000000000217,5.747524318282484224
0.433000000000000218,5.857425881581725946
0.434000000000000219,5.963799683700613308
0.435000000000000220,6.066590717264601196
0.436000000000000221,6.165748426304915597
0.437000000000000222,6.261226666576351185
0.438000000000000222,6.352983660141754640
0.439000000000000223,6.440981944563922923
0.440000000000000224,6.525188317039074093
0.441000000000000225,6.605573773798565362
0.442000000000000226,6.682113445098049276
0.443000000000000227,6.754786526105843514
0.444000000000000228,6.823576203993710010
0.445000000000000229,6.888469581525484386
0.446000000000000230,6.949457597430094502
0.447000000000000230,7.006534943837505303
0.448000000000000231,7.059699981046944295
0.449000000000000232,7.108954649888223010
0.450000000000000233,7.154304381928339396
0.451000000000000234,7.195758007766274389
0.452000000000000235,7.233327663650555905
0.453000000000000236,7.267028696644969088
0.454000000000000237,7.296879568559124785
0.455000000000000238,7.322901758852007781
0.456000000000000238,7.345119666707669914
0.457000000000000239,7.363560512474032649
0.458000000000000240,7.378254238646914764
0.459000000000000241,7.389233410573406324
0.460000000000000242,7.396533117040190675
0.461000000000000243,7.400190870904536311
0.462000000000000244,7.400246509917653093
0.463000000000000245,7.396742097882297529
0.464000000000000246,7.389721826279014749
0.465000000000000246,7.379231916487777099
0.466000000000000247,7.365320522724639218
0.467000000000000248,7.348037635805948931
0.468000000000000249,7.327434987845599323
0.469000000000000250,7.303565957984209156
0.470000000000000251,7.276485479242571941
0.471000000000000252,7.246249946585368029
0.472000000000000253,7.212917126274829727
0.473000000000000254,7.176546066588431749
0.474000000000000254,7.137197009968599737
0.475000000000000255,7.094931306666945936
0.476000000000000256,7.049811329940368410
0.477000000000000257,7.001900392850840760
0.478000000000000258,6.951262666715945393
0.479000000000000259,6.897963101252480911
0.480000000000000260,6.842067346450545706
0.481000000000000261,6.783641676211428440
0.482000000000000262,6.722752913778094808
0.483000000000000262,6.659468358983309244
0.484000000000000263,6.593855717336171374
0.485000000000000264,6.525983030964522591
0.486000000000000265,6.455918611426767484
0.487000000000000266,6.383730974403563962
0.488000000000000267,6.309488776276543476
0.489000000000000268,6.233260752597977294
0.490000000000000269,6.155115658452798399
0.491000000000000270,6.075122210711199955
0.492000000000000270,5.993349032167797574
0.493000000000000271,5.909864597560623878
0.494000000000000272,5.824737181461221880
0.495000000000000273,5.738034808024362832
0.496000000000000274,5.649825202584652040
0.497000000000000275,5.560175745084704246
0.498000000000000276,5.469153425317953676
0.499000000000000277,5.376824799967860891
0.500000000000000222,5.283255951422957786
0.501000000000000334,5.188512448346640937
0.502000000000000224,5.092659307978473215
0.503000000000000336,4.995760960142936469
0.504000000000000226,4.897881212940569995
0.505000000000000338,4.799083220094717106
0.506000000000000227,4.699429449927208680
0.507000000000000339,4.598981655934212931
0.508000000000000229,4.497800848934014439
0.509000000000000341,4.395947270756363601
0.510000000000000231,4.293480369444013789
0.511000000000000343,4.190458775934830626
0.512000000000000233,4.086940282194071017
0.513000000000000345,3.982981820764377012
0.514000000000000234,3.878639445702300570
0.515000000000000346,3.773968314868335394
0.516000000000000236,3.669022673538751000
0.517000000000000348,3.563855839305813511
0.518000000000000238,3.458520188234452064
0.519000000000000350,3.353067142241717757
0.520000000000000240,3.247547157667065143
0.521000000000000352,3.142009714999900893
0.522000000000000242,3.036503309732416334
0.523000000000000353,2.931075444304295452
0.524000000000000243,2.825772621107756954
0.525000000000000355,2.720640336519806191
0.526000000000000245,2.615723075930444175
0.527000000000000357,2.511064309734288180
0.528000000000000247,2.406706490254844510
0.529000000000000359,2.302691049569576709
0.530000000000000249,2.199058398205436582
0.531000000000000361,2.095847924673873486
0.532000000000000250,1.993097995815707124
0.533000000000000362,1.890845957925460841
0.534000000000000252,1.789128138626704612
0.535000000000000364,1.687979849468419946
0.536000000000000254,1.587435389215150483
0.537000000000000366,1.487528047801776721
0.538000000000000256,1.388290110926408749
0.539000000000000368,1.289752865253510850
0.540000000000000258,1.191946604201497451
0.541000000000000369,1.094900634287902852
0.542000000000000259,0.998643282007557254
0.543000000000000371,0.903201901217806524
0.544000000000000261,0.808602881006968088
0.545000000000000373,0.714871654021619229
0.546000000000000263,0.622032705229655702
0.547000000000000375,0.530109581095578375
0.548000000000000265,0.439124899146513425
0.549000000000000377,0.349100357906091396
0.550000000000000266,0.260056747175814729
0.551000000000000378,0.172013958642316833
0.552000000000000268,0.084990996790876142
0.553000000000000380,-0.000994009895050652
0.554000000000000270,-0.085923797467023055
0.555000000000000382,-0.169781954796711959
0.556000000000000272,-0.252552911630576082
0.557000000000000384,-0.334221926432165417
0.558000000000000274,-0.414775074028921165
0.559000000000000385,-0.494199233080317657
0.560000000000000275,-0.572482073383218326
0.561000000000000387,-0.649612043030423525
0.562000000000000277,-0.725578355437117684
0.563000000000000389,-0.800370976250377675
0.564000000000000279,-0.873980610155406401
0.565000000000000391,-0.946398687592700405
0.566000000000000281,-1.017617351398904635
0.567000000000000393,-1.087629443384634298
0.568000000000000282,-1.156428490861128422
0.569000000000000394,-1.224008693128118219
0.570000000000000284,-1.290364907933786442
0.571000000000000396,-1.355492637918547016
0.572000000000000286,-1.419388017052589435
0.573000000000000398,-1.482047797077912454
0.574000000000000288,-1.543469333964250234
0.575000000000000400,-1.603650574388682415
0.576000000000000290,-1.662590042247500843
0.577000000000000401,-1.720286825209473847
0.578000000000000291,-1.776740561318284506
0.579000000000000403,-1.831951425652469823
0.580000000000000293,-1.885920117050037259
0.581000000000000405,-1.938647844905392770
0.582000000000000295,-1.990136316044913700
0.583000000000000407,-2.040387721688317946
0.584000000000000297,-2.089404724501410904
0.585000000000000409,-2.137190445746726120
0.586000000000000298,-2.183748452537096263
0.587000000000000410,-2.229082745197957571
0.588000000000000300,-2.273197744742933235
0.589000000000000412,-2.316098280467874027
0.590000000000000302,-2.357789577667384062
0.591000000000000414,-2.398277245478391606
0.592000000000000304,-2.437567264854416216
0.593000000000000416,-2.475665976674382041
0.594000000000000306,-2.512580069989290621
0.595000000000000417,-2.548316570410122939
0.596000000000000307,-2.582882828639682327
0.597000000000000419,-2.616286509151381612
0.598000000000000309,-2.648535579017364139
0.599000000000000421,-2.679638296888273707
0.600000000000000311,-2.709603202126867671
0.601000000000000423,-2.738439104097405430
0.602000000000000313,-2.766155071612343530
0.603000000000000425,-2.792760422538301590
0.604000000000000314,-2.818264713562180557
0.605000000000000426,-2.842677730119105739
0.606000000000000316,-2.866009476482871854
0.607000000000000428,-2.888270166020019403
0.608000000000000318,-2.909470211608190304
0.609000000000000430,-2.929620216219349871
0.610000000000000320,-2.948730963668299232
0.611000000000000432,-2.966813409526906753
0.612000000000000322,-2.983878672204080651
0.613000000000000433,-2.999938024191678654
0.614000000000000323,-3.015002883476245454
0.615000000000000435,-3.029084805116402990
0.616000000000000325,-3.042195472985551152
0.617000000000000437,-3.054346691679664882
0.618000000000000327,-3.065550378589482428
0.619000000000000439,-3.075818556136654003
0.620000000000000329,-3.085163344173125655
0.621000000000000441,-3.093596952542961187
0.622000000000000330,-3.101131673805826772
0.623000000000000442,-3.107779876121168350
0.624000000000000332,-3.113553996292043102
0.625000000000000444,-3.118466532967650195
0.626000000000000334,-3.122530040003295149
0.627000000000000446,-3.125757119976650511
0.628000000000000336,-3.128160417859057851
0.629000000000000448,-3.129752614840519698
0.630000000000000338,-3.130546422306981658
0.631000000000000449,-3.130554575968572006
0.632000000000000339,-3.129789830137248430
0.633000000000000451,-3.128264952152320255
0.634000000000000341,-3.125992716952349593
0.635000000000000453,-3.122985901791839325
0.636000000000000343,-3.119257281100957346
0.637000000000000455,-3.114819621486811574
0.638000000000000345,-3.109685676874385241
0.639000000000000457,-3.103868183785565726
0.640000000000000346,-3.097379856754422178
0.641000000000000458,-3.090233383876982209
0.642000000000000348,-3.082441422493721550
0.643000000000000460,-3.074016595002920571
0.644000000000000350,-3.064971484803103330
0.645000000000000462,-3.055318632362621578
0.646000000000000352,-3.045070531414631354
0.647000000000000464,-3.034239625275498842
0.648000000000000353,-3.022838303284822725
0.649000000000000465,-3.010878897365059093
0.650000000000000355,-2.998373678699058242
0.651000000000000467,-2.985334854523343129
0.652000000000000357,-2.971774565035519622
0.653000000000000469,-2.957704880413564830
0.654000000000000359,-2.943137797945469369
0.655000000000000471,-2.928085239266982942
0.656000000000000361,-2.912559047705775228
0.657000000000000473,-2.896570985729985281
0.658000000000000362,-2.880132732499358195
0.659000000000000474,-2.863255881516987067
0.660000000000000364,-2.845951938379843504
0.661000000000000476,-2.828232318626145769
0.662000000000000366,-2.810108345677794439
0.663000000000000478,-2.791591248875872733
0.664000000000000368,-2.772692161607521744
0.665000000000000480,-2.753422119522220601
