# AuFCC100-Ablate100_CS-8953-AC
# h[nm],U(h)[kJ/mol]
0.149999999999999994,124.168509101001063755
0.150999999999999995,121.171752536171510428
0.151999999999999996,117.040007090861905681
0.152999999999999997,112.721832341273241695
0.153999999999999998,108.602868347555698847
0.154999999999999999,104.779079490864617696
0.156000000000000000,101.216324957242136406
0.157000000000000001,97.838120374520457290
0.158000000000000002,94.569470150910660777
0.159000000000000002,91.354981475164464655
0.160000000000000003,88.162870543009290714
0.161000000000000004,84.982032856903074958
0.162000000000000005,81.816418396210124797
0.163000000000000006,78.679060680709909548
0.164000000000000007,75.586923530300168750
0.165000000000000008,72.557016489630427714
0.166000000000000009,69.603826380012037589
0.167000000000000010,66.737906130871863297
0.168000000000000010,63.965376965084260519
0.169000000000000011,61.288085642988264112
0.170000000000000012,58.704181982101964365
0.171000000000000013,56.208922586238330155
0.172000000000000014,53.795552170348102550
0.173000000000000015,51.456157024020377833
0.174000000000000016,49.182422494170303651
0.175000000000000017,46.966256549691102862
0.176000000000000018,44.800264476062075403
0.177000000000000018,42.678076200059130940
0.178000000000000019,40.594538655078999057
0.179000000000000020,38.545792050985291155
0.180000000000000021,36.529251950915920588
0.181000000000000022,34.543519608517314623
0.182000000000000023,32.588241864422144545
0.183000000000000024,30.663939671225314498
0.184000000000000025,28.771821500523135029
0.185000000000000026,26.913594847166628199
0.186000000000000026,25.091286042369336684
0.187000000000000027,23.307075790389081504
0.188000000000000028,21.563155357361239339
0.189000000000000029,19.861606218497040999
0.190000000000000030,18.204304226857026094
0.191000000000000031,16.592847992761949882
0.192000000000000032,15.028510130009532730
0.193000000000000033,13.512209295684533217
0.194000000000000034,12.044500481832997707
0.195000000000000034,10.625580765810067163
0.196000000000000035,9.255307649381938617
0.197000000000000036,7.933227175499363071
0.198000000000000037,6.658609171069977961
0.199000000000000038,5.430487193692504988
0.200000000000000039,4.247701034577232804
0.201000000000000040,3.108939927752226495
0.202000000000000041,2.012784920396288868
0.203000000000000042,0.957749157833055142
0.204000000000000042,-0.057684880192748533
0.205000000000000043,-1.035031894537939978
0.206000000000000044,-1.975774501350358037
0.207000000000000045,-2.881338449494463383
0.208000000000000046,-3.753072408187433151
0.209000000000000047,-4.592232266011665232
0.210000000000000048,-5.399969764146604234
0.211000000000000049,-6.177325194389075236
0.212000000000000050,-6.925223823964506309
0.213000000000000050,-7.644475661681481071
0.214000000000000051,-8.335778150973315093
0.215000000000000052,-8.999721362128246582
0.216000000000000053,-9.636795255956915440
0.217000000000000054,-10.247398601855143951
0.218000000000000055,-10.831849152452548424
0.219000000000000056,-11.390394702769695456
0.220000000000000057,-11.923224692243682199
0.221000000000000058,-12.430482041547866956
0.222000000000000058,-12.912274951489024488
0.223000000000000059,-13.368688427270658536
0.224000000000000060,-13.799795327135782941
0.225000000000000061,-14.205666769089528856
0.226000000000000062,-14.586381762461465783
0.227000000000000063,-14.942035962056568366
0.228000000000000064,-15.272749471244079444
0.229000000000000065,-15.578673646340210013
0.230000000000000066,-15.859996877937401649
0.231000000000000066,-16.116949345386480275
0.232000000000000067,-16.349806758474258572
0.233000000000000068,-16.558893115538133145
0.234000000000000069,-16.744582519938369103
0.235000000000000070,-16.907300107116860488
0.236000000000000071,-17.047522142576902127
0.237000000000000072,-17.165775357205678375
0.238000000000000073,-17.262635590619709092
0.239000000000000073,-17.338725815835989152
0.240000000000000074,-17.394713619751072997
0.241000000000000075,-17.431308213830924103
0.242000000000000076,-17.449257048255180536
0.243000000000000077,-17.449342100689989365
0.244000000000000078,-17.432375908040746992
0.245000000000000079,-17.399197406104640606
0.246000000000000080,-17.350667638138396853
0.247000000000000081,-17.287665389097291779
0.248000000000000081,-17.211082797795747013
0.249000000000000082,-17.121820994583888620
0.250000000000000111,-17.020785807411051849
0.251000000000000112,-16.908883574428713814
0.252000000000000113,-16.787017096634169633
0.253000000000000114,-16.656081759523097219
0.254000000000000115,-16.516961848348053365
0.255000000000000115,-16.370527077403711047
0.256000000000000116,-16.217629349806927053
0.257000000000000117,-16.059099760529626622
0.258000000000000118,-15.895745851988573705
0.259000000000000119,-15.728349128309398353
0.260000000000000120,-15.557662831465091102
0.261000000000000121,-15.384409979842157412
0.262000000000000122,-15.209281667409268124
0.263000000000000123,-15.032935619545588324
0.264000000000000123,-14.855994999722705430
0.265000000000000124,-14.679047459613457249
0.266000000000000125,-14.502644423813460861
0.267000000000000126,-14.327300599191790553
0.268000000000000127,-14.153493697924535155
0.269000000000000128,-13.981664362494086618
0.270000000000000129,-13.812216280343244890
0.271000000000000130,-13.645516475443297821
0.272000000000000131,-13.481895763754147666
0.273000000000000131,-13.321649359408189284
0.274000000000000132,-13.165037618425220245
0.275000000000000133,-13.012286906849094947
0.276000000000000134,-12.863590580375984018
0.277000000000000135,-12.719110062807256867
0.278000000000000136,-12.578976010994933787
0.279000000000000137,-12.443289554344758585
0.280000000000000138,-12.312123597390868923
0.281000000000000139,-12.185524174446925372
0.282000000000000139,-12.063511845864409722
0.283000000000000140,-11.946083125980104356
0.284000000000000141,-11.833211933405616278
0.285000000000000142,-11.724851054895490066
0.286000000000000143,-11.620933614620607699
0.287000000000000144,-11.521374541265688052
0.288000000000000145,-11.426072025959232548
0.289000000000000146,-11.334908964626105643
0.290000000000000147,-11.247754378925108654
0.291000000000000147,-11.164464810491942615
0.292000000000000148,-11.084885683750403729
0.293000000000000149,-11.008852633078394234
0.294000000000000150,-10.936192790619140069
0.295000000000000151,-10.866726031510561157
0.296000000000000152,-10.800266173765113109
0.297000000000000153,-10.736622130469097414
0.298000000000000154,-10.675599012382143371
0.299000000000000155,-10.616999179406047205
0.300000000000000155,-10.560623239755125624
0.301000000000000156,-10.506270995999603457
0.302000000000000157,-10.453742337468366230
0.303000000000000158,-10.402838078788512632
0.304000000000000159,-10.353360744607272181
0.305000000000000160,-10.305115300786608756
0.306000000000000161,-10.257909832584513055
0.307000000000000162,-10.211556170538754529
0.308000000000000163,-10.165870464950405250
0.309000000000000163,-10.120673710026769854
0.310000000000000164,-10.075792218886569174
0.311000000000000165,-10.031058050756023192
0.312000000000000166,-9.986309391793550816
0.313000000000000167,-9.941390891073822900
0.314000000000000168,-9.896153953340254716
0.315000000000000169,-9.850456990199329965
0.316000000000000170,-9.804165631481527754
0.317000000000000171,-9.757152898532897467
0.318000000000000171,-9.709299341229183256
0.319000000000000172,-9.660493140522399713
0.320000000000000173,-9.610630178337624230
0.321000000000000174,-9.559614076637526381
0.322000000000000175,-9.507356207463525166
0.323000000000000176,-9.453775675747099427
0.324000000000000177,-9.398799276662426649
0.325000000000000178,-9.342361429263799977
0.326000000000000179,-9.284404088118504816
0.327000000000000179,-9.224876634607703352
0.328000000000000180,-9.163735749526878749
0.329000000000000181,-9.100945268572347757
0.330000000000000182,-9.036476022251983764
0.331000000000000183,-8.970305661708678713
0.332000000000000184,-8.902418471891969887
0.333000000000000185,-8.832805173459711057
0.334000000000000186,-8.761462714736229174
0.335000000000000187,-8.688394054997175431
0.336000000000000187,-8.613607940294757626
0.337000000000000188,-8.537118672979731926
0.338000000000000189,-8.458945876019733134
0.339000000000000190,-8.379114253156531689
0.340000000000000191,-8.297653345888255316
0.341000000000000192,-8.214597288207368564
0.342000000000000193,-8.129984559969406277
0.343000000000000194,-8.043857739714287192
0.344000000000000195,-7.956263257708340753
0.345000000000000195,-7.867251149924159748
0.346000000000000196,-7.776874813624433003
0.347000000000000197,-7.685190765167222438
0.348000000000000198,-7.592258400602657886
0.349000000000000199,-7.498139759584748099
0.350000000000000200,-7.402899293078140097
0.351000000000000201,-7.306603635296300858
0.352000000000000202,-7.209321380266992207
0.353000000000000203,-7.111122863381257098
0.354000000000000203,-7.012079948244368310
0.355000000000000204,-6.912265819111214071
0.356000000000000205,-6.811754779154239436
0.357000000000000206,-6.710622054779316947
0.358000000000000207,-6.608943606173751206
0.359000000000000208,-6.506795944241484442
0.360000000000000209,-6.404255954052507249
0.361000000000000210,-6.301400724907310291
0.362000000000000210,-6.198307387092574672
0.363000000000000211,-6.095052955381040860
0.364000000000000212,-5.991714179306858234
0.365000000000000213,-5.888367400227247472
0.366000000000000214,-5.785088415162626063
0.367000000000000215,-5.681952347389559677
0.368000000000000216,-5.579033523744780787
0.369000000000000217,-5.476405358583325444
0.370000000000000218,-5.374140244320162907
0.371000000000000218,-5.272309448471825810
0.372000000000000219,-5.170983017103127466
0.373000000000000220,-5.070229684573413387
0.374000000000000221,-4.970116789467370566
0.375000000000000222,-4.870710196586729879
0.376000000000000223,-4.772074224871738934
0.377000000000000224,-4.674271581114321172
0.378000000000000225,-4.577363299319129553
0.379000000000000226,-4.481408685563258665
0.380000000000000226,-4.386465268201323653
0.381000000000000227,-4.292588753258491430
0.382000000000000228,-4.199832984851389561
0.383000000000000229,-4.108249910474131461
0.384000000000000230,-4.017889550984805602
0.385000000000000231,-3.928799975126773258
0.386000000000000232,-3.841027278417928237
0.387000000000000233,-3.754615566240979696
0.388000000000000234,-3.669606940967836017
0.389000000000000234,-3.586041492951802745
0.390000000000000235,-3.503957295221904467
0.391000000000000236,-3.423390401715329823
0.392000000000000237,-3.344374848885043772
0.393000000000000238,-3.266942660521964914
0.394000000000000239,-3.191123855632769679
0.395000000000000240,-3.116946459217094567
0.396000000000000241,-3.044436515790280851
0.397000000000000242,-2.973618105500621223
0.398000000000000242,-2.904513362693127654
0.399000000000000243,-2.837142496774768929
0.400000000000000244,-2.771523815239409050
0.401000000000000245,-2.707673748714285900
0.402000000000000246,-2.645606877892917375
0.403000000000000247,-2.585335962223151540
0.404000000000000248,-2.526871970222702934
0.405000000000000249,-2.470224111298034764
0.406000000000000250,-2.415399868946328965
0.407000000000000250,-2.362405035223935634
0.408000000000000251,-2.311243746368510266
0.409000000000000252,-2.261918519465939248
0.410000000000000253,-2.214430290056673023
0.411000000000000254,-2.168778450580240769
0.412000000000000255,-2.124960889560120858
0.413000000000000256,-2.082974031435222084
0.414000000000000257,-2.042812876947609269
0.415000000000000258,-2.004471044000095681
0.416000000000000258,-1.967940808900728866
0.417000000000000259,-1.933213147914899510
0.418000000000000260,-1.900277779049297067
0.419000000000000261,-1.869123203995365801
0.420000000000000262,-1.839736750163438517
0.421000000000000263,-1.812104612741989529
0.422000000000000264,-1.786211896719649861
0.423000000000000265,-1.762042658811024953
0.424000000000000266,-1.739579949230367406
0.425000000000000266,-1.718805853260195082
0.426000000000000267,-1.699701532564961370
0.427000000000000268,-1.682247266202861580
0.428000000000000269,-1.666422491291539076
0.429000000000000270,-1.652205843286281617
0.430000000000000271,-1.639575195832019716
0.431000000000000272,-1.628507700152859838
0.432000000000000273,-1.618979823945553509
0.433000000000000274,-1.610967389745596945
0.434000000000000274,-1.604445612737136928
0.435000000000000275,-1.599389137979906339
0.436000000000000276,-1.595772077028841274
0.437000000000000277,-1.593568043923930588
0.438000000000000278,-1.592750190529972354
0.439000000000000279,-1.593291241207865694
0.440000000000000280,-1.595163526800859266
0.441000000000000281,-1.598339017921016847
0.442000000000000282,-1.602789357522957703
0.443000000000000282,-1.608485892753372726
0.444000000000000283,-1.615399706066644736
0.445000000000000284,-1.623501645598220078
0.446000000000000285,-1.632762354788846348
0.447000000000000286,-1.643152301254315217
0.448000000000000287,-1.654641804896392898
0.449000000000000288,-1.667201065252115644
0.450000000000000289,-1.680800188079648150
0.451000000000000290,-1.695409211180079811
0.452000000000000290,-1.710998129455589378
0.453000000000000291,-1.727536919205415966
0.454000000000000292,-1.744995561662014083
0.455000000000000293,-1.763344065770656943
0.456000000000000294,-1.782552490216633867
0.457000000000000295,-1.802590964704886556
0.458000000000000296,-1.823429710497832756
0.459000000000000297,-1.845039060217600779
0.460000000000000298,-1.867389476919820934
0.461000000000000298,-1.890451572446365747
0.462000000000000299,-1.914196125065443566
0.463000000000000300,-1.938594096407519896
0.464000000000000301,-1.963616647706367901
0.465000000000000302,-1.989235155354751372
0.466000000000000303,-2.015421225784893799
0.467000000000000304,-2.042146709683948291
0.468000000000000305,-2.069383715555357384
0.469000000000000306,-2.097104622637037785
0.470000000000000306,-2.125282093187726318
0.471000000000000307,-2.153889084153044475
0.472000000000000308,-2.182898858223079941
0.473000000000000309,-2.212284994293404417
0.474000000000000310,-2.242021397341640743
0.475000000000000311,-2.272082307731988937
0.476000000000000312,-2.302442309959849887
0.477000000000000313,-2.333076340849303154
0.478000000000000314,-2.363959697215758826
0.479000000000000314,-2.395068043006564285
0.480000000000000315,-2.426377415932081671
0.481000000000000316,-2.457864233599987180
0.482000000000000317,-2.489505299165396313
0.483000000000000318,-2.521277806509463648
0.484000000000000319,-2.553159344959093691
0.485000000000000320,-2.585127903560292317
0.486000000000000321,-2.617161874917683484
0.487000000000000322,-2.649240058612616355
0.488000000000000322,-2.681341664212211651
0.489000000000000323,-2.713446313881576089
0.490000000000000324,-2.745534044611381841
0.491000000000000325,-2.777585310072798741
0.492000000000000326,-2.809580982111691938
0.493000000000000327,-2.841502351893880451
0.494000000000000328,-2.873331130713059345
0.495000000000000329,-2.905049450472924288
0.496000000000000330,-2.936639863854749066
0.497000000000000330,-2.968085344181699448
0.498000000000000331,-2.999369284990807127
0.499000000000000332,-3.030475499323435962
0.500000000000000333,-3.061388218745010992
0.501000000000000334,-3.092092092104372636
0.502000000000000335,-3.122572184043156618
0.503000000000000336,-3.152813973265234271
0.504000000000000337,-3.182803350576256740
0.505000000000000338,-3.212526616702928273
0.506000000000000338,-3.241970479901642221
0.507000000000000339,-3.271122053365834947
0.508000000000000340,-3.299968852441175216
0.509000000000000341,-3.328498791657594325
0.510000000000000342,-3.356700181586933063
0.511000000000000343,-3.384561725534768861
0.512000000000000344,-3.412072516074827089
0.513000000000000345,-3.439222031434084670
0.514000000000000346,-3.466000131736718171
0.515000000000000346,-3.492397055114489834
0.516000000000000347,-3.518403413691305381
0.517000000000000348,-3.544010189449326553
0.518000000000000349,-3.569208729983811335
0.519000000000000350,-3.593990744153727324
0.520000000000000351,-3.618348297634989219
0.521000000000000352,-3.642273808382946676
0.522000000000000353,-3.665760042010534736
0.523000000000000353,-3.688800107088484825
0.524000000000000354,-3.711387450373533348
0.525000000000000355,-3.733515851970676813
0.526000000000000356,-3.755179420435094784
0.527000000000000357,-3.776372587819367688
0.528000000000000358,-3.797090104671409172
0.529000000000000359,-3.817327034988167611
0.530000000000000360,-3.837078751130348131
0.531000000000000361,-3.856340928702877591
0.532000000000000361,-3.875109541405934888
0.533000000000000362,-3.893380855861003020
0.534000000000000363,-3.911151426416457078
0.535000000000000364,-3.928418089936843494
0.536000000000000365,-3.945177960579981935
0.537000000000000366,-3.961428424565833772
0.538000000000000367,-3.977167134940920334
0.539000000000000368,-3.992392006341975552
0.540000000000000369,-4.007101209762315541
0.541000000000000369,-4.021293167324328621
0.542000000000000370,-4.034966547061306308
0.543000000000000371,-4.048120257711739889
0.544000000000000372,-4.060753443529081963
0.545000000000000373,-4.072865479109780473
0.546000000000000374,-4.084455964242392767
0.547000000000000375,-4.095524718780303886
0.548000000000000376,-4.106071777540639012
0.549000000000000377,-4.116097385231677563
0.550000000000000377,-4.125601991411096847
0.551000000000000378,-4.134586245477143152
0.552000000000000379,-4.143050991694877006
0.553000000000000380,-4.150997264259343567
0.554000000000000381,-4.158426282397589269
0.555000000000000382,-4.165339445511293093
0.556000000000000383,-4.171738328361575654
0.557000000000000384,-4.177624676297677198
0.558000000000000385,-4.183000400530884733
0.559000000000000385,-4.187867573455153369
0.560000000000000386,-4.192228424015699950
0.561000000000000387,-4.196085333126803540
0.562000000000000388,-4.199440829139951425
0.563000000000000389,-4.202297583363400868
0.564000000000000390,-4.204658405634122076
0.565000000000000391,-4.206526239943082501
0.566000000000000392,-4.207904160114685155
0.567000000000000393,-4.208795365541150524
0.568000000000000393,-4.209203176972539318
0.569000000000000394,-4.209131032363087499
0.570000000000000395,-4.208582482774455791
0.571000000000000396,-4.207561188336333302
0.572000000000000397,-4.206070914264971705
0.573000000000000398,-4.204115526940020331
0.574000000000000399,-4.201698990039971271
0.575000000000000400,-4.198825360736629264
0.576000000000000401,-4.195498785948734266
0.577000000000000401,-4.191723498655083979
0.578000000000000402,-4.187503814267200752
0.579000000000000403,-4.182844127061736472
0.580000000000000404,-4.177748906672660745
0.581000000000000405,-4.172222694643265228
0.582000000000000406,-4.166270101038011653
0.583000000000000407,-4.159895801114114278
0.584000000000000408,-4.153104532052878994
0.585000000000000409,-4.145901089750570812
0.586000000000000409,-4.138290325668743108
0.587000000000000410,-4.130277143743856350
0.588000000000000411,-4.121866497355865633
0.589000000000000412,-4.113063386355721995
0.590000000000000413,-4.103872854151325633
0.591000000000000414,-4.094299984851788032
0.592000000000000415,-4.084349900469610439
0.593000000000000416,-4.074027758180447378
0.594000000000000417,-4.063338747640098170
0.595000000000000417,-4.052288088358364959
0.596000000000000418,-4.040881027129279879
0.597000000000000419,-4.029122835517435774
0.598000000000000420,-4.017018807399760583
0.599000000000000421,-4.004574256562505319
0.600000000000000422,-3.991794514352768886
0.601000000000000423,-3.978684927384181780
0.602000000000000424,-3.965250855296204691
0.603000000000000425,-3.951497668566547272
0.604000000000000425,-3.937430746376078705
0.605000000000000426,-3.923055474525829034
0.606000000000000427,-3.908377243405415591
0.607000000000000428,-3.893401446012330958
0.608000000000000429,-3.878133476021601300
0.609000000000000430,-3.862578725905109422
0.610000000000000431,-3.846742585100106915
