# AuFCC100-Ablate100_CS-12139-AC
# h[nm],U(h)[kJ/mol]
0.149999999999999994,125.522348024091527918
0.150999999999999995,123.976907799567541701
0.151999999999999996,120.110110453153453136
0.152999999999999997,115.817363623387478810
0.153999999999999998,111.826506365964107204
0.154999999999999999,108.293241520854650162
0.156000000000000000,105.134037087284426093
0.157000000000000001,102.199808848453159271
0.158000000000000002,99.356507897759655634
0.159000000000000002,96.514030799314738829
0.160000000000000003,93.628680014901959794
0.161000000000000004,90.693969117926101831
0.162000000000000005,87.727984432543550497
0.163000000000000006,84.761473715363848669
0.164000000000000007,81.828443124351579741
0.165000000000000008,78.959706319712850586
0.166000000000000009,76.179144976677804380
0.167000000000000010,73.502146471901056657
0.168000000000000010,70.935613462234812232
0.169000000000000011,68.478985512405259328
0.170000000000000012,66.125810305116246468
0.171000000000000013,63.865513750509705915
0.172000000000000014,61.685124197312248384
0.173000000000000015,59.570796314963068596
0.174000000000000016,57.509051812711746265
0.175000000000000017,55.487707311371650576
0.176000000000000018,53.496496519492310995
0.177000000000000018,51.527417252834553096
0.178000000000000019,49.574846741864817545
0.179000000000000020,47.635473828796342843
0.180000000000000021,45.708096403424391951
0.181000000000000022,43.793328665543199918
0.182000000000000023,41.893257005468569787
0.183000000000000024,40.011076558280286974
0.184000000000000025,38.150733587322392282
0.185000000000000026,36.316592305594170398
0.186000000000000026,34.513138866546476891
0.187000000000000027,32.744730214652818745
0.188000000000000028,31.015391338773248719
0.189000000000000029,29.328661201220278087
0.190000000000000030,27.687485158169529598
0.191000000000000031,26.094149950519419434
0.192000000000000032,24.550256223385986232
0.193000000000000033,23.056722919414937678
0.194000000000000034,21.613817682678053700
0.195000000000000034,20.221207511472918839
0.196000000000000035,18.878024226378624206
0.197000000000000036,17.582939803040066096
0.198000000000000037,16.334247198093017062
0.199000000000000038,15.129942923615226746
0.200000000000000039,13.967808263168098648
0.201000000000000040,12.845486642776993591
0.202000000000000041,11.760555252898342360
0.203000000000000042,10.710589548976081176
0.204000000000000042,9.693219730434380565
0.205000000000000043,8.706178707030325370
0.206000000000000044,7.747341406847136014
0.207000000000000045,6.814755563782020076
0.208000000000000046,5.906664347859569730
0.209000000000000047,5.021521373953619083
0.210000000000000048,4.157998749094765856
0.211000000000000049,3.314988901376870523
0.212000000000000050,2.491600980487318040
0.213000000000000050,1.687152636841931841
0.214000000000000051,0.901157978639902546
0.215000000000000052,0.133312478883376301
0.216000000000000053,-0.616524437945400128
0.217000000000000054,-1.348348453281423165
0.218000000000000055,-2.062030440690636901
0.219000000000000056,-2.757337031257575344
0.220000000000000057,-3.433951176233134728
0.221000000000000058,-4.091492292813496690
0.222000000000000058,-4.729535645130960475
0.223000000000000059,-5.347630675883772611
0.224000000000000060,-5.945318063566139344
0.225000000000000061,-6.522145335299166291
0.226000000000000062,-7.077680915367585257
0.227000000000000063,-7.611526534495057561
0.228000000000000064,-8.123327964562218284
0.229000000000000065,-8.612784077945603300
0.230000000000000066,-9.079654260085993300
0.231000000000000066,-9.523764228527044295
0.232000000000000067,-9.945010331792305536
0.233000000000000068,-10.343362417433221268
0.234000000000000069,-10.718865370743525745
0.235000000000000070,-11.071639434373631516
0.236000000000000071,-11.401879424769253646
0.237000000000000072,-11.709852964374166007
0.238000000000000073,-11.995897849234850696
0.239000000000000073,-12.260418670365949012
0.240000000000000074,-12.503882804301824194
0.241000000000000075,-12.726815883963736198
0.242000000000000076,-12.929796855588358895
0.243000000000000077,-13.113452721235869802
0.244000000000000078,-13.278453059545611836
0.245000000000000079,-13.425504410127814481
0.246000000000000080,-13.555344599444051568
0.247000000000000081,-13.668737078383793815
0.248000000000000081,-13.766465334115849828
0.249000000000000082,-13.849327431288861234
0.250000000000000111,-13.918130730362259229
0.251000000000000112,-13.973686823838722404
0.252000000000000113,-14.016806724499407011
0.253000000000000114,-14.048296333453766493
0.254000000000000115,-14.068952209941667064
0.255000000000000115,-14.079557659382832213
0.256000000000000116,-14.080879151172553065
0.257000000000000117,-14.073663073174603966
0.258000000000000118,-14.058632825759582730
0.259000000000000119,-14.036486254572469790
0.260000000000000120,-14.007893417973017236
0.261000000000000121,-13.973494682259637756
0.262000000000000122,-13.933899135344848474
0.263000000000000123,-13.889683307473088547
0.264000000000000123,-13.841390185840955596
0.265000000000000124,-13.789528508567508780
0.266000000000000125,-13.734572322348199691
0.267000000000000126,-13.676960787281412735
0.268000000000000127,-13.617098211760772841
0.269000000000000128,-13.555354299953387809
0.270000000000000129,-13.492064594211308659
0.271000000000000130,-13.427531094769145525
0.272000000000000131,-13.362023039242908240
0.273000000000000131,-13.295777824743890250
0.274000000000000132,-13.229002055838146035
0.275000000000000133,-13.161872702098927235
0.276000000000000134,-13.094538349599494254
0.277000000000000135,-13.027120531362859523
0.278000000000000136,-12.959715122508281837
0.279000000000000137,-12.892393786599606997
0.280000000000000138,-12.825205460496558629
0.281000000000000139,-12.758177865825610198
0.282000000000000139,-12.691319036014085953
0.283000000000000140,-12.624618848660542625
0.284000000000000141,-12.558050553839214203
0.285000000000000142,-12.491572289750790148
0.286000000000000143,-12.425128577929605456
0.287000000000000144,-12.358651790994400699
0.288000000000000145,-12.292063586682763443
0.289000000000000146,-12.225276302633563574
0.290000000000000147,-12.158194307076348295
0.291000000000000147,-12.090715301248128100
0.292000000000000148,-12.022731569986316202
0.293000000000000149,-11.954131177539018438
0.294000000000000150,-11.884799106191250573
0.295000000000000151,-11.814618335827228535
0.296000000000000152,-11.743470863033760310
0.297000000000000153,-11.671238658800209720
0.298000000000000154,-11.597804564284661666
0.299000000000000155,-11.523053124496900779
0.300000000000000155,-11.446871360095645542
0.301000000000000156,-11.369149477812367621
0.302000000000000157,-11.289781520297657025
0.303000000000000158,-11.208665956440004408
0.304000000000000159,-11.125706213432254188
0.305000000000000160,-11.040811152058893185
0.306000000000000161,-10.953895486850390384
0.307000000000000162,-10.864880152898894750
0.308000000000000163,-10.773692621255047897
0.309000000000000163,-10.680267164930537405
0.310000000000000164,-10.584545077614967212
0.311000000000000165,-10.486474847281943568
0.312000000000000166,-10.386012286908329116
0.313000000000000167,-10.283120624563867551
0.314000000000000168,-10.177770555147292342
0.315000000000000169,-10.069940256050958993
0.316000000000000170,-9.959615369029879872
0.317000000000000171,-9.846788950534243412
0.318000000000000171,-9.731461392737786653
0.319000000000000172,-9.613640317459530849
0.320000000000000173,-9.493340445133430450
0.321000000000000174,-9.370583440931037345
0.322000000000000175,-9.245397740087042848
0.323000000000000176,-9.117818354417318361
0.324000000000000177,-8.987886661954425094
0.325000000000000178,-8.855650181557624734
0.326000000000000179,-8.721162334283565798
0.327000000000000179,-8.584482193230565272
0.328000000000000180,-8.445674223494441080
0.329000000000000181,-8.304808013798503197
0.330000000000000182,-8.161958001282405561
0.331000000000000183,-8.017203190858953832
0.332000000000000184,-7.870626870469915382
0.333000000000000185,-7.722316323496238866
0.334000000000000186,-7.572362539502075052
0.335000000000000187,-7.420859924417487541
0.336000000000000187,-7.267906011191560545
0.337000000000000188,-7.113601171875622242
0.338000000000000189,-6.958048332026521621
0.339000000000000190,-6.801352688251467882
0.340000000000000191,-6.643621429649686050
0.341000000000000192,-6.484963463842563058
0.342000000000000193,-6.325489148221222990
0.343000000000000194,-6.165310026981858371
0.344000000000000195,-6.004538574461010469
0.345000000000000195,-5.843287945228871294
0.346000000000000196,-5.681671731345684151
0.347000000000000197,-5.519803727136551430
0.348000000000000198,-5.357797701792400780
0.349000000000000199,-5.195767180059358559
0.350000000000000200,-5.033825231236442654
0.351000000000000201,-4.872084266660498209
0.352000000000000202,-4.710655845819657905
0.353000000000000203,-4.549650491200565305
0.354000000000000203,-4.389177511940879128
0.355000000000000204,-4.229344836327434187
0.356000000000000205,-4.070258853150987122
0.357000000000000206,-3.912024261901197342
0.358000000000000207,-3.754743931760329279
0.359000000000000208,-3.598518769330884659
0.360000000000000209,-3.443447595010823647
0.361000000000000210,-3.289627027910460022
0.362000000000000210,-3.137151379187080202
0.363000000000000211,-2.986112553657145341
0.364000000000000212,-2.836599959531149739
0.365000000000000213,-2.688700426102936358
0.366000000000000214,-2.542498129213591973
0.367000000000000215,-2.398074524299510291
0.368000000000000216,-2.255508286825109288
0.369000000000000217,-2.114875259892753157
0.370000000000000218,-1.976248408815671764
0.371000000000000218,-1.839697782433934226
0.372000000000000219,-1.705290480948951970
0.373000000000000220,-1.573090630048166405
0.374000000000000221,-1.443159361088973913
0.375000000000000222,-1.315554797108694496
0.376000000000000223,-1.190332044426484881
0.377000000000000224,-1.067543189602433218
0.378000000000000225,-0.947237301519488595
0.379000000000000226,-0.829460438354539420
0.380000000000000226,-0.714255659206540106
0.381000000000000227,-0.601663040151417583
0.382000000000000228,-0.491719694496000226
0.383000000000000229,-0.384459797006136583
0.384000000000000230,-0.279914611887228770
0.385000000000000231,-0.178112524299404940
0.386000000000000232,-0.079079075193200454
0.387000000000000233,0.017163000743970414
0.388000000000000234,0.110593734235776314
0.389000000000000234,0.201195877859776079
0.390000000000000235,0.288954859980802614
0.391000000000000236,0.373858736365081157
0.392000000000000237,0.455898139660571911
0.393000000000000238,0.535066226923097576
0.394000000000000239,0.611358625362749430
0.395000000000000240,0.684773376479349105
0.396000000000000241,0.755310878750157899
0.397000000000000242,0.822973829027449200
0.398000000000000242,0.887767162797860498
0.399000000000000243,0.949697993449781008
0.400000000000000244,1.008775550689610112
0.401000000000000245,1.065011118241587118
0.402000000000000246,1.118417970960976060
0.403000000000000247,1.169011311484406956
0.404000000000000248,1.216808206535829884
0.405000000000000249,1.261827523001219920
0.406000000000000250,1.304089863879774214
0.407000000000000250,1.343617504214123182
0.408000000000000251,1.380434327097020297
0.409000000000000252,1.414565759846740933
0.410000000000000253,1.446038710438786845
0.411000000000000254,1.474881504276320809
0.412000000000000255,1.501123821377376988
0.413000000000000256,1.524796634051990063
0.414000000000000257,1.545932145138205538
0.415000000000000258,1.564563726861279980
0.416000000000000258,1.580725860376448022
0.417000000000000259,1.594454076051245561
0.418000000000000260,1.605784894539618035
0.419000000000000261,1.614755768696090055
0.420000000000000262,1.621405026374528546
0.421000000000000263,1.625771814152449979
0.422000000000000264,1.627896042018455391
0.423000000000000265,1.627818329056856417
0.424000000000000266,1.625579950160403131
0.425000000000000266,1.621222783799010303
0.426000000000000267,1.614789260869314180
0.427000000000000268,1.606322314646993377
0.428000000000000269,1.595865331861200609
0.429000000000000270,1.583462104907748191
0.430000000000000271,1.569156785215097383
0.431000000000000272,1.552993837775032304
0.432000000000000273,1.535017996847419131
0.433000000000000274,1.515274222846410890
0.434000000000000274,1.493807660413256189
0.435000000000000275,1.470663597679136902
0.436000000000000276,1.445887426719352220
0.437000000000000277,1.419524605198555056
0.438000000000000278,1.391620619205072185
0.439000000000000279,1.362220947270714744
0.440000000000000280,1.331371025571014277
0.441000000000000281,1.299116214299544714
0.442000000000000282,1.265501765208417728
0.443000000000000282,1.230572790306182718
0.444000000000000283,1.194374231702822531
0.445000000000000284,1.156950832590786904
0.446000000000000285,1.118347109349850488
0.447000000000000286,1.078607324762647757
0.448000000000000287,1.037775462326990139
0.449000000000000288,0.995895201650177975
0.450000000000000289,0.953009894909827238
0.451000000000000290,0.909162544365122116
0.452000000000000290,0.864395780901706656
0.453000000000000291,0.818751843592958162
0.454000000000000292,0.772272560259847252
0.455000000000000293,0.724999329011155824
0.456000000000000294,0.676973100745457579
0.457000000000000295,0.628234362595900819
0.458000000000000296,0.578823122298476878
0.459000000000000297,0.528778893464371458
0.460000000000000298,0.478140681736479334
0.461000000000000298,0.426946971810422959
0.462000000000000299,0.375235715299744033
0.463000000000000300,0.323044319425323079
0.464000000000000301,0.270409636508669116
0.465000000000000302,0.217367954248912809
0.466000000000000303,0.163954986763053256
0.467000000000000304,0.110205866369399857
0.468000000000000305,0.056155136093804757
0.469000000000000306,0.001836742878618680
0.470000000000000306,-0.052715968525688231
0.471000000000000307,-0.107470261006258630
0.472000000000000308,-0.162394009890684032
0.473000000000000309,-0.217455707126680053
0.474000000000000310,-0.272624464857966431
0.475000000000000311,-0.327870018415918452
0.476000000000000312,-0.383162728745709891
0.477000000000000313,-0.438473584286259488
0.478000000000000314,-0.493774202322302458
0.479000000000000314,-0.549036829827200257
0.480000000000000315,-0.604234343814562869
0.481000000000000316,-0.659340251216632312
0.482000000000000317,-0.714328688307013682
0.483000000000000318,-0.769174419685136224
0.484000000000000319,-0.823852836839486513
0.485000000000000320,-0.878339956306371406
0.486000000000000321,-0.932612417440703112
0.487000000000000322,-0.986647479814927841
0.488000000000000322,-1.040423020261996179
0.489000000000000323,-1.093917529577820291
0.490000000000000324,-1.147110108898558689
0.491000000000000325,-1.199980465767517046
0.492000000000000326,-1.252508909906314916
0.493000000000000327,-1.304676348704510769
0.494000000000000328,-1.356464282441674829
0.495000000000000329,-1.407854799255477296
0.496000000000000330,-1.458830569869066007
0.497000000000000330,-1.509374842090745794
0.498000000000000331,-1.559471435098534586
0.499000000000000332,-1.609104733521895536
0.500000000000000333,-1.658259681332731272
0.501000000000000334,-1.706921775557222798
0.502000000000000335,-1.755077059819909024
0.503000000000000336,-1.802712117731018138
0.504000000000000337,-1.849814066127865475
0.505000000000000338,-1.896370548180622340
0.506000000000000338,-1.942369726372670913
0.507000000000000339,-1.987800275365341873
0.508000000000000340,-2.032651374756529350
0.509000000000000341,-2.076912701742418932
0.510000000000000342,-2.120574423691281574
0.511000000000000343,-2.163627190637981368
0.512000000000000344,-2.206062127707551390
0.513000000000000345,-2.247870827475901834
0.514000000000000346,-2.289045342275597417
0.515000000000000346,-2.329578176454071503
0.516000000000000347,-2.369462278591716764
0.517000000000000348,-2.408691033686807259
0.518000000000000349,-2.447258255314049613
0.519000000000000350,-2.485158177763234555
0.520000000000000351,-2.522385448164371269
0.521000000000000352,-2.558935118605232706
0.522000000000000353,-2.594802638247149851
0.523000000000000353,-2.629983845444700652
0.524000000000000354,-2.664474959874506776
0.525000000000000355,-2.698272574678409086
0.526000000000000356,-2.731373648625800676
0.527000000000000357,-2.763775498299916755
0.528000000000000358,-2.795475790312598630
0.529000000000000359,-2.826472533551660504
0.530000000000000360,-2.856764071465191623
0.531000000000000361,-2.886349074386514335
0.532000000000000361,-2.915226531903669205
0.533000000000000362,-2.943395745276830677
0.534000000000000363,-2.970856319907149601
0.535000000000000364,-2.997608157860140565
0.536000000000000365,-3.023651450446664946
0.537000000000000366,-3.048986670864387349
0.538000000000000367,-3.073614566902385548
0.539000000000000368,-3.097536153711517137
0.540000000000000369,-3.120752706642898389
0.541000000000000369,-3.143265754156799208
0.542000000000000370,-3.165077070804032555
0.543000000000000371,-3.186188670281880242
0.544000000000000372,-3.206602798566356771
0.545000000000000373,-3.226321927122559607
0.546000000000000374,-3.245348746194728129
0.547000000000000375,-3.263686158177438124
0.548000000000000376,-3.281337271069377781
0.549000000000000377,-3.298305392010863812
0.550000000000000377,-3.314594020906354022
0.551000000000000378,-3.330206844132876487
0.552000000000000379,-3.345147728335440718
0.553000000000000380,-3.359420714310157763
0.554000000000000381,-3.373030010975897053
0.555000000000000382,-3.385979989435130566
0.556000000000000383,-3.398275177124466584
0.557000000000000384,-3.409920252055459233
0.558000000000000385,-3.420920037146010451
0.559000000000000385,-3.431279494642768046
0.560000000000000386,-3.441003720634690843
0.561000000000000387,-3.450097939658045565
0.562000000000000388,-3.458567499392871891
0.563000000000000389,-3.466417865451030700
0.564000000000000390,-3.473654616255739569
0.565000000000000391,-3.480283438012585773
0.566000000000000392,-3.486310119771852900
0.567000000000000393,-3.491740548581951487
0.568000000000000393,-3.496580704733717848
0.569000000000000394,-3.500836657095295124
0.570000000000000395,-3.504514558537266566
0.571000000000000396,-3.507620641447557919
0.572000000000000397,-3.510161213335808661
0.573000000000000398,-3.512142652526633047
0.574000000000000399,-3.513571403941264659
0.575000000000000400,-3.514453974967091110
0.576000000000000401,-3.514796931414390535
0.577000000000000401,-3.514606893559753420
0.578000000000000402,-3.513890532275415701
0.579000000000000403,-3.512654565243919613
0.580000000000000404,-3.510905753257323347
0.581000000000000405,-3.508650896600218339
0.582000000000000406,-3.505896831515839640
0.583000000000000407,-3.502650426754363000
0.584000000000000408,-3.498918580202752260
0.585000000000000409,-3.494708215595111689
0.586000000000000409,-3.490026279302855805
0.587000000000000410,-3.484879737203763650
0.588000000000000411,-3.479275571628980490
0.589000000000000412,-3.473220778387177354
0.590000000000000413,-3.466722363864815470
0.591000000000000414,-3.459787342201693150
0.592000000000000415,-3.452422732540806116
0.593000000000000416,-3.444635556351490546
0.594000000000000417,-3.436432834825013494
0.595000000000000417,-3.427821586341562643
0.596000000000000418,-3.418808824007625535
0.597000000000000419,-3.409401553262902951
0.598000000000000420,-3.399606769555596486
0.599000000000000421,-3.389431456085227889
0.600000000000000422,-3.378882581611885705
0.601000000000000423,-3.367967098330955089
0.602000000000000424,-3.356691939812304959
0.603000000000000425,-3.345064019002952360
0.604000000000000425,-3.333090226292137803
0.605000000000000426,-3.320777427637882973
0.606000000000000427,-3.308132462753994751
0.607000000000000428,-3.295162143356454632
0.608000000000000429,-3.281873251468319097
0.609000000000000430,-3.268272537781984788
0.610000000000000431,-3.254366720077956465
0.611000000000000432,-3.240162481699012886
0.612000000000000433,-3.225666470078850434
