# AuFCC100-Ablate100_CS-13254-AC
# h[nm],U(h)[kJ/mol]
0.149999999999999994,139.531033710841484208
0.150999999999999995,136.129162488949930321
0.151999999999999996,131.644171766395942313
0.152999999999999997,126.995663016498468778
0.153999999999999998,122.552431670135774766
0.154999999999999999,118.402907501604062190
0.156000000000000000,114.511551597471026298
0.157000000000000001,110.803882051402140974
0.158000000000000002,107.208279245591000972
0.159000000000000002,103.672780755936898345
0.160000000000000003,100.168356404232810064
0.161000000000000004,96.685680381122409699
0.162000000000000005,93.229494024585832790
0.163000000000000006,89.812787076323886026
0.164000000000000007,86.451870882338909041
0.165000000000000008,83.162733044398166271
0.166000000000000009,79.958683455770952264
0.167000000000000010,76.849113562468417626
0.168000000000000010,73.839118467740803453
0.169000000000000011,70.929725469224237600
0.170000000000000012,68.118500950224870394
0.171000000000000013,65.400350507296877822
0.172000000000000014,62.768373128634230795
0.173000000000000015,60.214672759611836739
0.174000000000000016,57.731066671457099915
0.175000000000000017,55.309658702279918430
0.176000000000000018,52.943266862601923606
0.177000000000000018,50.625709802664708548
0.178000000000000019,48.351966299680761097
0.179000000000000020,46.118227359778295238
0.180000000000000021,43.921862787234772441
0.181000000000000022,41.761324063662996764
0.182000000000000023,39.636003856458465577
0.183000000000000024,37.546070037428123101
0.184000000000000025,35.492289194814951259
0.185000000000000026,33.475851597186611741
0.186000000000000026,31.498206645837722562
0.187000000000000027,29.560915181660316620
0.188000000000000028,27.665522677904665017
0.189000000000000029,25.813455389874103929
0.190000000000000030,24.005939950703311325
0.191000000000000031,22.243945680443982127
0.192000000000000032,20.528147980829551500
0.193000000000000033,18.858910579463206147
0.194000000000000034,17.236284020724657040
0.195000000000000034,15.660017632493033801
0.196000000000000035,14.129582186316401504
0.197000000000000036,12.644200576175913753
0.198000000000000037,11.202884034299014360
0.199000000000000038,9.804471653210987014
0.200000000000000039,8.447671267810992646
0.201000000000000040,7.131100050682458225
0.202000000000000041,5.853323473202169502
0.203000000000000042,4.612891573062306350
0.204000000000000042,3.408371737488283593
0.205000000000000043,2.238377455318386389
0.206000000000000044,1.101592706984991121
0.207000000000000045,-0.003208152148843624
0.208000000000000046,-1.077145002778717275
0.209000000000000047,-2.121220926384192573
0.210000000000000048,-3.136315281723472737
0.211000000000000049,-4.123180574437260049
0.212000000000000050,-5.082442746575144277
0.213000000000000050,-6.014604477818754624
0.214000000000000051,-6.920051071927423081
0.215000000000000052,-7.799058497830526626
0.216000000000000053,-8.651803162329386510
0.217000000000000054,-9.478373008224590279
0.218000000000000055,-10.278779555731029305
0.219000000000000056,-11.052970534390581747
0.220000000000000057,-11.800842785683915537
0.221000000000000058,-12.522255151736096934
0.222000000000000058,-13.217041101705101269
0.223000000000000059,-13.885020883617178455
0.224000000000000060,-14.526013024760988657
0.225000000000000061,-15.139845037622851720
0.226000000000000062,-15.726363220248064323
0.227000000000000063,-16.285441469491267696
0.228000000000000064,-16.816989052630127333
0.229000000000000065,-17.320957307123908464
0.230000000000000066,-17.797345259838444065
0.231000000000000066,-18.246204175848806273
0.232000000000000067,-18.667641063030522730
0.233000000000000068,-19.061821172173978312
0.234000000000000069,-19.428969543442640600
0.235000000000000070,-19.769371658811945025
0.236000000000000071,-20.083373266852312611
0.237000000000000072,-20.371379451048944986
0.238000000000000073,-20.633853015975535783
0.239000000000000073,-20.871312267253202322
0.240000000000000074,-21.084328261520603576
0.241000000000000075,-21.273521601795760461
0.242000000000000076,-21.439558851799500161
0.243000000000000077,-21.583148640195787493
0.244000000000000078,-21.705037522436199993
0.245000000000000079,-21.806005664110305275
0.246000000000000080,-21.886862405527502062
0.247000000000000081,-21.948441762799696164
0.248000000000000081,-21.991597916057024520
0.249000000000000082,-22.017200730698956335
0.250000000000000111,-22.026131352835982113
0.251000000000000112,-22.019277915376267885
0.252000000000000113,-21.997531386614934235
0.253000000000000114,-21.961781588731788872
0.254000000000000115,-21.912913409338607096
0.255000000000000115,-21.851803225163315858
0.256000000000000116,-21.779315553142033934
0.257000000000000117,-21.696299940624129476
0.258000000000000118,-21.603588103091208694
0.259000000000000119,-21.501991314755372287
0.260000000000000120,-21.392298054634629523
0.261000000000000121,-21.275271908203404081
0.262000000000000122,-21.151649722478417459
0.263000000000000123,-21.022140010417047051
0.264000000000000123,-20.887421598767915043
0.265000000000000124,-20.748142512009682292
0.266000000000000125,-20.604919083733896912
0.267000000000000126,-20.458335285754717603
0.268000000000000127,-20.308942264352715767
0.269000000000000128,-20.157258072364243162
0.270000000000000129,-20.003767585300320064
0.271000000000000130,-19.848922589303722219
0.272000000000000131,-19.693142028517922171
0.273000000000000131,-19.536812399330937495
0.274000000000000132,-19.380288278959874049
0.275000000000000133,-19.223892975944583128
0.276000000000000134,-19.067919290308338987
0.277000000000000135,-18.912630371411154329
0.278000000000000136,-18.758260661852961704
0.279000000000000137,-18.605016916172623098
0.280000000000000138,-18.453079283523493359
0.281000000000000139,-18.302602443978507551
0.282000000000000139,-18.153716788620521072
0.283000000000000140,-18.006529634098910719
0.284000000000000141,-17.861126462874270970
0.285000000000000142,-17.717572180925404979
0.286000000000000143,-17.575912385248390279
0.287000000000000144,-17.436174634034578901
0.288000000000000145,-17.298369712966895406
0.289000000000000146,-17.162492891618402524
0.290000000000000147,-17.028525164471471243
0.291000000000000147,-16.896434471595817683
0.292000000000000148,-16.766176894528719288
0.293000000000000149,-16.637697823387050278
0.294000000000000150,-16.510933091708093201
0.295000000000000151,-16.385810075963263444
0.296000000000000152,-16.262248757113368924
0.297000000000000153,-16.140162741977821526
0.298000000000000154,-16.019460242569660835
0.299000000000000155,-15.900045011906476233
0.300000000000000155,-15.781817235141286204
0.301000000000000156,-15.664674375169429510
0.302000000000000157,-15.548511972156703109
0.303000000000000158,-15.433224396701097803
0.304000000000000159,-15.318705556586209582
0.305000000000000160,-15.204849557308614649
0.306000000000000161,-15.091551316766214086
0.307000000000000162,-14.978707134679154933
0.308000000000000163,-14.866215217480473143
0.309000000000000163,-14.753976159562446568
0.310000000000000164,-14.641893381894817594
0.311000000000000165,-14.529873529146149380
0.312000000000000166,-14.417826826539116070
0.313000000000000167,-14.305667397755204462
0.314000000000000168,-14.193313545275964671
0.315000000000000169,-14.080687994606654101
0.316000000000000170,-13.967718103875165880
0.317000000000000171,-13.854336040335059721
0.318000000000000171,-13.740478925327284543
0.319000000000000172,-13.626088949272007866
0.320000000000000173,-13.511113458269544907
0.321000000000000174,-13.395505013889698276
0.322000000000000175,-13.279221427721779492
0.323000000000000176,-13.162225772244081412
0.324000000000000177,-13.044486369552350524
0.325000000000000178,-12.925976759462269428
0.326000000000000179,-12.806675648472202411
0.327000000000000179,-12.686566841039031317
0.328000000000000180,-12.565639154583454484
0.329000000000000181,-12.443886319601745072
0.330000000000000182,-12.321306866217998532
0.331000000000000183,-12.197903998467406694
0.332000000000000184,-12.073685457554109490
0.333000000000000185,-11.948663375280004217
0.334000000000000186,-11.822854118792216482
0.335000000000000187,-11.696278127747159914
0.336000000000000187,-11.568959744939688150
0.337000000000000188,-11.440927041395173802
0.338000000000000189,-11.312211636872651965
0.339000000000000190,-11.182848516677054818
0.340000000000000191,-11.052875845628863161
0.341000000000000192,-10.922334779991354381
0.342000000000000193,-10.791269278106295104
0.343000000000000194,-10.659725910443018648
0.344000000000000195,-10.527753669718226348
0.345000000000000195,-10.395403781699865675
0.346000000000000196,-10.262729517263585066
0.347000000000000197,-10.129786006228007622
0.348000000000000198,-9.996630053453682052
0.349000000000000199,-9.863319957650320546
0.350000000000000200,-9.729915333298738034
0.351000000000000201,-9.596476936056447471
0.352000000000000202,-9.463066491980471895
0.353000000000000203,-9.329746530866772858
0.354000000000000203,-9.196580223972933510
0.355000000000000204,-9.063631226359657234
0.356000000000000205,-8.930963524057137448
0.357000000000000206,-8.798641286233999992
0.358000000000000207,-8.666728722519794204
0.359000000000000208,-8.535289945606987061
0.360000000000000209,-8.404388839234396613
0.361000000000000210,-8.274088931631467858
0.362000000000000210,-8.144453274481923799
0.363000000000000211,-8.015544327445365269
0.364000000000000212,-7.887423848257043346
0.365000000000000213,-7.760152788408605673
0.366000000000000214,-7.633791194396847501
0.367000000000000215,-7.508398114512365495
0.368000000000000216,-7.384031511126575076
0.369000000000000217,-7.260748178422564258
0.370000000000000218,-7.138603665504075657
0.371000000000000218,-7.017652204805862937
0.372000000000000219,-6.897946645719427394
0.373000000000000220,-6.779538393339125335
0.374000000000000221,-6.662477352226024330
0.375000000000000222,-6.546811875079628251
0.376000000000000223,-6.432588716201607326
0.377000000000000224,-6.319852989629992202
0.378000000000000225,-6.208648131817716020
0.379000000000000226,-6.099015868725098599
0.380000000000000226,-5.990996187192646261
0.381000000000000227,-5.884627310457399396
0.382000000000000228,-5.779945677674072968
0.383000000000000229,-5.676985927300244761
0.384000000000000230,-5.575780884203569876
0.385000000000000231,-5.476361550348440410
0.386000000000000232,-5.378757098918754309
0.387000000000000233,-5.282994871733764697
0.388000000000000234,-5.189100379814172825
0.389000000000000234,-5.097097306956589691
0.390000000000000235,-5.007007516175105977
0.391000000000000236,-4.918851058870657766
0.392000000000000237,-4.832646186589757420
0.393000000000000238,-4.748409365236653912
0.394000000000000239,-4.666155291604559885
0.395000000000000240,-4.585896912094071354
0.396000000000000241,-4.507645443489300519
0.397000000000000242,-4.431410395664766355
0.398000000000000242,-4.357199596098911165
0.399000000000000243,-4.285019216072880610
0.400000000000000244,-4.214873798436095775
0.401000000000000245,-4.146766286823544867
0.402000000000000246,-4.080698056212356484
0.403000000000000247,-4.016668944708711386
0.404000000000000248,-3.954677286459434615
0.405000000000000249,-3.894719945585694010
0.406000000000000250,-3.836792351039678639
0.407000000000000250,-3.780888532288463555
0.408000000000000251,-3.727001155732486914
0.409000000000000252,-3.675121561769655099
0.410000000000000253,-3.625239802419073953
0.411000000000000254,-3.577344679422118645
0.412000000000000255,-3.531423782741478057
0.413000000000000256,-3.487463529382425431
0.414000000000000257,-3.445449202463444660
0.415000000000000258,-3.405364990466917874
0.416000000000000258,-3.367194026603375079
0.417000000000000259,-3.330918428226167016
0.418000000000000260,-3.296519336236365838
0.419000000000000261,-3.263976954420613197
0.420000000000000262,-3.233270588667782164
0.421000000000000263,-3.204378686013041211
0.422000000000000264,-3.177278873460617881
0.423000000000000265,-3.151947996539578689
0.424000000000000266,-3.128362157549410938
0.425000000000000266,-3.106496753454838444
0.426000000000000267,-3.086326513391806081
0.427000000000000268,-3.067825535749190369
0.428000000000000269,-3.050967324792948965
0.429000000000000270,-3.035724826801880383
0.430000000000000271,-3.022070465686471863
0.431000000000000272,-3.009976178064266872
0.432000000000000273,-2.999413447767505847
0.433000000000000274,-2.990353339760695395
0.434000000000000274,-2.982766533447783974
0.435000000000000275,-2.976623355350391797
0.436000000000000276,-2.971893811140538855
0.437000000000000277,-2.968547617012861295
0.438000000000000278,-2.966554230383112056
0.439000000000000279,-2.965882879901310165
0.440000000000000280,-2.966502594769422352
0.441000000000000281,-2.968382233354896815
0.442000000000000282,-2.971490511092948594
0.443000000000000282,-2.975796027671540944
0.444000000000000283,-2.981267293494621384
0.445000000000000284,-2.987872755420132975
0.446000000000000285,-2.995580821770570168
0.447000000000000286,-3.004359886615075137
0.448000000000000287,-3.014178353322833459
0.449000000000000288,-3.025004657388820295
0.450000000000000289,-3.036807288533716509
0.451000000000000290,-3.049554812080682353
0.452000000000000290,-3.063215889612641796
0.453000000000000291,-3.077759298914382935
0.454000000000000292,-3.093153953204598849
0.455000000000000293,-3.109368919663654030
0.456000000000000294,-3.126373437263522348
0.457000000000000295,-3.144136933906906073
0.458000000000000296,-3.162629042883204011
0.459000000000000297,-3.181819618649373460
0.460000000000000298,-3.201678751944418089
0.461000000000000298,-3.222176784246383541
0.462000000000000299,-3.243284321581544560
0.463000000000000300,-3.264972247695443919
0.464000000000000301,-3.287211736596094447
0.465000000000000302,-3.309974264479749628
0.466000000000000303,-3.333231621050160243
0.467000000000000304,-3.356955920242177260
0.468000000000000305,-3.381119610361097649
0.469000000000000306,-3.405695483649171074
0.470000000000000306,-3.430656685290839114
0.471000000000000307,-3.455976721868551316
0.472000000000000308,-3.481629469281043665
0.473000000000000309,-3.507589180136054807
0.474000000000000310,-3.533830490629520593
0.475000000000000311,-3.560328426923573097
0.476000000000000312,-3.587058411035232375
0.477000000000000313,-3.613996266248304945
0.478000000000000314,-3.641118222060464316
0.479000000000000314,-3.668400918677890310
0.480000000000000315,-3.695821411069518003
0.481000000000000316,-3.723357172593154019
0.482000000000000317,-3.750986098205462582
0.483000000000000318,-3.778686507267891237
0.484000000000000319,-3.806437145960484436
0.485000000000000320,-3.834217189315435981
0.486000000000000321,-3.862006242882166873
0.487000000000000322,-3.889784344035540187
0.488000000000000322,-3.917531962938831214
0.489000000000000323,-3.945230003172741640
0.490000000000000324,-3.972859802041909028
0.491000000000000325,-4.000403130569892163
0.492000000000000326,-4.027842193193739817
0.493000000000000327,-4.055159627168913872
0.494000000000000328,-4.082338501695290667
0.495000000000000329,-4.109362316774776147
0.496000000000000330,-4.136215001810812808
0.497000000000000330,-4.162880913960069762
0.498000000000000331,-4.189344836246236881
0.499000000000000332,-4.215591975445756034
0.500000000000000333,-4.241607959755211432
0.501000000000000334,-4.267378836249754670
0.502000000000000335,-4.292891068141898359
0.503000000000000336,-4.318131531849731530
0.504000000000000337,-4.343087513883492790
0.505000000000000338,-4.367746707559193808
0.506000000000000338,-4.392097209547793923
0.507000000000000339,-4.416127516268329778
0.508000000000000340,-4.439826520133040688
0.509000000000000341,-4.463183505652508209
0.510000000000000342,-4.486188145408537054
0.511000000000000343,-4.508830495902367730
0.512000000000000344,-4.531100993285564371
0.513000000000000345,-4.552990448980762217
0.514000000000000346,-4.574490045199369526
0.515000000000000346,-4.595591330362876370
0.516000000000000347,-4.616286214434524915
0.517000000000000348,-4.636566964167768035
0.518000000000000349,-4.656426198277713979
0.519000000000000350,-4.675856882541701509
0.520000000000000351,-4.694852324834913659
0.521000000000000352,-4.713406170106709148
0.522000000000000353,-4.731512395303250074
0.523000000000000353,-4.749165304241847352
0.524000000000000354,-4.766359522442170871
0.525000000000000355,-4.783089991919423412
0.526000000000000356,-4.799351965944319787
0.527000000000000357,-4.815141003774614958
0.528000000000000358,-4.830452965362801443
0.529000000000000359,-4.845284006044193070
0.530000000000000360,-4.859630571209892835
0.531000000000000361,-4.873489390968531509
0.532000000000000361,-4.886857474800896384
0.533000000000000362,-4.899732106211082794
0.534000000000000363,-4.912110837378006245
0.535000000000000364,-4.923991483810660874
0.536000000000000365,-4.935372119010570380
0.537000000000000366,-4.946251069144682155
0.538000000000000367,-4.956626907731786602
0.539000000000000368,-4.966498450345484095
0.540000000000000369,-4.975864749336572856
0.541000000000000369,-4.984725088577542707
0.542000000000000370,-4.993078978231842768
0.543000000000000371,-5.000926149550421584
0.544000000000000372,-5.008266549697903081
0.545000000000000373,-5.015100336610684550
0.546000000000000374,-5.021427873889157567
0.547000000000000375,-5.027249725726022689
0.548000000000000376,-5.032566651872786956
0.549000000000000377,-5.037379602646163690
0.550000000000000377,-5.041689713976230891
0.551000000000000378,-5.045498302497955834
0.552000000000000379,-5.048806860687688136
0.553000000000000380,-5.051617052046077916
0.554000000000000381,-5.053930706328793043
0.555000000000000382,-5.055749814826436150
0.556000000000000383,-5.057076525694717439
0.557000000000000384,-5.057913139336196906
0.558000000000000385,-5.058262103834541890
0.559000000000000385,-5.058126010442353326
0.560000000000000386,-5.057507589123440894
0.561000000000000387,-5.056409704150409468
0.562000000000000388,-5.054835349758324270
0.563000000000000389,-5.052787645855167042
0.564000000000000390,-5.050269833789730711
0.565000000000000391,-5.047285272177520099
0.566000000000000392,-5.043837432785212016
0.567000000000000393,-5.039929896474110826
0.568000000000000393,-5.035566349202996506
0.569000000000000394,-5.030750578090760428
0.570000000000000395,-5.025486467539130864
0.571000000000000396,-5.019777995415651617
0.572000000000000397,-5.013629229297255741
0.573000000000000398,-5.007044322774473422
0.574000000000000399,-5.000027511816452552
0.575000000000000400,-4.992583111196831958
0.576000000000000401,-4.984715510980487707
0.577000000000000401,-4.976429173071190704
0.578000000000000402,-4.967728627820044984
0.579000000000000403,-4.958618470694695191
0.580000000000000404,-4.949103359009130898
0.581000000000000405,-4.939188008713951028
0.582000000000000406,-4.928877191246907152
0.583000000000000407,-4.918175730443471672
0.584000000000000408,-4.907088499507251456
0.585000000000000409,-4.895620418039884569
0.586000000000000409,-4.883776449130166952
0.587000000000000410,-4.871561596502121283
0.588000000000000411,-4.858980901721522194
0.589000000000000412,-4.846039441460682440
0.590000000000000413,-4.832742324820925361
0.591000000000000414,-4.819094690712463880
0.592000000000000415,-4.805101705291177083
0.593000000000000416,-4.790768559451828779
0.594000000000000417,-4.776100466377283915
0.595000000000000417,-4.761102659143243265
0.596000000000000418,-4.745780388377895953
0.597000000000000419,-4.730138919976137224
0.598000000000000420,-4.714183532867634696
0.599000000000000421,-4.697919516838340748
0.600000000000000422,-4.681352170404807111
0.601000000000000423,-4.664486798740767881
0.602000000000000424,-4.647328711655409172
0.603000000000000425,-4.629883221622749012
0.604000000000000425,-4.612155641861453326
0.605000000000000426,-4.594151284464627949
0.606000000000000427,-4.575875458578834376
0.607000000000000428,-4.557333468631756368
0.608000000000000429,-4.538530612607949877
0.609000000000000430,-4.519472180371944425
