# AuFCC100-Ablate100_CS-64234-AC
# h[nm],U(h)[kJ/mol]
0.149999999999999994,153.893778622336924400
0.150999999999999995,150.428521542898948837
0.151999999999999996,146.137998449243355026
0.152999999999999997,141.685721090840246461
0.153999999999999998,137.380815853106383884
0.154999999999999999,133.326735297429934235
0.156000000000000000,129.519408991413286003
0.157000000000000001,125.908603567520316346
0.158000000000000002,122.433567238819222212
0.159000000000000002,119.041470470484568978
0.160000000000000003,115.694929563155980645
0.161000000000000004,112.373081192122342031
0.162000000000000005,109.069255251900059989
0.163000000000000006,105.787225597977936786
0.164000000000000007,102.537244452553679253
0.165000000000000008,99.332526221967754054
0.166000000000000009,96.186485536963544973
0.167000000000000010,93.110805922043269334
0.168000000000000010,90.114281865614174194
0.169000000000000011,87.202308697398251525
0.170000000000000012,84.376869281574698789
0.171000000000000013,81.636867765134169872
0.172000000000000014,78.978676897627977382
0.173000000000000015,76.396788848625732271
0.174000000000000016,73.884484832831873291
0.175000000000000017,71.434463054443398278
0.176000000000000018,69.039385761284378873
0.177000000000000018,66.692323777945006213
0.178000000000000019,64.387090613939477635
0.179000000000000020,62.118468347176005295
0.180000000000000021,59.882334402555969177
0.181000000000000022,57.675702608708419916
0.182000000000000023,55.496694065227778481
0.183000000000000024,53.344453898025470551
0.184000000000000025,51.219029372702053138
0.185000000000000026,49.121223456409857988
0.186000000000000026,47.052436076853823010
0.187000000000000027,45.014503264221048084
0.188000000000000028,43.009542258478795418
0.189000000000000029,41.039808649037681221
0.190000000000000030,39.107569771544788750
0.191000000000000031,37.214996968386330423
0.192000000000000032,35.364077949555351665
0.193000000000000033,33.556549373270200931
0.194000000000000034,31.793848891450117833
0.195000000000000034,30.077085254789231783
0.196000000000000035,28.407024620999198561
0.197000000000000036,26.784090930265382013
0.198000000000000037,25.208378075868360213
0.199000000000000038,23.679671577890839984
0.200000000000000039,22.197477538462230484
0.201000000000000040,20.761056795098351557
0.202000000000000041,19.369462374229314605
0.203000000000000042,18.021578562783144406
0.204000000000000042,16.716160147413937409
0.205000000000000043,15.451870607084178033
0.206000000000000044,14.227318276174415246
0.207000000000000045,13.041089715285153261
0.208000000000000046,11.891779730523349912
0.209000000000000047,10.778017666092784665
0.210000000000000048,9.698489757556433943
0.211000000000000049,8.651957473447790647
0.212000000000000050,7.637271891079178587
0.213000000000000050,6.653384249214274959
0.214000000000000051,5.699352896997521789
0.215000000000000052,4.774346916776023519
0.216000000000000053,3.877646740025515903
0.217000000000000054,3.008642102426302589
0.218000000000000055,2.166827698184465412
0.219000000000000056,1.351796896875241183
0.220000000000000057,0.563233880230857964
0.221000000000000058,-0.199095456870954868
0.222000000000000058,-0.935353515874212782
0.223000000000000059,-1.645641612349258764
0.224000000000000060,-2.330010926300015051
0.225000000000000061,-2.988473537376054256
0.226000000000000062,-3.621013326635841079
0.227000000000000063,-4.227596555963483382
0.228000000000000064,-4.808181965248119027
0.229000000000000065,-5.362730255465811169
0.230000000000000066,-5.891212852437451630
0.231000000000000066,-6.393619870965191687
0.232000000000000067,-6.869967222046956756
0.233000000000000068,-7.320302826792771000
0.234000000000000069,-7.744711919437092362
0.235000000000000070,-8.143321438438448467
0.236000000000000071,-8.516303519104051034
0.237000000000000072,-8.863878113535914594
0.238000000000000073,-9.186314774055725607
0.239000000000000073,-9.483933644740936586
0.240000000000000074,-9.757105712426502819
0.241000000000000075,-10.006252373630070807
0.242000000000000076,-10.231844377493416687
0.243000000000000077,-10.434400207145653638
0.244000000000000078,-10.614483963032634861
0.245000000000000079,-10.772702811865018546
0.246000000000000080,-10.909704064055439687
0.247000000000000081,-11.026171940974034413
0.248000000000000081,-11.122824091175283812
0.249000000000000082,-11.200407912053911730
0.250000000000000111,-11.259696730279440402
0.251000000000000112,-11.301485890933985701
0.252000000000000113,-11.326588801624838609
0.253000000000000114,-11.335832974037783671
0.254000000000000115,-11.330056101511200239
0.255000000000000115,-11.310102207301159893
0.256000000000000116,-11.276817894329479230
0.257000000000000117,-11.231048723401725553
0.258000000000000118,-11.173635743188492953
0.259000000000000119,-11.105412191711733882
0.260000000000000120,-11.027200385692527362
0.261000000000000121,-10.939808810915653936
0.262000000000000122,-10.844029423765789488
0.263000000000000123,-10.740635171297221007
0.264000000000000123,-10.630377734622065589
0.265000000000000124,-10.513985498041265032
0.266000000000000125,-10.392161744200324236
0.267000000000000126,-10.265583073622030597
0.268000000000000127,-10.134898045249338239
0.269000000000000128,-10.000726033114387903
0.270000000000000129,-9.863656292927485580
0.271000000000000130,-9.724247231242854284
0.272000000000000131,-9.583025868897298238
0.273000000000000131,-9.440487489621343542
0.274000000000000132,-9.297095464080848970
0.275000000000000133,-9.153281239108046918
0.276000000000000134,-9.009444481513485314
0.277000000000000135,-8.865953365624172022
0.278000000000000136,-8.723144993555768778
0.279000000000000137,-8.581325937188694297
0.280000000000000138,-8.440772890868633027
0.281000000000000139,-8.301733423980667936
0.282000000000000139,-8.164426822744768941
0.283000000000000140,-8.029045010838618879
0.284000000000000141,-7.895753538763730539
0.285000000000000142,-7.764692632224898361
0.286000000000000143,-7.635978290183134121
0.287000000000000144,-7.509703423661821198
0.288000000000000145,-7.385939026829409393
0.289000000000000146,-7.264735372341884378
0.290000000000000147,-7.146123223401508184
0.291000000000000147,-7.030115055468227681
0.292000000000000148,-6.916706281043955684
0.293000000000000149,-6.805876471432557473
0.294000000000000150,-6.697590569857235110
0.295000000000000151,-6.591800090789367239
0.296000000000000152,-6.488444300804545151
0.297000000000000153,-6.387451376733030095
0.298000000000000154,-6.288739537308128291
0.299000000000000155,-6.192218144938183677
0.300000000000000155,-6.097788774633040809
0.301000000000000156,-6.005346247503343449
0.302000000000000157,-5.914779626620612518
0.303000000000000158,-5.825973173376135961
0.304000000000000159,-5.738807262808223619
0.305000000000000160,-5.653159256678297773
0.306000000000000161,-5.568904333368852377
0.307000000000000162,-5.485916273948482136
0.308000000000000163,-5.404068204002317799
0.309000000000000163,-5.323233291060686767
0.310000000000000164,-5.243285397674223525
0.311000000000000165,-5.164099690381315000
0.312000000000000166,-5.085553204993908949
0.313000000000000167,-5.007525368790669340
0.314000000000000168,-4.929898480353431367
0.315000000000000169,-4.852558147914043829
0.316000000000000170,-4.775393687195158776
0.317000000000000171,-4.698298479830744334
0.318000000000000171,-4.621170293540612484
0.319000000000000172,-4.543911565309775469
0.320000000000000173,-4.466429648887270787
0.321000000000000174,-4.388637027972206894
0.322000000000000175,-4.310451496497291757
0.323000000000000176,-4.231796307452924566
0.324000000000000177,-4.152600291718462344
0.325000000000000178,-4.072797948382806510
0.326000000000000179,-3.992329508044147879
0.327000000000000179,-3.911140970579056297
0.328000000000000180,-3.829184118865368358
0.329000000000000181,-3.746416509931960181
0.330000000000000182,-3.662801444990649635
0.331000000000000183,-3.578307919784731617
0.332000000000000184,-3.492910556661802612
0.333000000000000185,-3.406589519749291473
0.334000000000000186,-3.319330414577847499
0.335000000000000187,-3.231124173461767501
0.336000000000000187,-3.141966927907446916
0.337000000000000188,-3.051859869280063808
0.338000000000000189,-2.960809098916812765
0.339000000000000190,-2.868825468831149195
0.340000000000000191,-2.775924414107701299
0.341000000000000192,-2.682125778042524722
0.342000000000000193,-2.587453631036337853
0.343000000000000194,-2.491936084203007162
0.344000000000000195,-2.395605098608080574
0.345000000000000195,-2.298496291006543402
0.346000000000000196,-2.200648736902255820
0.347000000000000197,-2.102104771706086339
0.348000000000000198,-2.002909790724735295
0.349000000000000199,-1.903112048667479739
0.350000000000000200,-1.802762459315043087
0.351000000000000201,-1.701914395951585224
0.352000000000000202,-1.600623493119667673
0.353000000000000203,-1.498947450217351207
0.354000000000000203,-1.396945837417133518
0.355000000000000204,-1.294679904348549515
0.356000000000000205,-1.192212391949235784
0.357000000000000206,-1.089607347853764674
0.358000000000000207,-0.986929945655205310
0.359000000000000208,-0.884246308341670728
0.360000000000000209,-0.781623336178444150
0.361000000000000210,-0.679128539276060650
0.362000000000000210,-0.576829875056051877
0.363000000000000211,-0.474795590798504641
0.364000000000000212,-0.373094071429536711
0.365000000000000213,-0.271793692681938537
0.366000000000000214,-0.170962679738886958
0.367000000000000215,-0.070668971448352047
0.368000000000000216,0.029019909824947954
0.369000000000000217,0.128036982663016441
0.370000000000000218,0.226315925344700741
0.371000000000000218,0.323791188871148328
0.372000000000000219,0.420398104271247519
0.373000000000000220,0.516072984206820573
0.374000000000000221,0.610753218911176732
0.375000000000000222,0.704377366507648262
0.376000000000000223,0.796885237766501886
0.377000000000000224,0.888217975369664403
0.378000000000000225,0.978318127762548229
0.379000000000000226,1.067129717681606138
0.380000000000000226,1.154598305454217932
0.381000000000000227,1.240671047175272657
0.382000000000000228,1.325296747871227199
0.383000000000000229,1.408425909768447948
0.384000000000000230,1.490010775788041641
0.385000000000000231,1.570005368393567968
0.386000000000000232,1.648365523922369347
0.387000000000000233,1.725048922534334395
0.388000000000000234,1.800015113914804843
0.389000000000000234,1.873225538870441742
0.390000000000000235,1.944643546958882752
0.391000000000000236,2.014234410293890498
0.392000000000000237,2.081965333669013596
0.393000000000000238,2.147805461142724859
0.394000000000000239,2.211725879228441993
0.395000000000000240,2.273699616832295156
0.396000000000000241,2.333701642080926675
0.397000000000000242,2.391708856180724485
0.398000000000000242,2.447700084448530156
0.399000000000000243,2.501656064652523437
0.400000000000000244,2.553559432800306173
0.401000000000000245,2.603394706508902257
0.402000000000000246,2.651148266089831118
0.403000000000000247,2.696808333479692177
0.404000000000000248,2.740364949144317386
0.405000000000000249,2.781809947082080736
0.406000000000000250,2.821136928049059911
0.407000000000000250,2.858341231126005688
0.408000000000000251,2.893419903744154809
0.409000000000000252,2.926371670283741011
0.410000000000000253,2.957196899356292263
0.411000000000000254,2.985897569878246838
0.412000000000000255,3.012477236040678186
0.413000000000000256,3.036940991276261048
0.414000000000000257,3.059295431321803260
0.415000000000000258,3.079548616470978217
0.416000000000000258,3.097710033108994843
0.417000000000000259,3.113790554617422934
0.418000000000000260,3.127802401734263604
0.419000000000000261,3.139759102451086470
0.420000000000000262,3.149675451525803638
0.421000000000000263,3.157567469686459738
0.422000000000000264,3.163452362598369483
0.423000000000000265,3.167348479663664396
0.424000000000000266,3.169275272719244807
0.425000000000000266,3.169253254696275057
0.426000000000000267,3.167303958301174394
0.427000000000000268,3.163449894775211657
0.428000000000000269,3.157714512786966576
0.429000000000000270,3.150122157509103182
0.430000000000000271,3.140698029928032486
0.431000000000000272,3.129468146432569764
0.432000000000000273,3.116459298724872706
0.433000000000000274,3.101699014094483342
0.434000000000000274,3.085215516093758659
0.435000000000000275,3.067037685650649159
0.436000000000000276,3.047195022652289698
0.437000000000000277,3.025717608030686900
0.438000000000000278,3.002636066379546609
0.439000000000000279,2.977981529129116289
0.440000000000000280,2.951785598303838132
0.441000000000000281,2.924080310885729173
0.442000000000000282,2.894898103804163902
0.443000000000000282,2.864271779571295529
0.444000000000000283,2.832234472580118734
0.445000000000000284,2.798819616080758799
0.446000000000000285,2.764060909848774283
0.447000000000000286,2.727992288557619549
0.448000000000000287,2.690647890866004754
0.449000000000000288,2.652062029229303786
0.450000000000000289,2.612269160442774130
0.451000000000000290,2.571303856923078168
0.452000000000000290,2.529200778733209809
0.453000000000000291,2.485994646354743320
0.454000000000000292,2.441720214210172379
0.455000000000000293,2.396412244936926950
0.456000000000000294,2.350105484413669732
0.457000000000000295,2.302834637538455631
0.458000000000000296,2.254634344757259434
0.459000000000000297,2.205539159340738298
0.460000000000000298,2.155583525405869061
0.461000000000000298,2.104801756678772229
0.462000000000000299,2.053228015993719069
0.463000000000000300,2.000896295523129975
0.464000000000000301,1.947840397732314655
0.465000000000000302,1.894093917052364517
0.466000000000000303,1.839690222263708819
0.467000000000000304,1.784662439582686222
0.468000000000000305,1.729043436442604387
0.469000000000000306,1.672865805960520813
0.470000000000000306,1.616161852080510553
0.471000000000000307,1.558963575383666811
0.472000000000000308,1.501302659554871743
0.473000000000000309,1.443210458495901349
0.474000000000000310,1.384717984074315567
0.475000000000000311,1.325855894496914100
0.476000000000000312,1.266654483296957290
0.477000000000000313,1.207143668923296831
0.478000000000000314,1.147352984920148478
0.479000000000000314,1.087311570685512985
0.480000000000000315,1.027048162796410313
0.481000000000000316,0.966591086888829110
0.482000000000000317,0.905968250080255055
0.483000000000000318,0.845207133922521336
0.484000000000000319,0.784334787872692951
0.485000000000000320,0.723377823269631071
0.486000000000000321,0.662362407803850362
0.487000000000000322,0.601314260468318817
0.488000000000000322,0.540258646977765822
0.489000000000000323,0.479220375644237140
0.490000000000000324,0.418223793696459900
0.491000000000000325,0.357292784030825983
0.492000000000000326,0.296450762381743504
0.493000000000000327,0.235720674899245086
0.494000000000000328,0.175124996121758997
0.495000000000000329,0.114685727332105095
0.496000000000000330,0.054424395284865180
0.497000000000000330,-0.005637948706667395
0.498000000000000331,-0.065480729335548937
0.499000000000000332,-0.125083847529691899
0.500000000000000333,-0.184427680355340240
0.501000000000000334,-0.243493080606581369
0.502000000000000335,-0.302261376092045453
0.503000000000000336,-0.360714368629646565
0.504000000000000337,-0.418834332760216754
0.505000000000000338,-0.476604014190518843
0.506000000000000338,-0.534006627976123971
0.507000000000000339,-0.591025856454425069
0.508000000000000340,-0.647645846937803471
0.509000000000000341,-0.703851209176870718
0.510000000000000342,-0.759627012603526053
0.511000000000000343,-0.814958783363349482
0.512000000000000344,-0.869832501146679204
0.513000000000000345,-0.924234595827487349
0.514000000000000346,-0.978151943919172262
0.515000000000000346,-1.031571864855867160
0.516000000000000347,-1.084482117107993693
0.517000000000000348,-1.136870894140421528
0.518000000000000349,-1.188726820221469138
0.519000000000000350,-1.240038946090711303
0.520000000000000351,-1.290796744493542647
0.521000000000000352,-1.340990105590039949
0.522000000000000353,-1.390609332245591023
0.523000000000000353,-1.439645135210685378
0.524000000000000354,-1.488088628196740038
0.525000000000000355,-1.535931322855083492
0.526000000000000356,-1.583165123665619900
0.527000000000000357,-1.629782322741811784
0.528000000000000358,-1.675775594558394532
0.529000000000000359,-1.721137990607750634
0.530000000000000360,-1.765862933991241501
0.531000000000000361,-1.809944213951080627
0.532000000000000361,-1.853375980348551666
0.533000000000000362,-1.896152738093909829
0.534000000000000363,-1.938269341533391144
0.535000000000000364,-1.979720988798404857
0.536000000000000365,-2.020503216121875223
0.537000000000000366,-2.060611892126595457
0.538000000000000367,-2.100043212090186628
0.539000000000000368,-2.138793692191215623
0.540000000000000369,-2.176860163740779175
0.541000000000000369,-2.214239767403745951
0.542000000000000370,-2.250929947413710774
0.543000000000000371,-2.286928445785559649
0.544000000000000372,-2.322233296529389257
0.545000000000000373,-2.356842819869374495
0.546000000000000374,-2.390755616471130107
0.547000000000000375,-2.423970561680789615
0.548000000000000376,-2.456486799779130870
0.549000000000000377,-2.488303738253718311
0.550000000000000377,-2.519421042092117258
0.551000000000000378,-2.549838628098889171
0.552000000000000379,-2.579556659239188754
0.553000000000000380,-2.608575539011458666
0.554000000000000381,-2.636895905851739830
0.555000000000000382,-2.664518627571964782
0.556000000000000383,-2.691444795834426529
0.557000000000000384,-2.717675720664622929
0.558000000000000385,-2.743212925004468783
0.559000000000000385,-2.768058139307846943
0.560000000000000386,-2.792213296180281468
0.561000000000000387,-2.815680525064519379
0.562000000000000388,-2.838462146973621092
0.563000000000000389,-2.860560669273152890
0.564000000000000390,-2.881978780513874128
0.565000000000000391,-2.902719345316376653
0.566000000000000392,-2.922785399308890142
0.567000000000000393,-2.942180144119517227
0.568000000000000393,-2.960906942423954025
0.569000000000000394,-2.978969313049841361
0.570000000000000395,-2.996370926138651747
0.571000000000000396,-3.013115598365989634
0.572000000000000397,-3.029207288221241079
0.573000000000000398,-3.044650091347235854
0.574000000000000399,-3.059448235940638305
0.575000000000000400,-3.073606078213756199
0.576000000000000401,-3.087128097918247160
0.577000000000000401,-3.100018893931319131
0.578000000000000402,-3.112283179904816510
0.579000000000000403,-3.123925779977616113
0.580000000000000404,-3.134951624551678417
0.581000000000000405,-3.145365746132013918
0.582000000000000406,-3.155173275230860330
0.583000000000000407,-3.164379436336171914
0.584000000000000408,-3.172989543944701119
0.585000000000000409,-3.181008998659609510
0.586000000000000409,-3.188443283352799362
0.587000000000000410,-3.195297959391925069
0.588000000000000411,-3.201578662932029751
0.589000000000000412,-3.207291101271830591
0.590000000000000413,-3.212441049274442406
0.591000000000000414,-3.217034345852499033
0.592000000000000415,-3.221076890517461155
0.593000000000000416,-3.224574639992885405
0.594000000000000417,-3.227533604891477559
0.595000000000000417,-3.229959846455632722
0.596000000000000418,-3.231859473361148982
0.597000000000000419,-3.233238638583884494
0.598000000000000420,-3.234103536328873041
0.599000000000000421,-3.234460399021693355
0.600000000000000422,-3.234315494361561516
0.601000000000000423,-3.233675122435800908
0.602000000000000424,-3.232545612895253662
0.603000000000000425,-3.230933322190193913
0.604000000000000425,-3.228844630866160692
0.605000000000000426,-3.226285940919398687
0.606000000000000427,-3.223263673211247404
0.607000000000000428,-3.219784264941001339
0.608000000000000429,-3.215854167176755318
0.609000000000000430,-3.211479842443576871
0.610000000000000431,-3.206667762368559771
0.611000000000000432,-3.201424405382058413
0.612000000000000433,-3.195756254474606539
0.613000000000000433,-3.189669795008895470
0.614000000000000434,-3.183171512586164376
0.615000000000000435,-3.176267890966411933
