# AuFCC100-Ablate100_CS-86862-AC
# h[nm],U(h)[kJ/mol]
0.200000000000000011,138.979780167937121860
0.201000000000000012,129.649250609638272635
0.202000000000000013,124.341797115523107209
0.203000000000000014,120.844136205218589453
0.204000000000000015,117.924231256709433069
0.205000000000000016,114.967014413831321917
0.206000000000000016,111.728007353239064514
0.207000000000000017,108.170542667903035294
0.208000000000000018,104.361469994801311145
0.209000000000000019,100.407108900750102976
0.210000000000000020,96.416334068039574845
0.211000000000000021,92.481471243554921102
0.212000000000000022,88.670470306185578124
0.213000000000000023,85.025854104226795016
0.214000000000000024,81.567408922904476754
0.215000000000000024,78.296629553401288604
0.216000000000000025,75.201668870754332374
0.217000000000000026,72.262051560217315682
0.218000000000000027,69.452756480349549406
0.219000000000000028,66.747498663237550431
0.220000000000000029,64.121184670745222434
0.221000000000000030,61.551599394655248432
0.222000000000000031,59.020426986972360339
0.223000000000000032,56.513726860388295847
0.224000000000000032,54.021987188770580701
0.225000000000000033,51.539869794874576314
0.226000000000000034,49.065746373847517248
0.227000000000000035,46.601109777610773222
0.228000000000000036,44.149927589762945956
0.229000000000000037,41.717989686513277547
0.230000000000000038,39.312287595843351085
0.231000000000000039,36.940451553524859207
0.232000000000000040,34.610261284932562376
0.233000000000000040,32.329238635478553476
0.234000000000000041,30.104324059017567805
0.235000000000000042,27.941634435421725868
0.236000000000000043,25.846296491857650324
0.237000000000000044,23.822348016206639443
0.238000000000000045,21.872697859503983153
0.239000000000000046,19.999135232789114980
0.240000000000000047,18.202378842535669179
0.241000000000000048,16.482156833362761716
0.242000000000000048,14.837309196860099192
0.243000000000000049,13.265905163438176828
0.244000000000000050,11.765369042641548702
0.245000000000000051,10.332608956370751940
0.246000000000000052,8.964143874015020330
0.247000000000000053,7.656225276178415307
0.248000000000000054,6.404950622387256765
0.249000000000000055,5.206366564077900883
0.250000000000000056,4.056560519998670955
0.251000000000000056,2.951739814674410489
0.252000000000000057,1.888298073289509826
0.253000000000000058,0.862868972480738572
0.254000000000000059,-0.127632227826079692
0.255000000000000060,-1.085978693991595412
0.256000000000000061,-2.014612705054637409
0.257000000000000062,-2.915636021555544133
0.258000000000000063,-3.790808861896405091
0.259000000000000064,-4.641556372450480694
0.260000000000000064,-5.468981473185801079
0.261000000000000065,-6.273882983977159711
0.262000000000000066,-7.056777982106979152
0.263000000000000067,-7.817927403415102283
0.264000000000000068,-8.557363973539686697
0.265000000000000069,-9.274921637718675171
0.266000000000000070,-9.970265744321583412
0.267000000000000071,-10.642923325849283245
0.268000000000000071,-11.292312909271522869
0.269000000000000072,-11.917773373435059270
0.270000000000000073,-12.518591453434977367
0.271000000000000074,-13.094027569225636043
0.272000000000000075,-13.643339727591827781
0.273000000000000076,-14.165805312398138227
0.274000000000000077,-14.660740637508379081
0.275000000000000078,-15.127518189813832450
0.276000000000000079,-15.565581536480328495
0.277000000000000079,-15.974457910988238751
0.278000000000000080,-16.353768527052245929
0.279000000000000081,-16.703236698401312310
0.280000000000000082,-17.022693866046331834
0.281000000000000083,-17.312083653474697797
0.282000000000000084,-17.571464084611889689
0.283000000000000085,-17.801008109814738134
0.284000000000000086,-18.001002592038151562
0.285000000000000087,-18.171845909065950764
0.286000000000000087,-18.314044328722022925
0.287000000000000088,-18.428207312660109807
0.288000000000000089,-18.515041901031146665
0.289000000000000090,-18.575346325377473988
0.290000000000000091,-18.610002990809761059
0.291000000000000092,-18.619970961165961398
0.292000000000000093,-18.606278072680535018
0.293000000000000094,-18.570012792934399215
0.294000000000000095,-18.512315932708311550
0.295000000000000095,-18.434372309000192303
0.296000000000000096,-18.337402448041139280
0.297000000000000097,-18.222654407784624198
0.298000000000000098,-18.091395790157733359
0.299000000000000099,-17.944906004444668213
0.300000000000000100,-17.784468834592225051
0.301000000000000101,-17.611365355046331160
0.302000000000000102,-17.426867231991629126
0.303000000000000103,-17.232230439605697114
0.304000000000000103,-17.028689414178700190
0.305000000000000104,-16.817451662701209614
0.306000000000000105,-16.599692836792932837
0.307000000000000106,-16.376552277629834009
0.308000000000000107,-16.149129032821956997
0.309000000000000108,-15.918478341983700375
0.310000000000000109,-15.685608584007749045
0.311000000000000110,-15.451478675783466343
0.312000000000000111,-15.216995909267344800
0.313000000000000111,-14.983014211394699799
0.314000000000000112,-14.750332809291482050
0.315000000000000113,-14.519695281577437385
0.316000000000000114,-14.291788975221427549
0.317000000000000115,-14.067244766387684507
0.318000000000000116,-13.846637142974509871
0.319000000000000117,-13.630484586067066033
0.320000000000000118,-13.419250227278917365
0.321000000000000119,-13.213342758918827258
0.322000000000000119,-13.013117574067015525
0.323000000000000120,-12.818878113956197140
0.324000000000000121,-12.630877400506918207
0.325000000000000122,-12.449319732444463327
0.326000000000000123,-12.274362524107020889
0.327000000000000124,-12.106118266825390606
0.328000000000000125,-11.944656593598285355
0.329000000000000126,-11.790006428687505036
0.330000000000000127,-11.642158204703147106
0.331000000000000127,-11.501066130727673809
0.332000000000000128,-11.366650496026917239
0.333000000000000129,-11.238799994908548641
0.334000000000000130,-11.117374059302949973
0.335000000000000131,-11.002205186652595614
0.336000000000000132,-10.893101251694067955
0.337000000000000133,-10.789847791699228807
0.338000000000000134,-10.692210255700356214
0.339000000000000135,-10.599936209156869182
0.340000000000000135,-10.512757486422239950
0.341000000000000136,-10.430392284237830935
0.342000000000000137,-10.352547190312296976
0.343000000000000138,-10.278919141838890994
0.344000000000000139,-10.209197309557522360
0.345000000000000140,-10.143064903682745381
0.346000000000000141,-10.080200898691517253
0.347000000000000142,-10.020281674596876798
0.348000000000000143,-9.962982572924392599
0.349000000000000143,-9.907979366158022216
0.350000000000000144,-9.854949639932165439
0.351000000000000145,-9.803574087716814489
0.352000000000000146,-9.753537718174822402
0.353000000000000147,-9.704530975764884104
0.354000000000000148,-9.656250775522469354
0.355000000000000149,-9.608401453274671766
0.356000000000000150,-9.560695632835521707
0.357000000000000151,-9.512855011986960818
0.358000000000000151,-9.464611069279063926
0.359000000000000152,-9.415705693882602034
0.360000000000000153,-9.365891740899629170
0.361000000000000154,-9.314933514684350158
0.362000000000000155,-9.262607182849468046
0.363000000000000156,-9.208701123733330718
0.364000000000000157,-9.153016210182224555
0.365000000000000158,-9.095366032562491654
0.366000000000000159,-9.035577063958015742
0.367000000000000159,-8.973488770534254755
0.368000000000000160,-8.908953670059542418
0.369000000000000161,-8.841837341570016662
0.370000000000000162,-8.772018389147703488
0.371000000000000163,-8.699388362752959125
0.372000000000000164,-8.623851639013148329
0.373000000000000165,-8.545325264821988398
0.374000000000000166,-8.463738766547059811
0.375000000000000167,-8.379033927579568442
0.376000000000000167,-8.291164536890718750
0.377000000000000168,-8.200096111183135861
0.378000000000000169,-8.105805593146024890
0.379000000000000170,-8.008281028238691590
0.380000000000000171,-7.907521222339616074
0.381000000000000172,-7.803535382508783869
0.382000000000000173,-7.696342743018886878
0.383000000000000174,-7.585972178718419556
0.384000000000000175,-7.472461807695080616
0.385000000000000175,-7.355858585114039450
0.386000000000000176,-7.236217890010950171
0.387000000000000177,-7.113603106725706837
0.388000000000000178,-6.988085202569862986
0.389000000000000179,-6.859742303228308913
0.390000000000000180,-6.728659267305286740
0.391000000000000181,-6.594927261335440605
0.392000000000000182,-6.458643336493643972
0.393000000000000183,-6.319910008151575553
0.394000000000000183,-6.178834839346476038
0.395000000000000184,-6.035530029146403130
0.396000000000000185,-5.890112006818075230
0.397000000000000186,-5.742701032627854474
0.398000000000000187,-5.593420806033154946
0.399000000000000188,-5.442398081951075106
0.400000000000000189,-5.289762295723798857
0.401000000000000190,-5.135645197334826051
0.402000000000000191,-4.980180495368736970
0.403000000000000191,-4.823503511147163358
0.404000000000000192,-4.665750843417706406
0.405000000000000193,-4.507060043918471592
0.406000000000000194,-4.347569304089979880
0.407000000000000195,-4.187417153158098593
0.408000000000000196,-4.026742167765588576
0.409000000000000197,-3.865682693287287641
0.410000000000000198,-3.704376576923293474
0.411000000000000199,-3.542960912626469394
0.412000000000000199,-3.381571797885162489
0.413000000000000200,-3.220344102349001592
0.414000000000000201,-3.059411248254496396
0.415000000000000202,-2.898905002578606727
0.416000000000000203,-2.738955280822285232
0.417000000000000204,-2.579689962300883543
0.418000000000000205,-2.421234716796654141
0.419000000000000206,-2.263712842407573866
0.420000000000000207,-2.107245114407964692
0.421000000000000207,-1.951949644920125237
0.422000000000000208,-1.797941753179938429
0.423000000000000209,-1.645333846166819658
0.424000000000000210,-1.494235309355476993
0.425000000000000211,-1.344752407336692990
0.426000000000000212,-1.196988194044996678
0.427000000000000213,-1.051042432322974118
0.428000000000000214,-0.907011522545510429
0.429000000000000214,-0.764988440021274752
0.430000000000000215,-0.625062680884614030
0.431000000000000216,-0.487320216187545618
0.432000000000000217,-0.351843453898709024
0.433000000000000218,-0.218711208514985905
0.434000000000000219,-0.087998677990511948
0.435000000000000220,0.040222572312108199
0.436000000000000221,0.165884618942799378
0.437000000000000222,0.288923183250180238
0.438000000000000222,0.409277628123760118
0.439000000000000223,0.526890948880338383
0.440000000000000224,0.641709758579808831
0.441000000000000225,0.753684268051670103
0.442000000000000226,0.862768260909399842
0.443000000000000227,0.968919063825767979
0.444000000000000228,1.072097512336745329
0.445000000000000229,1.172267912436945281
0.446000000000000230,1.269397998223731117
0.447000000000000230,1.363458885841716040
0.448000000000000231,1.454425023973131559
0.449000000000000232,1.542274141113653574
0.450000000000000233,1.626987189866883954
0.451000000000000234,1.708548288484173394
0.452000000000000235,1.786944659870137730
0.453000000000000236,1.862166568267446198
0.454000000000000237,1.934207253827660455
0.455000000000000238,2.003062865268538495
0.456000000000000238,2.068732390810955390
0.457000000000000239,2.131217587582342254
0.458000000000000240,2.190522909666223761
0.459000000000000241,2.246655434971299048
0.460000000000000242,2.299624791086212205
0.461000000000000243,2.349443080280004370
0.462000000000000244,2.396124803801278347
0.463000000000000245,2.439686785622902754
0.464000000000000246,2.480148095772360062
0.465000000000000246,2.517529973381708253
0.466000000000000247,2.551855749584784672
0.467000000000000248,2.583150770383280559
0.468000000000000249,2.611442319597030437
0.469000000000000250,2.636759542008300095
0.470000000000000251,2.659133366803802190
0.471000000000000252,2.678596431412787915
0.472000000000000253,2.695183005833704293
0.473000000000000254,2.708928917536971515
0.474000000000000254,2.719871477025848083
0.475000000000000255,2.728049404132392830
0.476000000000000256,2.733502755120700733
0.477000000000000257,2.736272850664529521
0.478000000000000258,2.736402204762003798
0.479000000000000259,2.733934454645551959
0.480000000000000260,2.728914291740661024
0.481000000000000261,2.721387393723147419
0.482000000000000262,2.711400357720184839
0.483000000000000262,2.699000634696826495
0.484000000000000263,2.684236465065532151
0.485000000000000264,2.667156815553012539
0.486000000000000265,2.647811317354722416
0.487000000000000266,2.626250205604417687
0.488000000000000267,2.602524260182720539
0.489000000000000268,2.576684747885446658
0.490000000000000269,2.548783365969852888
0.491000000000000270,2.518872187093676995
0.492000000000000270,2.487003605659540817
0.493000000000000271,2.453230285574334868
0.494000000000000272,2.417605109431199217
0.495000000000000273,2.380181129118740024
0.496000000000000274,2.341011517860621893
0.497000000000000275,2.300149523686020103
0.498000000000000276,2.257648424329552039
0.499000000000000277,2.213561483557680898
0.500000000000000222,2.167941908916279026
0.501000000000000334,2.120842810892977326
0.502000000000000224,2.072317163485728031
0.503000000000000336,2.022417766167965869
0.504000000000000226,1.971197207239177684
0.505000000000000338,1.918707828548245065
0.506000000000000227,1.865001691576059883
0.507000000000000339,1.810130544862326829
0.508000000000000229,1.754145792760906986
0.509000000000000341,1.697098465506418297
0.510000000000000231,1.639039190574741456
0.511000000000000343,1.580018165318339163
0.512000000000000233,1.520085130857431688
0.513000000000000345,1.459289347206447207
0.514000000000000234,1.397679569615462025
0.515000000000000346,1.335304026104916719
0.516000000000000236,1.272210396172179125
0.517000000000000348,1.208445790647218576
0.518000000000000238,1.144056732675221122
0.519000000000000350,1.079089139802540842
0.520000000000000240,1.013588307143224343
0.521000000000000352,0.947598891601963977
0.522000000000000242,0.881164897130214841
0.523000000000000353,0.814329660990892434
0.524000000000000243,0.747135841008208068
0.525000000000000355,0.679625403777830983
0.526000000000000245,0.611839613813677463
0.527000000000000357,0.543819023606547325
0.528000000000000247,0.475603464570851731
0.529000000000000359,0.407232038854810685
0.530000000000000249,0.338743111990314205
0.531000000000000361,0.270174306358141603
0.532000000000000250,0.201562495444947032
0.533000000000000362,0.132943798867844409
0.534000000000000252,0.064353578143628742
0.535000000000000364,-0.004173566821576302
0.536000000000000254,-0.072603800544459876
0.537000000000000366,-0.140904054102278464
0.538000000000000256,-0.209042026618173532
0.539000000000000368,-0.276986186117045896
0.540000000000000258,-0.344705769773600235
0.541000000000000369,-0.412170783574961397
0.542000000000000259,-0.479352001418753226
0.543000000000000371,-0.546220963668467840
0.544000000000000261,-0.612749975186582918
0.545000000000000373,-0.678912102866218614
0.546000000000000263,-0.744681172681288306
0.547000000000000375,-0.810031766275443155
0.548000000000000265,-0.874939217108646083
0.549000000000000377,-0.939379606181235283
0.550000000000000266,-1.003329757353538687
0.551000000000000378,-1.066767232280028344
0.552000000000000268,-1.129670324975529327
0.553000000000000380,-1.192018056031489248
0.554000000000000270,-1.253790166499230363
0.555000000000000382,-1.314967111457355120
0.556000000000000272,-1.375530053279483855
0.557000000000000384,-1.435460854618624493
0.558000000000000274,-1.494742071123775329
0.559000000000000385,-1.553356943904143028
0.560000000000000275,-1.611289391755789113
0.561000000000000387,-1.668524003165475111
0.562000000000000277,-1.725046028105555962
0.563000000000000389,-1.780841369634109217
0.564000000000000279,-1.835896575313309187
0.565000000000000391,-1.890198828459480840
0.566000000000000281,-1.943735939237106081
0.567000000000000393,-1.996496335609505790
0.568000000000000282,-2.048469054157749270
0.569000000000000394,-2.099643730779756634
0.570000000000000284,-2.150010591280367755
0.571000000000000396,-2.199560441863823712
0.572000000000000286,-2.248284659538652086
0.573000000000000398,-2.296175182445550522
0.574000000000000288,-2.343224500117828235
0.575000000000000400,-2.389425643684254474
0.576000000000000290,-2.434772176023129120
0.577000000000000401,-2.479258181876874634
0.578000000000000291,-2.522878257935331270
0.579000000000000403,-2.565627502896331347
0.580000000000000293,-2.607501507511220673
0.581000000000000405,-2.648496344623322507
0.582000000000000295,-2.688608559206271842
0.583000000000000407,-2.727835158409802396
0.584000000000000297,-2.766173601619251521
0.585000000000000409,-2.803621790535824054
0.586000000000000298,-2.840178059283386514
0.587000000000000410,-2.875841164548201156
0.588000000000000300,-2.910610275756957410
0.589000000000000412,-2.944484965298923562
0.590000000000000302,-2.977465198797124124
0.591000000000000414,-3.009551325433833746
0.592000000000000304,-3.040744068334904959
0.593000000000000416,-3.071044515017613552
0.594000000000000306,-3.100454107906220003
0.595000000000000417,-3.128974634919492903
0.596000000000000307,-3.156608220133807485
0.597000000000000419,-3.183357314525784965
0.598000000000000309,-3.209224686797761628
0.599000000000000421,-3.234213414289361488
0.600000000000000311,-3.258326873978355742
0.601000000000000423,-3.281568733573673402
0.602000000000000313,-3.303942942703149921
0.603000000000000425,-3.325453724198854211
0.604000000000000314,-3.346105565482014210
0.605000000000000426,-3.365903210050093630
0.606000000000000316,-3.384851649067806001
0.607000000000000428,-3.402956113064124821
0.608000000000000318,-3.420222063737020424
0.609000000000000430,-3.436655185867491635
0.610000000000000320,-3.452261379344357728
0.611000000000000432,-3.467046751301216201
0.612000000000000322,-3.481017608366681948
0.613000000000000433,-3.494180449029039348
0.614000000000000323,-3.506541956116267844
0.615000000000000435,-3.518108989392259467
0.616000000000000325,-3.528888578269892662
0.617000000000000437,-3.538887914641751564
0.618000000000000327,-3.548114345828798033
0.619000000000000439,-3.556575367647541785
0.620000000000000329,-3.564278617595979970
0.621000000000000441,-3.571231868158494027
0.622000000000000330,-3.577443020229899240
0.623000000000000442,-3.582920096658639864
0.624000000000000332,-3.587671235909052569
0.625000000000000444,-3.591704685842715072
0.626000000000000334,-3.595028797618501581
0.627000000000000446,-3.597652019711222060
0.628000000000000336,-3.599582892048432736
0.629000000000000448,-3.600830040265043497
0.630000000000000338,-3.601402170075182596
0.631000000000000449,-3.601308061760917667
0.632000000000000339,-3.600556564777132706
0.633000000000000451,-3.599156592471936644
0.634000000000000341,-3.597117116921928037
0.635000000000000453,-3.594447163881627549
0.636000000000000343,-3.591155807846106995
0.637000000000000455,-3.587252167226221644
0.638000000000000345,-3.582745399635322237
0.639000000000000457,-3.577644697286705533
0.640000000000000346,-3.571959282500769994
0.641000000000000458,-3.565698403320863630
0.642000000000000348,-3.558871329236863001
0.643000000000000460,-3.551487347015344742
0.644000000000000350,-3.543555756635354381
0.645000000000000462,-3.535085867328542797
0.646000000000000352,-3.526086993722641783
0.647000000000000464,-3.516568452087029506
0.648000000000000353,-3.506539556679284519
0.649000000000000465,-3.496009616191381841
0.650000000000000355,-3.484987930294500380
0.651000000000000467,-3.473483786280985530
0.652000000000000357,-3.461506455802434434
0.653000000000000469,-3.449065191702358923
0.654000000000000359,-3.436169224942474010
0.655000000000000471,-3.422827761620989229
0.656000000000000361,-3.409049980081833464
0.657000000000000473,-3.394845028113357532
0.658000000000000362,-3.380222020235291502
0.659000000000000474,-3.365190035072545438
0.660000000000000364,-3.349758112814591016
0.661000000000000476,-3.333935252759022028
0.662000000000000366,-3.317730410938028118
0.663000000000000478,-3.301152497826335797
