# AuFCC100-Ablate100_CS-61591-AC
# h[nm],U(h)[kJ/mol]
0.200000000000000011,158.377727620166439237
0.201000000000000012,148.236298672305622404
0.202000000000000013,142.785351803023274897
0.203000000000000014,139.446801725270177030
0.204000000000000015,136.777438093070713876
0.205000000000000016,134.050403206237149334
0.206000000000000016,130.971365876133802431
0.207000000000000017,127.490389227833702535
0.208000000000000018,123.680891385517682579
0.209000000000000019,119.664897314355698654
0.210000000000000020,115.569596966078208311
0.211000000000000021,111.504536741885118545
0.212000000000000022,107.551945247470627010
0.213000000000000023,103.765011848156319729
0.214000000000000024,100.170612798021295475
0.215000000000000024,96.774178621935533329
0.216000000000000025,93.565242359185475607
0.217000000000000026,90.522795222538348980
0.218000000000000027,87.619974867531553286
0.219000000000000028,84.827874663850479919
0.220000000000000029,82.118429399155644433
0.221000000000000030,79.466432710600997780
0.222000000000000031,76.850795434780167170
0.223000000000000032,74.255177349389924757
0.224000000000000032,71.668128436346819399
0.225000000000000033,69.082867569904863103
0.226000000000000034,66.496811779273699017
0.227000000000000035,63.910951564976357986
0.228000000000000036,61.329149515298389872
0.229000000000000037,58.757422131481419569
0.230000000000000038,56.203249158542689656
0.231000000000000039,53.674941234031635418
0.232000000000000040,51.181085425453311188
0.233000000000000040,48.730079162387035296
0.234000000000000041,46.329756006988255024
0.235000000000000042,43.987101414808464028
0.236000000000000043,41.708052862377634540
0.237000000000000044,39.497376204694703006
0.238000000000000045,37.358608635021326450
0.239000000000000046,35.294057934106419339
0.240000000000000047,33.304847625598370087
0.241000000000000048,31.390998035926582332
0.242000000000000048,29.551533954172452212
0.243000000000000049,27.784610489154392354
0.244000000000000050,26.087649738346762263
0.245000000000000051,24.457481947196431094
0.246000000000000052,22.890485895671105254
0.247000000000000053,21.382724263380151086
0.248000000000000054,19.930070668983812965
0.249000000000000055,18.528325936924133543
0.250000000000000056,17.173321905342586291
0.251000000000000056,15.861011749780008273
0.252000000000000057,14.587546358638272537
0.253000000000000058,13.349336762376680099
0.254000000000000059,12.143102995176406012
0.255000000000000060,10.965910062937492597
0.256000000000000061,9.815191913375596044
0.257000000000000062,8.688764461401248695
0.258000000000000063,7.584828824593088825
0.259000000000000064,6.501965977824184506
0.260000000000000064,5.439124050882131911
0.261000000000000065,4.395599475550391766
0.262000000000000066,3.371013145709684800
0.263000000000000067,2.365282691493523437
0.264000000000000068,1.378591891576593120
0.265000000000000069,0.411358160785888605
0.266000000000000070,-0.535801042767057867
0.267000000000000071,-1.462102142723786802
0.268000000000000071,-2.366629049514588967
0.269000000000000072,-3.248365887482181247
0.270000000000000073,-4.106228376889371923
0.271000000000000074,-4.939093489485669508
0.272000000000000075,-5.745827076434438574
0.273000000000000076,-6.525309241144124250
0.274000000000000077,-7.276457296532794494
0.275000000000000078,-7.998246206311033113
0.276000000000000079,-8.689726463002017454
0.277000000000000079,-9.350039401768848180
0.278000000000000080,-9.978429988933410044
0.279000000000000081,-10.574257157683367936
0.280000000000000082,-11.137001791258082761
0.281000000000000083,-11.666272476313048756
0.282000000000000084,-12.161809166637358004
0.283000000000000085,-12.623484910405164072
0.284000000000000086,-13.051305803144151341
0.285000000000000087,-13.445409334057297102
0.286000000000000087,-13.806061295680162715
0.287000000000000088,-14.133651426513818450
0.288000000000000089,-14.428687953639235175
0.289000000000000090,-14.691791197762762877
0.290000000000000091,-14.923686397001372228
0.291000000000000092,-15.125195898307117304
0.292000000000000093,-15.297230857028193185
0.293000000000000094,-15.440782575968082568
0.294000000000000095,-15.556913605654443700
0.295000000000000095,-15.646748717567245279
0.296000000000000096,-15.711465851970894292
0.297000000000000097,-15.752287131897972472
0.298000000000000098,-15.770470024868004089
0.299000000000000099,-15.767298724200069060
0.300000000000000100,-15.744075812379282553
0.301000000000000101,-15.702114259934912610
0.302000000000000102,-15.642729804737342647
0.303000000000000103,-15.567233748562832929
0.304000000000000103,-15.476926200238523279
0.305000000000000104,-15.373089787684961038
0.306000000000000105,-15.256983854727977246
0.307000000000000106,-15.129839152657552859
0.308000000000000107,-14.992853031165314093
0.309000000000000108,-14.847185128480457905
0.310000000000000109,-14.693953556234077951
0.311000000000000110,-14.534231570792588428
0.312000000000000111,-14.369044719491171236
0.313000000000000111,-14.199368447343212907
0.314000000000000112,-14.026126147375478581
0.315000000000000113,-13.850187635713471224
0.316000000000000114,-13.672368030890902801
0.317000000000000115,-13.493427015550793158
0.318000000000000116,-13.314068457717818106
0.319000000000000117,-13.134940368123201537
0.320000000000000118,-12.956635169628333060
0.321000000000000119,-12.779690254594578747
0.322000000000000119,-12.604588806060778694
0.323000000000000120,-12.431760858790914526
0.324000000000000121,-12.261584576621178400
0.325000000000000122,-12.094387723046050809
0.326000000000000123,-11.930449302616590757
0.327000000000000124,-11.770001351462685335
0.328000000000000125,-11.613230856077715103
0.329000000000000126,-11.460281780400588758
0.330000000000000127,-11.311257182184146330
0.331000000000000127,-11.166221400636311856
0.332000000000000128,-11.025202298347245744
0.333000000000000129,-10.888193541563724764
0.334000000000000130,-10.755156903928627443
0.335000000000000131,-10.626024579862212605
0.336000000000000132,-10.500701494812375358
0.337000000000000133,-10.379067600639375613
0.338000000000000134,-10.260980145417722298
0.339000000000000135,-10.146275907931736171
0.340000000000000135,-10.034773388104559544
0.341000000000000136,-9.926274945531968541
0.342000000000000137,-9.820568879187492328
0.343000000000000138,-9.717431442222629556
0.344000000000000139,-9.616628786602912982
0.345000000000000140,-9.517918833096921105
0.346000000000000141,-9.421053062868200101
0.347000000000000142,-9.325778227611369431
0.348000000000000143,-9.231837975821608921
0.349000000000000143,-9.138974393391389839
0.350000000000000144,-9.046929457291790655
0.351000000000000145,-8.955446401616420360
0.352000000000000146,-8.864270995746684534
0.353000000000000147,-8.773152734837688982
0.354000000000000148,-8.681845943226569773
0.355000000000000149,-8.590110791729586026
0.356000000000000150,-8.497714230124142176
0.357000000000000151,-8.404430836406529437
0.358000000000000151,-8.310043584678671991
0.359000000000000152,-8.214344533748134225
0.360000000000000153,-8.117135438727698826
0.361000000000000154,-8.018228288094345402
0.362000000000000155,-7.917445768815215779
0.363000000000000156,-7.814621662271174607
0.364000000000000157,-7.709601173808415808
0.365000000000000158,-7.602241198827579538
0.366000000000000159,-7.492410528377971168
0.367000000000000159,-7.379989997265089308
0.368000000000000160,-7.264872577703203937
0.369000000000000161,-7.146963421552001705
0.370000000000000162,-7.026179854170377048
0.371000000000000163,-6.902451322901153041
0.372000000000000164,-6.775719303169066343
0.373000000000000165,-6.645937165133683600
0.374000000000000166,-6.513070003787333917
0.375000000000000167,-6.377094435329531130
0.376000000000000167,-6.237998362582731993
0.377000000000000168,-6.095780712141413815
0.378000000000000169,-5.950451145868203007
0.379000000000000170,-5.802029749268046821
0.380000000000000171,-5.650546699184047839
0.381000000000000172,-5.496041913169275261
0.382000000000000173,-5.338564682795633232
0.383000000000000174,-5.178173293067179550
0.384000000000000175,-5.014934630008911931
0.385000000000000175,-4.848923778406114771
0.386000000000000176,-4.680223611572086106
0.387000000000000177,-4.508924374925570078
0.388000000000000178,-4.335123265063129949
0.389000000000000179,-4.158924005915934252
0.390000000000000180,-3.980436423486859887
0.391000000000000181,-3.799776020570471591
0.392000000000000182,-3.617063552768224888
0.393000000000000183,-3.432424607021323570
0.394000000000000183,-3.245989183797589384
0.395000000000000184,-3.057891283983674491
0.396000000000000185,-2.868268501451667341
0.397000000000000186,-2.677261622190108437
0.398000000000000187,-2.485014230811909197
0.399000000000000188,-2.291672325177755098
0.400000000000000189,-2.097383939802366370
0.401000000000000190,-1.902298778641823063
0.402000000000000191,-1.706567857795448173
0.403000000000000191,-1.510343158591835433
0.404000000000000192,-1.313777291469620412
0.405000000000000193,-1.117023171005962823
0.406000000000000194,-0.920233702391774266
0.407000000000000195,-0.723561479601399271
0.408000000000000196,-0.527158495455568810
0.409000000000000197,-0.331175863730864550
0.410000000000000198,-0.135763553425793132
0.411000000000000199,0.058929864747301684
0.412000000000000199,0.252757459613007218
0.413000000000000200,0.445574168530206371
0.414000000000000201,0.637237014173309357
0.415000000000000202,0.827605309165332814
0.416000000000000203,1.016540848658736618
0.417000000000000204,1.203908090987188206
0.418000000000000205,1.389574326534471549
0.419000000000000206,1.573409834989598632
0.420000000000000207,1.755288031177359098
0.421000000000000207,1.935085599671087619
0.422000000000000208,2.112682618412098368
0.423000000000000209,2.287962671573872342
0.424000000000000210,2.460812951923082359
0.425000000000000211,2.631124352940785283
0.426000000000000212,2.798791550977255405
0.427000000000000213,2.963713077722925693
0.428000000000000214,3.125791383284899805
0.429000000000000214,3.284932890165252584
0.430000000000000215,3.441048038441898882
0.431000000000000216,3.594051322456704778
0.432000000000000217,3.743861319318890768
0.433000000000000218,3.890400709533017753
0.434000000000000219,4.033596290062241074
0.435000000000000220,4.173378980137541383
0.436000000000000221,4.309683820123004772
0.437000000000000222,4.442449963745852770
0.438000000000000222,4.571620663997813416
0.439000000000000223,4.697143253011774711
0.440000000000000224,4.818969116214533166
0.441000000000000225,4.937053661052556386
0.442000000000000226,5.051356280583236824
0.443000000000000227,5.161840312220006055
0.444000000000000228,5.268472991913931480
0.445000000000000229,5.371225404049518204
0.446000000000000230,5.470072427326312159
0.447000000000000230,5.564992676892266843
0.448000000000000231,5.655968442988212885
0.449000000000000232,5.742985626356545303
0.450000000000000233,5.826033670660566877
0.451000000000000234,5.905105492153963631
0.452000000000000235,5.980197406833201335
0.453000000000000236,6.051309055298524697
0.454000000000000237,6.118443325541898403
0.455000000000000238,6.181606273873659241
0.456000000000000238,6.240807044191711839
0.457000000000000239,6.296057785790702077
0.458000000000000240,6.347373569900629953
0.459000000000000241,6.394772305137937707
0.460000000000000242,6.438274652044308155
0.461000000000000243,6.477903936881889813
0.462000000000000244,6.513686064846194945
0.463000000000000245,6.545649432851377014
0.464000000000000246,6.573824842035381089
0.465000000000000246,6.598245410125931798
0.466000000000000247,6.618946483801583902
0.467000000000000248,6.635965551175617705
0.468000000000000249,6.649342154523935733
0.469000000000000250,6.659117803372053501
0.470000000000000251,6.665335888049975566
0.471000000000000252,6.668041593817859436
0.472000000000000253,6.667281815659221067
0.473000000000000254,6.663105073833091474
0.474000000000000254,6.655561430270618750
0.475000000000000255,6.644702405896287800
0.476000000000000256,6.630580898948768898
0.477000000000000257,6.613251104371014044
0.478000000000000258,6.592768434334482563
0.479000000000000259,6.569189439957506593
0.480000000000000260,6.542571734273016304
0.481000000000000261,6.512973916496536120
0.482000000000000262,6.480455497640768669
0.483000000000000262,6.445076827519240048
0.484000000000000263,6.406899023176977792
0.485000000000000264,6.365983898782808126
0.486000000000000265,6.322393897013570907
0.487000000000000266,6.276192021957470502
0.488000000000000267,6.227441773560054905
0.489000000000000268,6.176207083632905714
0.490000000000000269,6.122552253442374415
0.491000000000000270,6.066541892892167276
0.492000000000000270,6.008240861311141323
0.493000000000000271,5.947714209854531475
0.494000000000000272,5.885027125524702640
0.495000000000000273,5.820244876814257395
0.496000000000000274,5.753432760972924775
0.497000000000000275,5.684656052896626122
0.498000000000000276,5.613979955635221231
0.499000000000000277,5.541469552513783370
0.500000000000000222,5.467189760859599623
0.501000000000000334,5.391205287326203077
0.502000000000000224,5.313580584803244911
0.503000000000000336,5.234379810899924657
0.504000000000000226,5.153666787988187004
0.505000000000000338,5.071504964790063852
0.506000000000000227,4.987957379493020760
0.507000000000000339,4.903086624375054825
0.508000000000000229,4.816954811921140944
0.509000000000000341,4.729623542410486436
0.510000000000000231,4.641153872954381754
0.511000000000000343,4.551606287962203901
0.512000000000000233,4.461040671013694059
0.513000000000000345,4.369516278113523278
0.514000000000000234,4.277091712304850191
0.515000000000000346,4.183824899616745085
0.516000000000000236,4.089773066321006567
0.517000000000000348,3.994992717472160670
0.518000000000000238,3.899539616705458123
0.519000000000000350,3.803468767265743899
0.520000000000000240,3.706834394241431685
0.521000000000000352,3.609689927975956891
0.522000000000000242,3.512087988630401725
0.523000000000000353,3.414080371869266717
0.524000000000000243,3.315718035642932993
0.525000000000000355,3.217051088038615170
0.526000000000000245,3.118128776173097805
0.527000000000000357,3.018999476099125445
0.528000000000000247,2.919710683698754305
0.529000000000000359,2.820309006535768326
0.530000000000000249,2.720840156640398799
0.531000000000000361,2.621348944198894415
0.532000000000000250,2.521879272121461568
0.533000000000000362,2.422474131461262115
0.534000000000000252,2.323175597658788227
0.535000000000000364,2.224024827584224262
0.536000000000000254,2.125062057353041212
0.537000000000000366,2.026326600887846219
0.538000000000000256,1.927856849202068901
0.539000000000000368,1.829690270379476402
0.540000000000000258,1.731863410225481514
0.541000000000000369,1.634411893564907903
0.542000000000000259,1.537370426163036319
0.543000000000000371,1.440772797245242431
0.544000000000000261,1.344651882592511116
0.545000000000000373,1.249039648189401719
0.546000000000000263,1.153967154402253170
0.547000000000000375,1.059464560664750810
0.548000000000000265,0.965561130650006705
0.549000000000000377,0.872285237906688438
0.550000000000000266,0.779664371939231882
0.551000000000000378,0.687725144710731651
0.552000000000000268,0.596493297549057999
0.553000000000000380,0.505993708435981904
0.554000000000000270,0.416250399660516746
0.555000000000000382,0.327286545817154217
0.556000000000000272,0.239124482131085697
0.557000000000000384,0.151785713092057545
0.558000000000000274,0.065290921379580799
0.559000000000000385,-0.020340022937785827
0.560000000000000275,-0.105088052945514182
0.561000000000000387,-0.188934895185119800
0.562000000000000277,-0.271863059730452661
0.563000000000000389,-0.353855830054203624
0.564000000000000279,-0.434897252699022185
0.565000000000000391,-0.514972126768330485
0.566000000000000281,-0.594065993250408320
0.567000000000000393,-0.672165124190042484
0.568000000000000282,-0.749256511720489682
0.569000000000000394,-0.825327856969233276
0.570000000000000284,-0.900367558849356930
0.571000000000000396,-0.974364702749483391
0.572000000000000286,-1.047309049133209768
0.573000000000000398,-1.119191022060004759
0.574000000000000288,-1.190001697638079836
0.575000000000000400,-1.259732792420309000
0.576000000000000290,-1.328376651752874560
0.577000000000000401,-1.395926238087151550
0.578000000000000291,-1.462375119263773504
0.579000000000000403,-1.527717456778537208
0.580000000000000293,-1.591947994038570346
0.581000000000000405,-1.655062044617790606
0.582000000000000295,-1.717055480519170008
0.583000000000000407,-1.777924720452431329
0.584000000000000297,-1.837666718133953880
0.585000000000000409,-1.896278950616877790
0.586000000000000298,-1.953759406657639364
0.587000000000000410,-2.010106575126256345
0.588000000000000300,-2.065319433466084043
0.589000000000000412,-2.119397436209717878
0.590000000000000302,-2.172340503556308811
0.591000000000000414,-2.224149010016291061
0.592000000000000304,-2.274823773128408444
0.593000000000000416,-2.324366042254347509
0.594000000000000306,-2.372777487455526746
0.595000000000000417,-2.420060188456804706
0.596000000000000307,-2.466216623701066091
0.597000000000000419,-2.511249659499098730
0.598000000000000309,-2.555162539278386546
0.599000000000000421,-2.597958872934409857
0.600000000000000311,-2.639642626287997729
0.601000000000000423,-2.680218110651902741
0.602000000000000313,-2.719689972509360842
0.603000000000000425,-2.758063183307911892
0.604000000000000314,-2.795343029370528143
0.605000000000000426,-2.831535101927016296
0.606000000000000316,-2.866645287267513886
0.607000000000000428,-2.900679757020449667
0.608000000000000318,-2.933644958556762550
0.609000000000000430,-2.965547605522184771
0.610000000000000320,-2.996394668499057889
0.611000000000000432,-3.026193365799390911
0.612000000000000322,-3.054951154390140200
0.613000000000000433,-3.082675720952150922
0.614000000000000323,-3.109374973073633974
0.615000000000000435,-3.135057030579131432
0.616000000000000325,-3.159730216994630414
0.617000000000000437,-3.183403051149711782
0.618000000000000327,-3.206084238916963702
0.619000000000000439,-3.227782665089301783
0.620000000000000329,-3.248507385395408509
0.621000000000000441,-3.268267618653474038
0.622000000000000330,-3.287072739063403581
0.623000000000000442,-3.304932268637487791
0.624000000000000332,-3.321855869769318126
0.625000000000000444,-3.337853337941022236
0.626000000000000334,-3.352934594568283355
0.627000000000000446,-3.367109679982998927
0.628000000000000336,-3.380388746553054879
0.629000000000000448,-3.392782051938787902
0.630000000000000338,-3.404299952485430936
0.631000000000000449,-3.414952896751133782
0.632000000000000339,-3.424751419169643984
0.633000000000000451,-3.433706133846983199
0.634000000000000341,-3.441827728491271277
0.635000000000000453,-3.449126958474926230
0.636000000000000343,-3.455614641028071254
0.637000000000000455,-3.461301649562478211
0.638000000000000345,-3.466198908124726863
0.639000000000000457,-3.470317385977736535
0.640000000000000346,-3.473668092309417865
0.641000000000000458,-3.476262071067357962
0.642000000000000348,-3.478110395918326159
0.643000000000000460,-3.479224165331371577
0.644000000000000350,-3.479614497783275251
0.645000000000000462,-3.479292527085032560
0.646000000000000352,-3.478269397828072762
0.647000000000000464,-3.476556260948901134
0.648000000000000353,-3.474164269410723538
0.649000000000000465,-3.471104574000714482
0.650000000000000355,-3.467388319241526684
0.651000000000000467,-3.463026639415527796
0.652000000000000357,-3.458030654700505302
0.653000000000000469,-3.452411467415049451
0.654000000000000359,-3.446180158372562197
0.655000000000000471,-3.439347783342010079
0.656000000000000361,-3.431925369614167387
0.657000000000000473,-3.423923912671719361
0.658000000000000362,-3.415354372961787455
0.659000000000000474,-3.406227672769276182
0.660000000000000364,-3.396554693189561824
0.661000000000000476,-3.386346271198966029
0.662000000000000366,-3.375613196821502182
0.663000000000000478,-3.364366210390281164
0.664000000000000368,-3.352615999902147426
