# AuFCC100-Ablate100_WaterUCD
# h[nm],U(h)[kJ/mol]
0.200000000000000011,98.512821513387024197
0.201000000000000012,94.306092459365657987
0.202000000000000013,91.403983024790392165
0.203000000000000014,89.021510951719520222
0.204000000000000015,86.760829454871242206
0.205000000000000016,84.453816000740829395
0.206000000000000016,82.059586536027140369
0.207000000000000017,79.599933477706983354
0.208000000000000018,77.120478613287062331
0.209000000000000019,74.668868733453493292
0.210000000000000020,72.283933447614487022
0.211000000000000021,69.991608571998980892
0.212000000000000022,67.804785237911403328
0.213000000000000023,65.725211235189519243
0.214000000000000024,63.746250336267529235
0.215000000000000024,61.855775034127852052
0.216000000000000025,60.038786294767000129
0.217000000000000026,58.279563712819346222
0.218000000000000027,56.563282737105488707
0.219000000000000028,54.877115767837111093
0.220000000000000029,53.210877901780328614
0.221000000000000030,51.557298130879516407
0.222000000000000031,49.912001559579607601
0.223000000000000032,48.273283763566219307
0.224000000000000032,46.641748927944078673
0.225000000000000033,45.019871655295460755
0.226000000000000034,43.411530114881941245
0.227000000000000035,41.821546607868206991
0.228000000000000036,40.255261261560015384
0.229000000000000037,38.718155723481807229
0.230000000000000038,37.215536475107967362
0.231000000000000039,35.752281663120250244
0.232000000000000040,34.332651013823046071
0.233000000000000040,32.960155275759312588
0.234000000000000041,31.637479535638441064
0.235000000000000042,30.366453486003326390
0.236000000000000043,29.148061115735167448
0.237000000000000044,27.982482191558471385
0.238000000000000045,26.869158166394885967
0.239000000000000046,25.806875676398526309
0.240000000000000047,24.793861480848910617
0.241000000000000048,23.827883484436874539
0.242000000000000048,22.906353302944115313
0.243000000000000049,22.026426648104262540
0.244000000000000050,21.185098584669049160
0.245000000000000051,20.379291431282371860
0.246000000000000052,19.605933723495510890
0.247000000000000053,18.862029225143231770
0.248000000000000054,18.144715461134545365
0.249000000000000055,17.451311651837869476
0.250000000000000056,16.779356260548759394
0.251000000000000056,16.126634626639543058
0.252000000000000057,15.491197354587512791
0.253000000000000058,14.871370270405403602
0.254000000000000059,14.265756849450463406
0.255000000000000060,13.673234070438990528
0.256000000000000061,13.092942666663820006
0.257000000000000062,12.524272733347562081
0.258000000000000063,11.966845615632117017
0.259000000000000064,11.420492950156194922
0.260000000000000064,10.885233669123310918
0.261000000000000065,10.361249703205917427
0.262000000000000066,9.848861041958201668
0.263000000000000067,9.348500730459369024
0.264000000000000068,8.860690300996589386
0.265000000000000069,8.386016060580987030
0.266000000000000070,7.925106580414523094
0.267000000000000071,7.478611663169604462
0.268000000000000071,7.047182998879094384
0.269000000000000072,6.631456660860907348
0.270000000000000073,6.232037539700526096
0.271000000000000074,5.849485765980459107
0.272000000000000075,5.484305131122148680
0.273000000000000076,5.136933480224002757
0.274000000000000077,4.807735020872049958
0.275000000000000078,4.496994467241107074
0.276000000000000079,4.204912919014408779
0.277000000000000079,3.931605359323125271
0.278000000000000080,3.677099644622219277
0.279000000000000081,3.441336851747748060
0.280000000000000082,3.224172842923725746
0.281000000000000083,3.025380907794764429
0.282000000000000084,2.844655342263974429
0.283000000000000085,2.681615826646352563
0.284000000000000086,2.535812470064139568
0.285000000000000087,2.406731393795757956
0.286000000000000087,2.293800733157814076
0.287000000000000088,2.196396945189845074
0.288000000000000089,2.113851317693174803
0.289000000000000090,2.045456583842880427
0.290000000000000091,1.990473555468056377
0.291000000000000092,1.948137697024133974
0.292000000000000093,1.917665571132258773
0.293000000000000094,1.898261095222451456
0.294000000000000095,1.889121557199743506
0.295000000000000095,1.889443346081614461
0.296000000000000096,1.898427361173187222
0.297000000000000097,1.915284070510590908
0.298000000000000098,1.939238195982166957
0.299000000000000099,1.969533008710659727
0.300000000000000100,2.005434223938372007
0.301000000000000101,2.046233489798701122
0.302000000000000102,2.091251468985510620
0.303000000000000103,2.139840516458748176
0.304000000000000103,2.191386959964783721
0.305000000000000104,2.245312993322314821
0.306000000000000105,2.301078195152407080
0.307000000000000106,2.358180688038430173
0.308000000000000107,2.416157955013976899
0.309000000000000108,2.474587331822386993
0.310000000000000109,2.533086194597444774
0.311000000000000110,2.591311863508831248
0.312000000000000111,2.648961243526573472
0.313000000000000111,2.705770223812002495
0.314000000000000112,2.761512857365819418
0.315000000000000113,2.816000342482170460
0.316000000000000114,2.869079827294649387
0.317000000000000115,2.920633058280107885
0.318000000000000116,2.970574893030039743
0.319000000000000117,3.018851696927462580
0.320000000000000118,3.065439642599323555
0.321000000000000119,3.110342930167337094
0.322000000000000119,3.153591945410241237
0.323000000000000120,3.195241371992895818
0.324000000000000121,3.235368272925078337
0.325000000000000122,3.274070155398113968
0.326000000000000123,3.311463032121192640
0.327000000000000124,3.347679491251052575
0.328000000000000125,3.382866785986790692
0.329000000000000126,3.417184953894525368
0.330000000000000127,3.450804975039605260
0.331000000000000127,3.483906977043145670
0.332000000000000128,3.516678494250087716
0.333000000000000129,3.549312787300526573
0.334000000000000130,3.582007228538780286
0.335000000000000131,3.614961757877503068
0.336000000000000132,3.648377412959462163
0.337000000000000133,3.682454936727967088
0.338000000000000134,3.717393464830430982
0.339000000000000135,3.753389294636711782
0.340000000000000135,3.790634737057069437
0.341000000000000136,3.829317051791177651
0.342000000000000137,3.869617466130683248
0.343000000000000138,3.911710276971587241
0.344000000000000139,3.955762035268457488
0.345000000000000140,4.001930811778606767
0.346000000000000141,4.050365542599986490
0.347000000000000142,4.101205452699529630
0.348000000000000143,4.154579555357544862
0.349000000000000143,4.210606225217243370
0.350000000000000144,4.269392842423975765
0.351000000000000145,4.331035505165220734
0.352000000000000146,4.395618807777583292
0.353000000000000147,4.463215681469337781
0.354000000000000148,4.533887294614340036
0.355000000000000149,4.607683009504346394
0.356000000000000150,4.684640392399010977
0.357000000000000151,4.764785273685637534
0.358000000000000151,4.848131854951582831
0.359000000000000152,4.934682859779754516
0.360000000000000153,5.024429725100557853
0.361000000000000154,5.117352829969891381
0.362000000000000155,5.213421758691825225
0.363000000000000156,5.312595595264019366
0.364000000000000157,5.414823246193465778
0.365000000000000158,5.520043788807777574
0.366000000000000159,5.628186842272371315
0.367000000000000159,5.739172958615376352
0.368000000000000160,5.852914031158265473
0.369000000000000161,5.969313717851560064
0.370000000000000162,6.088267877119009519
0.371000000000000163,6.209665013920379728
0.372000000000000164,6.333386733852478301
0.373000000000000165,6.459308203217242195
0.374000000000000166,6.587298613097222422
0.375000000000000167,6.717221645588762335
0.376000000000000167,6.848935940453840132
0.377000000000000168,6.982295560560578096
0.378000000000000169,7.117150454590364106
0.379000000000000170,7.253346915595540345
0.380000000000000171,7.390728034095969790
0.381000000000000172,7.529134144504169512
0.382000000000000173,7.668403263768072797
0.383000000000000174,7.808371521216612265
0.384000000000000175,7.948873578686788122
0.385000000000000175,8.089743040100724869
0.386000000000000176,8.230812849748499360
0.387000000000000177,8.371915678615605927
0.388000000000000178,8.512884298174222764
0.389000000000000179,8.653551941133908798
0.390000000000000180,8.793752648720241538
0.391000000000000181,8.933321604119788262
0.392000000000000182,9.072095451794975673
0.393000000000000183,9.209912602435798235
0.394000000000000183,9.346613523373378030
0.395000000000000184,9.482041014336262563
0.396000000000000185,9.616040468482614401
0.397000000000000186,9.748460118689672882
0.398000000000000187,9.879151269127872226
0.399000000000000188,10.007968512189322041
0.400000000000000189,10.134769930879109268
0.401000000000000190,10.259417286815043724
0.402000000000000191,10.381776194013864867
0.403000000000000191,10.501716278673383087
0.404000000000000192,10.619111325187342132
0.405000000000000193,10.733839408655370562
0.406000000000000194,10.845783014173154157
0.407000000000000195,10.954829143208375086
0.408000000000000196,11.060869407386118013
0.409000000000000197,11.163800110023633039
0.410000000000000198,11.263522315767993121
0.411000000000000199,11.359941908702399616
0.412000000000000199,11.452969639297057469
0.413000000000000200,11.542521160588712803
0.414000000000000201,11.628517053979866347
0.415000000000000202,11.710882845053978585
0.416000000000000203,11.789549009806254531
0.417000000000000204,11.864450971692669157
0.418000000000000205,11.935529089900240862
0.419000000000000206,12.002728639242066677
0.420000000000000207,12.065999782079170899
0.421000000000000207,12.125297532668920297
0.422000000000000208,12.180581714336941701
0.423000000000000209,12.231816909865056431
0.424000000000000210,12.278972405483273178
0.425000000000000211,12.322022128848143296
0.426000000000000212,12.360944581383666474
0.427000000000000213,12.395722765354202366
0.428000000000000214,12.426344106031368852
0.429000000000000214,12.452800369309327877
0.430000000000000215,12.475087575114518046
0.431000000000000216,12.493205906947268957
0.432000000000000217,12.507159617884035185
0.433000000000000218,12.516956933359630000
0.434000000000000219,12.522609951039454401
0.435000000000000220,12.524134538082313028
0.436000000000000221,12.521550226084414703
0.437000000000000222,12.514880103985493776
0.438000000000000222,12.504150709208063930
0.439000000000000223,12.489391917290530998
0.440000000000000224,12.470636830265524608
0.441000000000000225,12.447921664024066857
0.442000000000000226,12.421285634896801042
0.443000000000000227,12.390770845673419132
0.444000000000000228,12.356422171271493227
0.445000000000000229,12.318287144256455434
0.446000000000000230,12.276415840404512281
0.447000000000000230,12.230860764491213288
0.448000000000000231,12.181676736478785017
0.449000000000000232,12.128920778266026659
0.450000000000000233,12.072652001156281898
0.451000000000000234,12.012931494189036385
0.452000000000000235,11.949822213473328958
0.453000000000000236,11.883388872651725165
0.454000000000000237,11.813697834615870974
0.455000000000000238,11.740817004586711292
0.456000000000000238,11.664815724664240548
0.457000000000000239,11.585764669944602190
0.458000000000000240,11.503735746294635689
0.459000000000000241,11.418801989866912194
0.460000000000000242,11.331037468431699011
0.461000000000000243,11.240517184595152145
0.462000000000000244,11.147316980967143962
0.463000000000000245,11.051513447335397089
0.464000000000000246,10.953183829897167101
0.465000000000000246,10.852405942593515320
0.466000000000000247,10.749258080585970987
0.467000000000000248,10.643818935910013934
0.468000000000000249,10.536167515334806666
0.469000000000000250,10.426383060453551010
0.470000000000000251,10.314544970024529746
0.471000000000000252,10.200732724578184474
0.472000000000000253,10.085025813301509601
0.473000000000000254,9.967503663207050835
0.474000000000000254,9.848245570589929443
0.475000000000000255,9.727330634772661355
0.476000000000000256,9.604837694134250370
0.477000000000000257,9.480845264416746687
0.478000000000000258,9.355431479299195274
0.479000000000000259,9.228674033226530682
0.480000000000000260,9.100650126477667357
0.481000000000000261,8.971436412454886877
0.482000000000000262,8.841108947174186383
0.483000000000000262,8.709743140933941419
0.484000000000000263,8.577413712137200719
0.485000000000000264,8.444194643241109688
0.486000000000000265,8.310159138804966261
0.487000000000000266,8.175379585607048583
0.488000000000000267,8.039927514798616670
0.489000000000000268,7.903873566062218359
0.490000000000000269,7.767287453740133074
0.491000000000000270,7.630237934897723839
0.492000000000000270,7.492792779285259996
0.493000000000000271,7.355018741161036822
0.494000000000000272,7.216981532937870369
0.495000000000000273,7.078745800613761574
0.496000000000000274,6.940375100947908216
0.497000000000000275,6.801931880341700598
0.498000000000000276,6.663477455384390957
0.499000000000000277,6.525071995022978300
0.500000000000000222,6.386774504314780998
0.501000000000000334,6.248642809721968838
0.502000000000000224,6.110733545906375852
0.503000000000000336,5.973102143983063606
0.504000000000000226,5.835802821191601986
0.505000000000000338,5.698888571942937631
0.506000000000000227,5.562411160201432558
0.507000000000000339,5.426421113159911158
0.508000000000000229,5.290967716167818580
0.509000000000000341,5.156099008870696387
0.510000000000000231,5.021861782521713558
0.511000000000000343,4.888301578424055549
0.512000000000000233,4.755462687465587202
0.513000000000000345,4.623388150705459054
0.514000000000000234,4.492119760974868647
0.515000000000000346,4.361698065452588757
0.516000000000000236,4.232162369178450234
0.517000000000000348,4.103550739466466091
0.518000000000000238,3.975900011181784599
0.519000000000000350,3.849245792844311786
0.520000000000000240,3.723622473524403009
0.521000000000000352,3.599063230494687904
0.522000000000000242,3.475600037604573256
0.523000000000000353,3.353263674342755962
0.524000000000000243,3.232083735555685955
0.525000000000000355,3.112088641788619103
0.526000000000000245,2.993305650218425207
0.527000000000000357,2.875760866146215289
0.528000000000000247,2.759479255020325095
0.529000000000000359,2.644484654959165848
0.530000000000000249,2.530799789745648454
0.531000000000000361,2.418446282264337555
0.532000000000000250,2.307444668354361017
0.533000000000000362,2.197814411050440064
0.534000000000000252,2.089573915186859310
0.535000000000000364,1.982740542337718903
0.536000000000000254,1.877330626069938280
0.537000000000000366,1.773359487483774588
0.538000000000000256,1.670841451018430845
0.539000000000000368,1.569789860499225531
0.540000000000000258,1.470217095405075503
0.541000000000000369,1.372134587334057576
0.542000000000000259,1.275552836647348531
0.543000000000000371,1.180481429270553884
0.544000000000000261,1.086929053633777453
0.545000000000000373,0.994903517731219211
0.546000000000000263,0.904411766282614105
0.547000000000000375,0.815459897978478288
0.548000000000000265,0.728053182793067855
0.549000000000000377,0.642196079347965521
0.550000000000000266,0.557892252311434134
0.551000000000000378,0.475144589817808161
0.552000000000000268,0.393955220893001445
0.553000000000000380,0.314325532871739532
0.554000000000000270,0.236256188793612459
0.555000000000000382,0.159747144764698673
0.556000000000000272,0.084797667272903179
0.557000000000000384,0.011406350444928100
0.558000000000000274,-0.060428866766117063
0.559000000000000385,-0.130710683473393124
0.560000000000000275,-0.199442419839308133
0.561000000000000387,-0.266628000158838918
0.562000000000000277,-0.332271936052128292
0.563000000000000389,-0.396379309775616973
0.564000000000000279,-0.458955757659626262
0.565000000000000391,-0.520007453680805254
0.566000000000000281,-0.579541093176530575
0.567000000000000393,-0.637563876708777233
0.568000000000000282,-0.694083494083778341
0.569000000000000394,-0.749108108534207728
0.570000000000000284,-0.802646341069321978
0.571000000000000396,-0.854707254999213184
0.572000000000000286,-0.905300340637817724
0.573000000000000398,-0.954435500189981689
0.574000000000000288,-1.002123032826783611
0.575000000000000400,-1.048373619953580027
0.576000000000000290,-1.093198310674356799
0.577000000000000401,-1.136608507456301043
0.578000000000000291,-1.178615951997480149
0.579000000000000403,-1.219232711300988203
0.580000000000000293,-1.258471163957902483
0.581000000000000405,-1.296343986641841139
0.582000000000000295,-1.332864140816922838
0.583000000000000407,-1.368044859661451840
0.584000000000000297,-1.401899635208577966
0.585000000000000409,-1.434442205705803719
0.586000000000000298,-1.465686543194198332
0.587000000000000410,-1.495646841308601482
0.588000000000000300,-1.524337503299380447
0.589000000000000412,-1.551773130276577373
0.590000000000000302,-1.577968509676604958
0.591000000000000414,-1.602938603951923113
0.592000000000000304,-1.626698539483616646
0.593000000000000416,-1.649263595716763620
0.594000000000000306,-1.670649194518324165
0.595000000000000417,-1.690870889757159601
0.596000000000000307,-1.709944357105450008
0.597000000000000419,-1.727885384060909191
0.598000000000000309,-1.744709860188876416
0.599000000000000421,-1.760433767583251763
0.600000000000000311,-1.775073171545217265
0.601000000000000423,-1.788644211478488844
0.602000000000000313,-1.801163091999641974
0.603000000000000425,-1.812646074262301621
0.604000000000000314,-1.823109467493331248
0.605000000000000426,-1.832569620739643357
0.606000000000000316,-1.841042914823705967
0.607000000000000428,-1.848545754506021321
0.608000000000000318,-1.855094560852669217
0.609000000000000430,-1.860705763805870827
0.610000000000000320,-1.865395794955607922
0.611000000000000432,-1.869181080510122772
0.612000000000000322,-1.872078034463191987
0.613000000000000433,-1.874103051955850585
0.614000000000000323,-1.875272502830408694
0.615000000000000435,-1.875602725374314828
0.616000000000000325,-1.875110020251524734
0.617000000000000437,-1.873810644619034793
0.618000000000000327,-1.871720806425993588
0.619000000000000439,-1.868856658892996681
0.620000000000000329,-1.865234295169033274
0.621000000000000441,-1.860869743163477308
0.622000000000000330,-1.855778960550638290
0.623000000000000442,-1.849977829944200902
0.624000000000000332,-1.843482154238976323
0.625000000000000444,-1.836307652117319389
0.626000000000000334,-1.828469953717607011
0.627000000000000446,-1.819984596462033366
0.628000000000000336,-1.810867021041168368
0.629000000000000448,-1.801132567552532038
0.630000000000000338,-1.790796471790527589
0.631000000000000449,-1.779873861685060676
0.632000000000000339,-1.768379753886204053
0.633000000000000451,-1.756329050492126953
0.634000000000000341,-1.743736535917754793
0.635000000000000453,-1.730616873901384967
0.636000000000000343,-1.716984604646673462
0.637000000000000455,-1.702854142097268042
0.638000000000000345,-1.688239771341542239
0.639000000000000457,-1.673155646144688591
0.640000000000000346,-1.657615786605696639
0.641000000000000458,-1.641634076936449915
0.642000000000000348,-1.625224263360551147
0.643000000000000460,-1.608399952129093036
0.644000000000000350,-1.591174607651060668
0.645000000000000462,-1.573561550735574910
0.646000000000000352,-1.555573956943753888
0.647000000000000464,-1.537224855047424565
0.648000000000000353,-1.518527125592488591
0.649000000000000465,-1.499493499564203303
0.650000000000000355,-1.480136557152297083
0.651000000000000467,-1.460468726613173285
0.652000000000000357,-1.440502283227185432
0.653000000000000469,-1.420249348348261664
0.654000000000000359,-1.399721888543957737
0.655000000000000471,-1.378931714823310228
0.656000000000000361,-1.357890481950457806
0.657000000000000473,-1.336609687841618266
0.658000000000000362,-1.315100673043394952
0.659000000000000474,-1.293374620290072441
0.660000000000000364,-1.271442554137872438
0.661000000000000476,-1.249315340673929464
0.662000000000000366,-1.227003687298061418
0.663000000000000478,-1.204518142575061956
0.664000000000000368,-1.181869096155709453
0.665000000000000480,-1.159066778764298089
0.666000000000000369,-1.136121262250855413
0.667000000000000481,-1.113042459706029996
0.668000000000000371,-1.089840125636785118
