# AuFCC100-Ablate100_FURAN-AC
# h[nm],U(h)[kJ/mol]
0.200000000000000011,126.043189230827621827
0.201000000000000012,117.397989737349092820
0.202000000000000013,112.650069076473343443
0.203000000000000014,109.641264267487571260
0.204000000000000015,107.177317714281429062
0.205000000000000016,104.666758735578540040
0.206000000000000016,101.877808136427191243
0.207000000000000017,98.778640822648611675
0.208000000000000018,95.435705609604838173
0.209000000000000019,91.951796119746944669
0.210000000000000020,88.430761806203847186
0.211000000000000021,84.959581728062488537
0.212000000000000022,81.601331593382411711
0.213000000000000023,78.394613526548340587
0.214000000000000024,75.356483639813632180
0.215000000000000024,72.486953317981246414
0.216000000000000025,69.773868460016871040
0.217000000000000026,67.197471285505343985
0.218000000000000027,64.734284996019127334
0.219000000000000028,62.360179691728774287
0.220000000000000029,60.052613311899143866
0.221000000000000030,57.792119542953741984
0.222000000000000031,55.563154187039458520
0.223000000000000032,53.354425752587488319
0.224000000000000032,51.158834479135613549
0.225000000000000033,48.973133239546129403
0.226000000000000034,46.797408275338156614
0.227000000000000035,44.634460498465230671
0.228000000000000036,42.489151032654554285
0.229000000000000037,40.367758901271159289
0.230000000000000038,38.277384899731707435
0.231000000000000039,36.225423965880196420
0.232000000000000040,34.219118797265899445
0.233000000000000040,32.265199933324460346
0.234000000000000041,30.369611816288909267
0.235000000000000042,28.537320222993024288
0.236000000000000043,26.772193667192475175
0.237000000000000044,25.076949664199840839
0.238000000000000045,23.453155901785059712
0.239000000000000046,21.901276174084138404
0.240000000000000047,20.420751236865235967
0.241000000000000048,19.010105388549000338
0.242000000000000048,17.667070453394664753
0.243000000000000049,16.388719846312774564
0.244000000000000050,15.171606458726023092
0.245000000000000051,14.011899165536050305
0.246000000000000052,12.905513773481690265
0.247000000000000053,11.848235182374896368
0.248000000000000054,10.835828394407943875
0.249000000000000055,9.864136772507706041
0.250000000000000056,8.929166612371520984
0.251000000000000056,8.027157654870260117
0.252000000000000057,7.154639629882625584
0.253000000000000058,6.308475295659806470
0.254000000000000059,5.485890727367253028
0.255000000000000060,4.684493823253598421
0.256000000000000061,3.902282146042692634
0.257000000000000062,3.137641309697785985
0.258000000000000063,2.389335166406318045
0.259000000000000064,1.656489053707411729
0.260000000000000064,0.938567334707782641
0.261000000000000065,0.235346412161948015
0.262000000000000066,-0.453115674078382547
0.263000000000000067,-1.126512041771059680
0.264000000000000068,-1.784321222867880197
0.265000000000000069,-2.425842051159416091
0.266000000000000070,-3.050228451640878635
0.267000000000000071,-3.656523503104399886
0.268000000000000071,-4.243692243551103083
0.269000000000000072,-4.810652781708911974
0.270000000000000073,-5.356305366006567148
0.271000000000000074,-5.879559143922055142
0.272000000000000075,-6.379356419131342548
0.273000000000000076,-6.854694281019206414
0.274000000000000077,-7.304643540785775713
0.275000000000000078,-7.728364960661347816
0.276000000000000079,-8.125122807842087624
0.277000000000000079,-8.494295802996269629
0.278000000000000080,-8.835385564957253024
0.279000000000000081,-9.148022678967995702
0.280000000000000082,-9.431970536054439691
0.281000000000000083,-9.687127106287110934
0.282000000000000084,-9.913524819350262973
0.283000000000000085,-10.111328732481574377
0.284000000000000086,-10.280833168961068580
0.285000000000000087,-10.422457010388830767
0.286000000000000087,-10.536737823439160877
0.287000000000000088,-10.624324997032775997
0.288000000000000089,-10.685972059311581006
0.289000000000000090,-10.722528335787705700
0.290000000000000091,-10.734930100887044802
0.291000000000000092,-10.724191365109032148
0.292000000000000093,-10.691394429431261059
0.293000000000000094,-10.637680327628512345
0.294000000000000095,-10.564239266045786891
0.295000000000000095,-10.472301159234365997
0.296000000000000096,-10.363126348872864213
0.297000000000000097,-10.237996582672629131
0.298000000000000098,-10.098206319607403003
0.299000000000000099,-9.945054417892622567
0.300000000000000100,-9.779836252730559565
0.301000000000000101,-9.603836301981953483
0.302000000000000102,-9.418321229656346105
0.303000000000000103,-9.224533489451566481
0.304000000000000103,-9.023685463529711015
0.305000000000000104,-8.816954145293266265
0.306000000000000105,-8.605476369115416801
0.307000000000000106,-8.390344584768346436
0.308000000000000107,-8.172603169667862488
0.309000000000000108,-7.953245267986702061
0.310000000000000109,-7.733210142158187139
0.311000000000000110,-7.513381019269114169
0.312000000000000111,-7.294583412293498270
0.313000000000000111,-7.077583894018916411
0.314000000000000112,-6.863089299830218870
0.315000000000000113,-6.651746334210282718
0.316000000000000114,-6.444141554863044519
0.317000000000000115,-6.240801707727079872
0.318000000000000116,-6.042194385799423806
0.319000000000000117,-5.848728984599218528
0.320000000000000118,-5.660757927239884246
0.321000000000000119,-5.478578132420845570
0.322000000000000119,-5.302432699169317587
0.323000000000000120,-5.132512782834842469
0.324000000000000121,-4.968959637641958693
0.325000000000000122,-4.811866802018748501
0.326000000000000123,-4.661282403920806061
0.327000000000000124,-4.517211564443979199
0.328000000000000125,-4.379618879149562716
0.329000000000000126,-4.248430957695222610
0.330000000000000127,-4.123539003562640914
0.331000000000000127,-4.004801416885897858
0.332000000000000128,-3.892046404600821408
0.333000000000000129,-3.785074583347491917
0.334000000000000130,-3.683661561755469993
0.335000000000000131,-3.587560489918236506
0.336000000000000132,-3.496504565012021004
0.337000000000000133,-3.410209483130818064
0.338000000000000134,-3.328375828487750709
0.339000000000000135,-3.250691392171321858
0.340000000000000135,-3.176833413637992543
0.341000000000000136,-3.106470739070275933
0.342000000000000137,-3.039265891628318617
0.343000000000000138,-2.974877049472754109
0.344000000000000139,-2.912959928236205531
0.345000000000000140,-2.853169565370595073
0.346000000000000141,-2.795162004496298369
0.347000000000000142,-2.738595878529133998
0.348000000000000143,-2.683133890961940882
0.349000000000000143,-2.628444195230074776
0.350000000000000144,-2.574201672596697854
0.351000000000000145,-2.520089109454411336
0.352000000000000146,-2.465798275357157010
0.353000000000000147,-2.411030903471449882
0.354000000000000148,-2.355499575471186269
0.355000000000000149,-2.298928513196566215
0.356000000000000150,-2.241054279658154513
0.357000000000000151,-2.181626392192389297
0.358000000000000151,-2.120407850767941138
0.359000000000000152,-2.057175584604532759
0.360000000000000153,-1.991720820399460079
0.361000000000000154,-1.923849375563733588
0.362000000000000155,-1.853381879951500721
0.363000000000000156,-1.780153929625184706
0.364000000000000157,-1.704016176235814584
0.365000000000000158,-1.624834355616163517
0.366000000000000159,-1.542489259183652983
0.367000000000000159,-1.456876651733494343
0.368000000000000160,-1.367907139171455011
0.369000000000000161,-1.275505989690370434
0.370000000000000162,-1.179612911838220812
0.371000000000000163,-1.080181792858299072
0.372000000000000164,-0.977180400604871324
0.373000000000000165,-0.870590052253556790
0.374000000000000166,-0.760405252933010867
0.375000000000000167,-0.646633307306974991
0.376000000000000167,-0.529293907032563404
0.377000000000000168,-0.408418696913309787
0.378000000000000169,-0.284050822455150676
0.379000000000000170,-0.156244461420433411
0.380000000000000171,-0.025064341859911465
0.381000000000000172,0.109414751013013539
0.382000000000000173,0.247108476858546672
0.383000000000000174,0.387923449026235490
0.384000000000000175,0.531757748135708530
0.385000000000000175,0.678501438522756239
0.386000000000000176,0.828037085765260472
0.387000000000000177,0.980240273615428981
0.388000000000000178,1.134980118774900237
0.389000000000000179,1.292119782057257193
0.390000000000000180,1.451516974587404807
0.391000000000000181,1.613024457790184218
0.392000000000000182,1.776490536019428745
0.393000000000000183,1.941759540775878534
0.394000000000000183,2.108672305554786242
0.395000000000000184,2.277066630454223528
0.396000000000000185,2.446777735761627603
0.397000000000000186,2.617638703818600199
0.398000000000000187,2.789480908543826576
0.399000000000000188,2.962134432069806422
0.400000000000000189,3.135428468021057569
0.401000000000000190,3.309191711031101768
0.402000000000000191,3.483252732159837883
0.403000000000000191,3.657440339935885909
0.404000000000000192,3.831583926806166662
0.405000000000000193,4.005513800830551752
0.406000000000000194,4.179061502511155268
0.407000000000000195,4.352060106694322528
0.408000000000000196,4.524344509529227842
0.409000000000000197,4.695751700509092075
0.410000000000000198,4.866121019660627489
0.411000000000000199,5.035294399984013403
0.412000000000000199,5.203116595279535517
0.413000000000000200,5.369435393527901113
0.414000000000000201,5.534101816020188025
0.415000000000000202,5.696970302459376967
0.416000000000000203,5.857898882278706587
0.417000000000000204,6.016749332444360832
0.418000000000000205,6.173387322028331070
0.419000000000000206,6.327682543855028818
0.420000000000000207,6.479508833540480239
0.421000000000000207,6.628744276255599921
0.422000000000000208,6.775271301557500792
0.423000000000000209,6.918976766641724119
0.424000000000000210,7.059752028377202393
0.425000000000000211,7.197493004492082846
0.426000000000000212,7.332100224284064716
0.427000000000000213,7.463478869232841539
0.428000000000000214,7.591538803894803955
0.429000000000000214,7.716194597462160409
0.430000000000000215,7.837365536368645635
0.431000000000000216,7.954975628323628811
0.432000000000000217,8.068953598155214735
0.433000000000000218,8.179232875840185102
0.434000000000000219,8.285751577095757270
0.435000000000000220,8.388452476904236121
0.436000000000000221,8.487282976337011675
0.437000000000000222,8.582195063039304017
0.438000000000000222,8.673145265731225351
0.439000000000000223,8.760094603074554342
0.440000000000000224,8.843008527248082729
0.441000000000000225,8.921856862567119961
0.442000000000000226,8.996613739475311178
0.443000000000000227,9.067257524229466625
0.444000000000000228,9.133770744589687851
0.445000000000000229,9.196140011819181836
0.446000000000000230,9.254355939289350630
0.447000000000000230,9.308413057977592331
0.448000000000000231,9.358309729136090382
0.449000000000000232,9.404048054401169310
0.450000000000000233,9.445633783604190370
0.451000000000000234,9.483076220535375356
0.452000000000000235,9.516388126903772005
0.453000000000000236,9.545585624726911078
0.454000000000000237,9.570688097375194658
0.455000000000000238,9.591718089487088150
0.456000000000000238,9.608701205962187686
0.457000000000000239,9.621666010230832455
0.458000000000000240,9.630643921989850753
0.459000000000000241,9.635669114585910577
0.460000000000000242,9.636778412219218382
0.461000000000000243,9.634011187132214715
0.462000000000000244,9.627409256939667870
0.463000000000000245,9.617016782248640538
0.464000000000000246,9.602880164708967214
0.465000000000000246,9.585047945627163557
0.466000000000000247,9.563570705269304639
0.467000000000000248,9.538500962971040664
0.468000000000000249,9.509893078165793767
0.469000000000000250,9.477803152435251732
0.470000000000000251,9.442288932679559821
0.471000000000000252,9.403409715498105115
0.472000000000000253,9.361226252865202824
0.473000000000000254,9.315800659179174659
0.474000000000000254,9.267196319757125877
0.475000000000000255,9.215477800841924250
0.476000000000000256,9.160710761182567552
0.477000000000000257,9.102961865243447193
0.478000000000000258,9.042298698093002685
0.479000000000000259,8.978789682017376705
0.480000000000000260,8.912503994899592996
0.481000000000000261,8.843511490400441488
0.482000000000000262,8.771882619972711126
0.483000000000000262,8.697688356736218651
0.484000000000000263,8.621000121236981784
0.485000000000000264,8.541889709110121132
0.486000000000000265,8.460429220662138761
0.487000000000000266,8.376690992384993706
0.488000000000000267,8.290747530410861543
0.489000000000000268,8.202671445913157555
0.490000000000000269,8.112535392456711847
0.491000000000000270,8.020412005296687852
0.492000000000000270,7.926373842623429589
0.493000000000000271,7.830493328747634152
0.494000000000000272,7.732842699218068105
0.495000000000000273,7.633493947861195394
0.496000000000000274,7.532518775730788541
0.497000000000000275,7.429988541952755376
0.498000000000000276,7.325974216448808640
0.499000000000000277,7.220546334521202425
0.500000000000000222,7.113774953278233504
0.501000000000000334,7.005729609879725039
0.502000000000000224,6.896479281579358300
0.503000000000000336,6.786092347539866232
0.504000000000000226,6.674636552396033373
0.505000000000000338,6.562178971538585870
0.506000000000000227,6.448785978092173465
0.507000000000000339,6.334523211558424016
0.508000000000000229,6.219455548095535136
0.509000000000000341,6.103647072403631135
0.510000000000000231,5.987161051186214777
0.511000000000000343,5.870059908155405459
0.512000000000000233,5.752405200550287034
0.513000000000000345,5.634257597135075457
0.514000000000000234,5.515676857645514630
0.515000000000000346,5.396721813649630661
0.516000000000000236,5.277450350790573452
0.517000000000000348,5.157919392377268153
0.518000000000000238,5.038184884290235921
0.519000000000000350,4.918301781168058717
0.520000000000000240,4.798324033841727676
0.521000000000000352,4.678304577982370205
0.522000000000000242,4.558295323929574927
0.523000000000000353,4.438347147665895776
0.524000000000000243,4.318509882905120278
0.525000000000000355,4.198832314260164011
0.526000000000000245,4.079362171458417841
0.527000000000000357,3.960146124570952164
0.528000000000000247,3.841229780223900825
0.529000000000000359,3.722657678759040412
0.530000000000000249,3.604473292312317945
0.531000000000000361,3.486719023778249493
0.532000000000000250,3.369436206629565334
0.533000000000000362,3.252665105560622383
0.534000000000000252,3.136444917925161668
0.535000000000000364,3.020813775937269519
0.536000000000000254,2.905808749607388553
0.537000000000000366,2.791465850383032521
0.538000000000000256,2.677820035466795812
0.539000000000000368,2.564905212782591981
0.540000000000000258,2.452754246563460860
0.541000000000000369,2.341398963532871136
0.542000000000000259,2.230870159654077423
0.543000000000000371,2.121197607420401532
0.544000000000000261,2.012410063661732806
0.545000000000000373,1.904535277841775009
0.546000000000000263,1.797600000822024313
0.547000000000000375,1.691629994067880061
0.548000000000000265,1.586650039274544177
0.549000000000000377,1.482683948388714645
0.550000000000000266,1.379754574004905532
0.551000000000000378,1.277883820113716151
0.552000000000000268,1.177092653181599058
0.553000000000000380,1.077401113540892519
0.554000000000000270,0.978828327070533910
0.555000000000000382,0.881392517147321919
0.556000000000000272,0.785111016849260102
0.557000000000000384,0.690000281391977666
0.558000000000000274,0.596075900780602908
0.559000000000000385,0.503352612659339949
0.560000000000000275,0.411844315342117184
0.561000000000000387,0.321564081007475799
0.562000000000000277,0.232524169042262224
0.563000000000000389,0.144736039518125192
0.564000000000000279,0.058210366786469313
0.565000000000000391,-0.027042946823154678
0.566000000000000281,-0.111014757214630583
0.567000000000000393,-0.193696664660892581
0.568000000000000282,-0.275080999876043730
0.569000000000000394,-0.355160810037152941
0.570000000000000284,-0.433929844767130202
0.571000000000000396,-0.511382542091202708
0.572000000000000286,-0.587514014377431226
0.573000000000000398,-0.662320034272725566
0.574000000000000288,-0.735797020644261668
0.575000000000000400,-0.807942024536763670
0.576000000000000290,-0.878752715154712427
0.577000000000000401,-0.948227365879259265
0.578000000000000291,-1.016364840328081387
0.579000000000000403,-1.083164578467097794
0.580000000000000293,-1.148626582781679062
0.581000000000000405,-1.212751404515536757
0.582000000000000295,-1.275540129984034099
0.583000000000000407,-1.336994366969628922
0.584000000000000297,-1.397116231205385750
0.585000000000000409,-1.455908332953608664
0.586000000000000298,-1.513373763684962903
0.587000000000000410,-1.569516082864394146
0.588000000000000300,-1.624339304848702481
0.589000000000000412,-1.677847885901418312
0.590000000000000302,-1.730046711329303211
0.591000000000000414,-1.780941082745465920
0.592000000000000304,-1.830536705463038150
0.593000000000000416,-1.878839676023640326
0.594000000000000306,-1.925856469864230647
0.595000000000000417,-1.971593929126077782
0.596000000000000307,-2.016059250608783771
0.597000000000000419,-2.059259973872761496
0.598000000000000309,-2.101203969492726920
0.599000000000000421,-2.141899427464863948
0.600000000000000311,-2.181354845770061779
0.601000000000000423,-2.219579019095462957
0.602000000000000313,-2.256581027716003440
0.603000000000000425,-2.292370226538240185
0.604000000000000314,-2.326956234307457017
0.605000000000000426,-2.360348922980015196
0.606000000000000316,-2.392558407261766718
0.607000000000000428,-2.423595034313885233
0.608000000000000318,-2.453469373626903316
0.609000000000000430,-2.482192207063757206
0.610000000000000320,-2.509774519072380361
0.611000000000000432,-2.536227487068475561
0.612000000000000322,-2.561562471988584111
0.613000000000000433,-2.585791009013823416
0.614000000000000323,-2.608924798464291150
0.615000000000000435,-2.630975696864106705
0.616000000000000325,-2.651955708176824800
0.617000000000000437,-2.671876975211163074
0.618000000000000327,-2.690751771196393527
0.619000000000000439,-2.708592491527102464
0.620000000000000329,-2.725411645676646621
0.621000000000000441,-2.741221849278610900
0.622000000000000330,-2.756035816375562497
0.623000000000000442,-2.769866351834217255
0.624000000000000332,-2.782726343925988832
0.625000000000000444,-2.794628757072104897
0.626000000000000334,-2.805586624752008262
0.627000000000000446,-2.815613042573992697
0.628000000000000336,-2.824721161506837941
0.629000000000000448,-2.832924181271162745
0.630000000000000338,-2.840235343889066399
0.631000000000000449,-2.846667927390848174
0.632000000000000339,-2.852235239677169076
0.633000000000000451,-2.856950612535250844
0.634000000000000341,-2.860827395807532092
0.635000000000000453,-2.863878951711285037
0.636000000000000343,-2.866118649307394239
0.637000000000000455,-2.867559859116835863
0.638000000000000345,-2.868215947882969630
0.639000000000000457,-2.868100273478066065
0.640000000000000346,-2.867226179952218068
0.641000000000000458,-2.865606992722886215
0.642000000000000348,-2.863256013903272112
0.643000000000000460,-2.860186517767648873
0.644000000000000350,-2.856411746351867897
0.645000000000000462,-2.851944905187062673
0.646000000000000352,-2.846799159164779436
0.647000000000000464,-2.840987628531560283
0.648000000000000353,-2.834523385011098462
0.649000000000000465,-2.827419448051980311
0.650000000000000355,-2.819688781199219285
0.651000000000000467,-2.811344288587438456
0.652000000000000357,-2.802398811554028146
0.653000000000000469,-2.792865125369967672
0.654000000000000359,-2.782755936086787063
0.655000000000000471,-2.772083877497345306
0.656000000000000361,-2.760861508208695803
0.657000000000000473,-2.749101308824987822
0.658000000000000362,-2.736815679238529420
0.659000000000000474,-2.724016936026995239
0.660000000000000364,-2.710717309954904675
0.661000000000000476,-2.696928943577393323
0.662000000000000366,-2.682663888944418318
0.663000000000000478,-2.667934105403364065
0.664000000000000368,-2.652751457498305321
0.665000000000000480,-2.637127712963895476
0.666000000000000369,-2.621074540812065923
