# AuFCC100-Ablate100_BGALNA-JS
# h[nm],U(h)[kJ/mol]
0.200000000000000011,173.819866669546769344
0.201000000000000012,164.836867340791798142
0.202000000000000013,159.479342178574427180
0.203000000000000014,155.727731568554759178
0.204000000000000015,152.461212732072681320
0.205000000000000016,149.123879399434400739
0.206000000000000016,145.498878404663059882
0.207000000000000017,141.559140291814486545
0.208000000000000018,137.371723759093526951
0.209000000000000019,133.039076357787479310
0.210000000000000020,128.665196784064676194
0.211000000000000021,124.338153054231185024
0.212000000000000022,120.122962331376271550
0.213000000000000023,116.060699452148625710
0.214000000000000024,112.171045967095622586
0.215000000000000024,108.456452020044977758
0.216000000000000025,104.906759985885287279
0.217000000000000026,101.503607245677727633
0.218000000000000027,98.224242764016480578
0.219000000000000028,95.044600821104140209
0.220000000000000029,91.941606961230860406
0.221000000000000030,88.894769261246807446
0.222000000000000031,85.887149434363337264
0.223000000000000032,82.905825390572175593
0.224000000000000032,79.941958480074589488
0.225000000000000033,76.990570944835994283
0.226000000000000034,74.050126369250676817
0.227000000000000035,71.121991027059479507
0.228000000000000036,68.209838831839377349
0.229000000000000037,65.319048258692504305
0.230000000000000038,62.456126759988833896
0.231000000000000039,59.628187150525434390
0.232000000000000040,56.842491262863404700
0.233000000000000040,54.106068803847264803
0.234000000000000041,51.425413625568481280
0.235000000000000042,48.806255361550519467
0.236000000000000043,46.253401358695882095
0.237000000000000044,43.770641846356923566
0.238000000000000045,41.360710127570101236
0.239000000000000046,39.025289075165972008
0.240000000000000047,36.765055210538363895
0.241000000000000048,34.579752001746058454
0.242000000000000048,32.468284628964667604
0.243000000000000049,30.428829238351944753
0.244000000000000050,28.458950567878428473
0.245000000000000051,26.555722724478322050
0.246000000000000052,24.715848778744557990
0.247000000000000053,22.935775690633555257
0.248000000000000054,21.211801866149794904
0.249000000000000055,19.540175357335382245
0.250000000000000056,17.917181348785568673
0.251000000000000056,16.339218120756974884
0.252000000000000057,14.802861142682264273
0.253000000000000058,13.304915335086036521
0.254000000000000059,11.842455847809370439
0.255000000000000060,10.412857944547994293
0.256000000000000061,9.013816765062317771
0.257000000000000062,7.643357864351388642
0.258000000000000063,6.299839509863094378
0.259000000000000064,4.981947760442836604
0.260000000000000064,3.688685360783868994
0.261000000000000065,2.419355468707020229
0.262000000000000066,1.173541195152501659
0.263000000000000067,-0.048918116780741892
0.264000000000000068,-1.247953012772686554
0.265000000000000069,-2.423291660674490977
0.266000000000000070,-3.574488487212145849
0.267000000000000071,-4.700953089519908978
0.268000000000000071,-5.801978873777433598
0.269000000000000072,-6.876770952325324870
0.270000000000000073,-7.924472906696342633
0.271000000000000074,-8.944192095977598456
0.272000000000000075,-9.935023257055433987
0.273000000000000076,-10.896070205070255810
0.274000000000000077,-11.826465498522907183
0.275000000000000078,-12.725387983788966295
0.276000000000000079,-13.592078178322399395
0.277000000000000079,-14.425851490687984224
0.278000000000000080,-15.226109308956640831
0.279000000000000081,-15.992348017213910083
0.280000000000000082,-16.724166023287423855
0.281000000000000083,-17.421268899657555096
0.282000000000000084,-18.083472754252149173
0.283000000000000085,-18.710705958829180418
0.284000000000000086,-19.303009370308267023
0.285000000000000087,-19.860535185100399502
0.286000000000000087,-20.383544568574883726
0.287000000000000088,-20.872404201641348465
0.288000000000000089,-21.327581884341960006
0.289000000000000090,-21.749641332654796599
0.290000000000000091,-22.139236299682206521
0.291000000000000092,-22.497104146304046424
0.292000000000000093,-22.824058979442440886
0.293000000000000094,-23.120984468529606204
0.294000000000000095,-23.388826442776064596
0.295000000000000095,-23.628585363571886546
0.296000000000000096,-23.841308757960000264
0.297000000000000097,-24.028083690724265864
0.298000000000000098,-24.190029344339844641
0.299000000000000099,-24.328289767930595389
0.300000000000000100,-24.444026848537539820
0.301000000000000101,-24.538413550486929182
0.302000000000000102,-24.612627461498863823
0.303000000000000103,-24.667844677435965650
0.304000000000000103,-24.705234051277919605
0.305000000000000104,-24.725951826041956849
0.306000000000000105,-24.731136665956892529
0.307000000000000106,-24.721905095241773154
0.308000000000000107,-24.699347349337905655
0.309000000000000108,-24.664523639383709508
0.310000000000000109,-24.618460827094970966
0.311000000000000110,-24.562149504003052414
0.312000000000000111,-24.496541466191452230
0.313000000000000111,-24.422547573238283292
0.314000000000000112,-24.341035977995886697
0.315000000000000113,-24.252830712097736665
0.316000000000000114,-24.158710610653976403
0.317000000000000115,-24.059408558456208738
0.318000000000000116,-23.955611039137856721
0.319000000000000117,-23.847957968105113480
0.320000000000000118,-23.737042789642607943
0.321000000000000119,-23.623412818386412937
0.322000000000000119,-23.507569805324500578
0.323000000000000120,-23.389970708609318706
0.324000000000000121,-23.271028649733363380
0.325000000000000122,-23.151114036005559171
0.326000000000000123,-23.030555830757986513
0.327000000000000124,-22.909642953295087153
0.328000000000000125,-22.788625791254339958
0.329000000000000126,-22.667717808765509346
0.330000000000000127,-22.547097234563604928
0.331000000000000127,-22.426908815016879828
0.332000000000000128,-22.307265617864160845
0.333000000000000129,-22.188250873308582811
0.334000000000000130,-22.069919839976250842
0.335000000000000131,-21.952301684114377878
0.336000000000000132,-21.835401361263457432
0.337000000000000133,-21.719201490490412709
0.338000000000000134,-21.603664212105677223
0.339000000000000135,-21.488733020605568669
0.340000000000000135,-21.374334565375491479
0.341000000000000136,-21.260380412459092270
0.342000000000000137,-21.146768761438657691
0.343000000000000138,-21.033386112182174799
0.344000000000000139,-20.920108876890008531
0.345000000000000140,-20.806804933519313039
0.346000000000000141,-20.693335117273374379
0.347000000000000142,-20.579554647419527669
0.348000000000000143,-20.465314487239595564
0.349000000000000143,-20.350462635422136515
0.350000000000000144,-20.234845347677644867
0.351000000000000145,-20.118308287794256728
0.352000000000000146,-20.000697607755615337
0.353000000000000147,-19.881860956913406824
0.354000000000000148,-19.761648420546702454
0.355000000000000149,-19.639913388448661635
0.356000000000000150,-19.516513354460968799
0.357000000000000151,-19.391310648127081606
0.358000000000000151,-19.264173099859608129
0.359000000000000152,-19.134974641215006130
0.360000000000000153,-19.003595842043345954
0.361000000000000154,-18.869924386430888319
0.362000000000000155,-18.733855489482586165
0.363000000000000156,-18.595292257100112465
0.364000000000000157,-18.454145990999922589
0.365000000000000158,-18.310336441287976328
0.366000000000000159,-18.163792008962008850
0.367000000000000159,-18.014449900751799305
0.368000000000000160,-17.862256238733454694
0.369000000000000161,-17.707166127165386627
0.370000000000000162,-17.549143678994177264
0.371000000000000163,-17.388162004468117772
0.372000000000000164,-17.224203164274886291
0.373000000000000165,-17.057258089591552874
0.374000000000000166,-16.887326471396661987
0.375000000000000167,-16.714416621350352443
0.376000000000000167,-16.538545306497489662
0.377000000000000168,-16.359737559992630906
0.378000000000000169,-16.178026469984491342
0.379000000000000170,-15.993452948733008157
0.380000000000000171,-15.806065483962990825
0.381000000000000172,-15.615919874387817146
0.382000000000000173,-15.423078951262237268
0.383000000000000174,-15.227612287749058950
0.384000000000000175,-15.029595897806967031
0.385000000000000175,-14.829111926229979090
0.386000000000000176,-14.626248331390922175
0.387000000000000177,-14.421098562163317425
0.388000000000000178,-14.213761230418814563
0.389000000000000179,-14.004339780419536865
0.390000000000000180,-13.792942156349173644
0.391000000000000181,-13.579680469150750000
0.392000000000000182,-13.364670663765812364
0.393000000000000183,-13.148032187796506065
0.394000000000000183,-12.929887662541935001
0.395000000000000184,-12.710362557290874719
0.396000000000000185,-12.489584867685556091
0.397000000000000186,-12.267684798906765664
0.398000000000000187,-12.044794454366902769
0.399000000000000188,-11.821047530537082793
0.400000000000000189,-11.596579018475942746
0.401000000000000190,-11.371524912570949439
0.402000000000000191,-11.146021926949796210
0.403000000000000191,-10.920207219966826528
0.404000000000000192,-10.694218127120793227
0.405000000000000193,-10.468191902712682406
0.406000000000000194,-10.242265470507733838
0.407000000000000195,-10.016575183623439571
0.408000000000000196,-9.791256593824581245
0.409000000000000197,-9.566444230368785995
0.410000000000000198,-9.342271388510106078
0.411000000000000199,-9.118869927734143843
0.412000000000000199,-8.896370079766887429
0.413000000000000200,-8.674900266369784063
0.414000000000000201,-8.454586926905813371
0.415000000000000202,-8.235554355635493096
0.416000000000000203,-8.017924548678481145
0.417000000000000204,-7.801817060553378091
0.418000000000000205,-7.587348870189073224
0.419000000000000206,-7.374634256281621170
0.420000000000000207,-7.163784681853454295
0.421000000000000207,-6.954908687857235705
0.422000000000000208,-6.748111795650977740
0.423000000000000209,-6.543496418160108519
0.424000000000000210,-6.341161779529576492
0.425000000000000211,-6.141203843059670042
0.426000000000000212,-5.943715247210435315
0.427000000000000213,-5.748785249451508150
0.428000000000000214,-5.556499677728258035
0.429000000000000214,-5.366940889308872364
0.430000000000000215,-5.180187736773022245
0.431000000000000216,-4.996315540899089136
0.432000000000000217,-4.815396070203613377
0.433000000000000218,-4.637497526885397292
0.434000000000000219,-4.462684538924988509
0.435000000000000220,-4.291018158090049717
0.436000000000000221,-4.122555863597041181
0.437000000000000222,-3.957351571180657945
0.438000000000000222,-3.795455647323686232
0.439000000000000223,-3.636914928401888236
0.440000000000000224,-3.481772744500689409
0.441000000000000225,-3.330068947663408885
0.442000000000000226,-3.181839944334170500
0.443000000000000227,-3.037118731761508705
0.444000000000000228,-2.895934938133487346
0.445000000000000229,-2.758314866218553707
0.446000000000000230,-2.624281540291399928
0.447000000000000230,-2.493854756127416472
0.448000000000000231,-2.367051133854471967
0.449000000000000232,-2.243884173455771958
0.450000000000000233,-2.124364312722770709
0.451000000000000234,-2.008498987462659091
0.452000000000000235,-1.896292693770265547
0.453000000000000236,-1.787747052179835761
0.454000000000000237,-1.682860873518167377
0.455000000000000238,-1.581630226285631657
0.456000000000000238,-1.484048505398158468
0.457000000000000239,-1.390106502128278354
0.458000000000000240,-1.299792475089873278
0.459000000000000241,-1.213092222116221475
0.460000000000000242,-1.129989152887566961
0.461000000000000243,-1.050464362169328592
0.462000000000000244,-0.974496703528461516
0.463000000000000245,-0.902062863400425075
0.464000000000000246,-0.833137435385430836
0.465000000000000246,-0.767692994657625749
0.466000000000000247,-0.705700172376496737
0.467000000000000248,-0.647127729995012779
0.468000000000000249,-0.591942633364390014
0.469000000000000250,-0.540110126540256807
0.470000000000000251,-0.491593805200264022
0.471000000000000252,-0.446355689587763060
0.472000000000000253,-0.404356296901532353
0.473000000000000254,-0.365554713055511293
0.474000000000000254,-0.329908663737650598
0.475000000000000255,-0.297374584701174005
0.476000000000000256,-0.267907691225819200
0.477000000000000257,-0.241462046691075821
0.478000000000000258,-0.217990630207257313
0.479000000000000259,-0.197445403254293161
0.480000000000000260,-0.179777375282085844
0.481000000000000261,-0.164936668229688610
0.482000000000000262,-0.152872579924529350
0.483000000000000262,-0.143533646325934405
0.484000000000000263,-0.136867702580921152
0.485000000000000264,-0.132821942863094927
0.486000000000000265,-0.131342978968968543
0.487000000000000266,-0.132376897648557812
0.488000000000000267,-0.135869316650197636
0.489000000000000268,-0.141765439462409326
0.490000000000000269,-0.150010108737756193
0.491000000000000270,-0.160547858386772102
0.492000000000000270,-0.173322964331847740
0.493000000000000271,-0.188279493913740575
0.494000000000000272,-0.205361353945080705
0.495000000000000273,-0.224512337407842988
0.496000000000000274,-0.245676168793188154
0.497000000000000275,-0.268796548084279163
0.498000000000000276,-0.293817193384542985
0.499000000000000277,-0.320681882195015255
0.500000000000000222,-0.349334491346732001
0.501000000000000334,-0.379719035594875798
0.502000000000000224,-0.411779704883424913
0.503000000000000336,-0.445460900289948725
0.504000000000000226,-0.480707268661632159
0.505000000000000338,-0.517463735954818094
0.506000000000000227,-0.555675539291240028
0.507000000000000339,-0.595288257745409055
0.508000000000000229,-0.636247841878188392
0.509000000000000341,-0.678500642033036505
0.510000000000000231,-0.721993435411466877
0.511000000000000343,-0.766673451945757867
0.512000000000000233,-0.812488398986923599
0.513000000000000345,-0.859386484827307173
0.514000000000000234,-0.907316441077032132
0.515000000000000346,-0.956227543914581424
0.516000000000000236,-1.006069634231796517
0.517000000000000348,-1.056793136694561319
0.518000000000000238,-1.108349077739990696
0.519000000000000350,-1.160689102532230788
0.520000000000000240,-1.213765490898200294
0.521000000000000352,-1.267531172265885742
0.522000000000000242,-1.321939739626903698
0.523000000000000353,-1.376945462546383725
0.524000000000000243,-1.432503299242016581
0.525000000000000355,-1.488568907755505766
0.526000000000000245,-1.545098656238535373
0.527000000000000357,-1.602049632376394639
0.528000000000000247,-1.659379651971472969
0.529000000000000359,-1.717047266709570863
0.530000000000000249,-1.775011771131310256
0.531000000000000361,-1.833233208831293037
0.532000000000000250,-1.891672377907058777
0.533000000000000362,-1.950290835680415835
0.534000000000000252,-2.009050902712538722
0.535000000000000364,-2.067915666135543340
0.536000000000000254,-2.126848982321175363
0.537000000000000366,-2.185815478908934573
0.538000000000000256,-2.244780556214164502
0.539000000000000368,-2.303710388037508494
0.540000000000000258,-2.362571921896047034
0.541000000000000369,-2.421332878696969448
0.542000000000000259,-2.479961751873362985
0.543000000000000371,-2.538427806002547804
0.544000000000000261,-2.596701074926059949
0.545000000000000373,-2.654752359390783134
0.546000000000000263,-2.712553224229909521
0.547000000000000375,-2.770075995102705857
0.548000000000000265,-2.827293754810805471
0.549000000000000377,-2.884180339209573507
0.550000000000000266,-2.940710332731516274
0.551000000000000378,-2.996859063539555112
0.552000000000000268,-3.052602598326586758
0.553000000000000380,-3.107917736778248674
0.554000000000000270,-3.162782005714773970
0.555000000000000382,-3.217173652928083438
0.556000000000000272,-3.271071640729348307
0.557000000000000384,-3.324455639222279935
0.558000000000000274,-3.377306019316971053
0.559000000000000385,-3.429603845498594872
0.560000000000000275,-3.481330868365105857
0.561000000000000387,-3.532469516947725374
0.562000000000000277,-3.583002890827336362
0.563000000000000389,-3.632914752060197650
0.564000000000000279,-3.682189516925219230
0.565000000000000391,-3.730812247505541190
0.566000000000000281,-3.778768643115973269
0.567000000000000393,-3.826045031588383605
0.568000000000000282,-3.872628360425968364
0.569000000000000394,-3.918506187837702104
0.570000000000000284,-3.963666673663230888
0.571000000000000396,-4.008098570199066124
0.572000000000000286,-4.051791212935562214
0.573000000000000398,-4.094734511214723760
0.574000000000000288,-4.136918938817987446
0.575000000000000400,-4.178335524493340003
0.576000000000000290,-4.218975842430134904
0.577000000000000401,-4.258832002690544627
0.578000000000000291,-4.297896641605428059
0.579000000000000403,-4.336162912142780712
0.580000000000000293,-4.373624474256168071
0.581000000000000405,-4.410275485220760849
0.582000000000000295,-4.446110589963611304
0.583000000000000407,-4.481124911395476751
0.584000000000000297,-4.515314040750174840
0.585000000000000409,-4.548674027938298892
0.586000000000000298,-4.581201371920792020
0.587000000000000410,-4.612893011108615937
0.588000000000000300,-4.643746313793668534
0.589000000000000412,-4.673759068616575085
0.590000000000000302,-4.702929475076127908
0.591000000000000414,-4.731256134085514375
0.592000000000000304,-4.758738038579686247
0.593000000000000416,-4.785374564178472845
0.594000000000000306,-4.811165459909544140
0.595000000000000417,-4.836110838995310246
0.596000000000000307,-4.860211169707383760
0.597000000000000419,-4.883467266292427666
0.598000000000000309,-4.905880279972699931
0.599000000000000421,-4.927451690024427400
0.600000000000000311,-4.948183294937278376
0.601000000000000423,-4.968077203657681018
0.602000000000000313,-4.987135826918612125
0.603000000000000425,-5.005361868658685154
0.604000000000000314,-5.022758317532579397
0.605000000000000426,-5.039328438515339847
0.606000000000000316,-5.055075764602413813
0.607000000000000428,-5.070004088607468873
0.608000000000000318,-5.084117455059801394
0.609000000000000430,-5.097420152202928101
0.610000000000000320,-5.109916704095884832
0.611000000000000432,-5.121611862818713057
0.612000000000000322,-5.132510600783307453
0.613000000000000433,-5.142618103150820907
0.614000000000000323,-5.151939760356698095
0.615000000000000435,-5.160481160744195606
0.616000000000000325,-5.168248083307192431
0.617000000000000437,-5.175246490543136346
0.618000000000000327,-5.181482521416543641
0.619000000000000439,-5.186962484433706777
0.620000000000000329,-5.191692850828978578
0.621000000000000441,-5.195680247862944690
0.622000000000000330,-5.198931452232767647
0.623000000000000442,-5.201453383594844659
0.624000000000000332,-5.203253098199786209
0.625000000000000444,-5.204337782639880672
0.626000000000000334,-5.204714747708783840
0.627000000000000446,-5.204391422373420895
0.628000000000000336,-5.203375347857841504
0.629000000000000448,-5.201674171838750915
0.630000000000000338,-5.199295642752358226
0.631000000000000449,-5.196247604212206106
0.632000000000000339,-5.192537989537476584
0.633000000000000451,-5.188174816391245336
0.634000000000000341,-5.183166181528156002
0.635000000000000453,-5.177520255650970071
0.636000000000000343,-5.171245278375137922
0.637000000000000455,-5.164349553300953133
0.638000000000000345,-5.156841443192293539
0.639000000000000457,-5.148729365261344171
0.640000000000000346,-5.140021786558397920
0.641000000000000458,-5.130727219465901712
0.642000000000000348,-5.120854217295836897
0.643000000000000460,-5.110411369989527941
0.644000000000000350,-5.099407299918952141
0.645000000000000462,-5.087850657788477449
0.646000000000000352,-5.075750118636137564
0.647000000000000464,-5.063114377933324306
0.648000000000000353,-5.049952147781930023
0.649000000000000465,-5.036272153207703717
0.650000000000000355,-5.022083128548976205
0.651000000000000467,-5.007393813939335026
0.652000000000000357,-4.992212951883465699
0.653000000000000469,-4.976549283924602385
0.654000000000000359,-4.960411547402894250
0.655000000000000471,-4.943808472303080848
0.656000000000000361,-4.926748778190604305
0.657000000000000473,-4.909241171234767442
0.658000000000000362,-4.891294341317895977
0.659000000000000474,-4.872916959229129041
