# AuFCC100-Ablate100_BSAI23
# h[nm],U(h)[kJ/mol]
0.149999999999999994,130.874353060492865097
0.150999999999999995,127.743193794024847421
0.151999999999999996,123.247317160191272478
0.152999999999999997,118.556079863968491850
0.153999999999999998,114.112359184758631159
0.154999999999999999,110.004799686376216528
0.156000000000000000,106.175393567413877349
0.157000000000000001,102.527353542352699378
0.158000000000000002,98.974813412200887797
0.159000000000000002,95.460338336554883654
0.160000000000000003,91.956042279926165861
0.161000000000000004,88.457553816444118411
0.162000000000000005,84.975940526730425972
0.163000000000000006,81.530171270310447085
0.164000000000000007,78.141203242075889079
0.165000000000000008,74.827948893688159160
0.166000000000000009,71.604955077195853619
0.167000000000000010,68.481448391350568272
0.168000000000000010,65.461360736276930083
0.169000000000000011,62.543981022992184649
0.170000000000000012,59.724942470583741283
0.171000000000000013,56.997326580173549360
0.172000000000000014,54.352732146952384085
0.173000000000000015,51.782214698620443016
0.174000000000000016,49.277046643737250520
0.175000000000000017,46.829281506648278821
0.176000000000000018,44.432128355445897228
0.177000000000000018,42.080156768326943961
0.178000000000000019,39.769360347093076768
0.179000000000000020,37.497109624047283205
0.180000000000000021,35.262024709341979190
0.181000000000000022,33.063795392104033510
0.182000000000000023,30.902972567649477753
0.183000000000000024,28.780750498652775349
0.184000000000000025,26.698755010050746250
0.185000000000000026,24.658848581636352293
0.186000000000000026,22.662959627906428040
0.187000000000000027,20.712940136597513430
0.188000000000000028,18.810453302899862393
0.189000000000000029,16.956890827277213418
0.190000000000000030,15.153318093928131560
0.191000000000000031,13.400444450782709183
0.192000000000000032,11.698615200119617086
0.193000000000000033,10.047821610447162044
0.194000000000000034,8.447725207974471573
0.195000000000000034,6.897692738858242301
0.196000000000000035,5.396838458200704736
0.197000000000000036,3.944070753408340124
0.198000000000000037,2.538140510974081998
0.199000000000000038,1.177689057541503992
0.200000000000000039,-0.138706074422834835
0.201000000000000040,-1.412488905604702971
0.202000000000000041,-2.645087273012863616
0.203000000000000042,-3.837880245363057163
0.204000000000000042,-4.992171049429627416
0.205000000000000043,-6.109165620545242703
0.206000000000000044,-7.189956687962403059
0.207000000000000045,-8.235513144361791049
0.208000000000000046,-9.246674325329745869
0.209000000000000047,-10.224148735404849475
0.210000000000000048,-11.168516698248419416
0.211000000000000049,-12.080236375443185182
0.212000000000000050,-12.959652587256679013
0.213000000000000050,-13.807007875487817827
0.214000000000000051,-14.622455269604452965
0.215000000000000052,-15.406072249456556733
0.216000000000000053,-16.157875437964381860
0.217000000000000054,-16.877835602756039890
0.218000000000000055,-17.565892594555862161
0.219000000000000056,-18.221969900348600646
0.220000000000000057,-18.845988539445787779
0.221000000000000058,-19.437880079330650318
0.222000000000000058,-19.997598594620690449
0.223000000000000059,-20.525131435943016811
0.224000000000000060,-21.020508715477593142
0.225000000000000061,-21.483811452065108227
0.226000000000000062,-21.915178350930652584
0.227000000000000063,-22.314811221199384761
0.228000000000000064,-22.682979058529273431
0.229000000000000065,-23.020020840498169434
0.230000000000000066,-23.326347099047268330
0.231000000000000066,-23.602440347545940114
0.232000000000000067,-23.848854450168126107
0.233000000000000068,-24.066213028548478547
0.234000000000000069,-24.255207005411335786
0.235000000000000070,-24.416591387334630525
0.236000000000000071,-24.551181389313210701
0.237000000000000072,-24.659848002603197870
0.238000000000000073,-24.743513104724176088
0.239000000000000073,-24.803144206717298914
0.240000000000000074,-24.839748928035366049
0.241000000000000075,-24.854369283982276073
0.242000000000000076,-24.848075864613413444
0.243000000000000077,-24.821961977623800522
0.244000000000000078,-24.777137821135816864
0.245000000000000079,-24.714724745579822240
0.246000000000000080,-24.635849657153663372
0.247000000000000081,-24.541639608741494527
0.248000000000000081,-24.433216617748783506
0.249000000000000082,-24.311692744131885746
0.250000000000000111,-24.178165456018181345
0.251000000000000112,-24.033713304764681595
0.252000000000000113,-23.879391926119872380
0.253000000000000114,-23.716230379350484725
0.254000000000000115,-23.545227831788661632
0.255000000000000115,-23.367350592244072516
0.256000000000000116,-23.183529493113177011
0.257000000000000117,-22.994657617793986759
0.258000000000000118,-22.801588367169983940
0.259000000000000119,-22.605133856448016871
0.260000000000000120,-22.406063631503336353
0.261000000000000121,-22.205103692083504541
0.262000000000000122,-22.002935807731027751
0.263000000000000123,-21.800197111080517942
0.264000000000000123,-21.597479952249948099
0.265000000000000124,-21.395331997352631248
0.266000000000000125,-21.194256553689147182
0.267000000000000126,-20.994713103910392249
0.268000000000000127,-20.797118031357932466
0.269000000000000128,-20.601845518863054707
0.270000000000000129,-20.409228603502914012
0.271000000000000130,-20.219560370153370599
0.272000000000000131,-20.033095267125617056
0.273000000000000131,-19.850050527711257331
0.274000000000000132,-19.670607682074351175
0.275000000000000133,-19.494914144604045703
0.276000000000000134,-19.323084862565206521
0.277000000000000135,-19.155204012646439793
0.278000000000000136,-18.991326732792977339
0.279000000000000137,-18.831480877517659422
0.280000000000000138,-18.675668785698135821
0.281000000000000139,-18.523869050683924087
0.282000000000000139,-18.376038283348037794
0.283000000000000140,-18.232112859517172865
0.284000000000000141,-18.092010643997873842
0.285000000000000142,-17.955632684179157366
0.286000000000000143,-17.822864866930956396
0.287000000000000144,-17.693579533229666367
0.288000000000000145,-17.567637045624788783
0.289000000000000146,-17.444887304311819776
0.290000000000000147,-17.325171208195044414
0.291000000000000147,-17.208322057908780778
0.292000000000000148,-17.094166898316185410
0.293000000000000149,-16.982527798520585804
0.294000000000000150,-16.873223067905414041
0.295000000000000151,-16.766068407166272891
0.296000000000000152,-16.660877993711096678
0.297000000000000153,-16.557465501185316015
0.298000000000000154,-16.455645053225630647
0.299000000000000155,-16.355232111863379885
0.300000000000000155,-16.256044301284234166
0.301000000000000156,-16.157902167908268609
0.302000000000000157,-16.060629877984322178
0.303000000000000158,-15.964055854095326126
0.304000000000000159,-15.868013352149869633
0.305000000000000160,-15.772340980589115489
0.306000000000000161,-15.676883163670845889
0.307000000000000162,-15.581490550803442474
0.308000000000000163,-15.486020373994151100
0.309000000000000163,-15.390336755549657966
0.310000000000000164,-15.294310968223708613
0.311000000000000165,-15.197821650047043107
0.312000000000000166,-15.100754976102242821
0.313000000000000167,-15.003004789519163609
0.314000000000000168,-14.904472693968369157
0.315000000000000169,-14.805068109920664909
0.316000000000000170,-14.704708296921761956
0.317000000000000171,-14.603318344103252358
0.318000000000000171,-14.500831131115074157
0.319000000000000172,-14.397187261622542920
0.320000000000000173,-14.292334971461604809
0.321000000000000174,-14.186230013492515667
0.322000000000000175,-14.078835521133285624
0.323000000000000176,-13.970121852491937275
0.324000000000000177,-13.860066416951047685
0.325000000000000178,-13.748653485989828837
0.326000000000000179,-13.635873989959041097
0.327000000000000179,-13.521725302451935491
0.328000000000000180,-13.406211013842000312
0.329000000000000181,-13.289340695485009292
0.330000000000000182,-13.171129656008691455
0.331000000000000183,-13.051598691040732447
0.332000000000000184,-12.930773827651943719
0.333000000000000185,-12.808686064719784881
0.334000000000000186,-12.685371110345752044
0.335000000000000187,-12.560869117390074834
0.336000000000000187,-12.435224418118687950
0.337000000000000188,-12.308485258889902525
0.338000000000000189,-12.180703535743248267
0.339000000000000190,-12.051934531689109775
0.340000000000000191,-11.922236656436060898
0.341000000000000192,-11.791671189233927208
0.342000000000000193,-11.660302025452029540
0.343000000000000194,-11.528195427458010514
0.344000000000000195,-11.395419780308543523
0.345000000000000195,-11.262045352713093038
0.346000000000000196,-11.128144063682835707
0.347000000000000197,-10.993789255230714375
0.348000000000000198,-10.859055471444449381
0.349000000000000199,-10.724018244212203399
0.350000000000000200,-10.588753885841338587
0.351000000000000201,-10.453339288772539817
0.352000000000000202,-10.317851732556722055
0.353000000000000203,-10.182368698228412285
0.354000000000000203,-10.046967690178130184
0.355000000000000204,-9.911726065596907276
0.356000000000000205,-9.776720871538769231
0.357000000000000206,-9.642028689621358950
0.358000000000000207,-9.507725488361097987
0.359000000000000208,-9.373886483117527035
0.360000000000000209,-9.240586003600908427
0.361000000000000210,-9.107897368878651534
0.362000000000000210,-8.975892769798822002
0.363000000000000211,-8.844643158733569877
0.364000000000000212,-8.714218146530948061
0.365000000000000213,-8.584685906550634016
0.366000000000000214,-8.456113085647761096
0.367000000000000215,-8.328564721958404249
0.368000000000000216,-8.202104169331418504
0.369000000000000217,-8.076793028242921224
0.370000000000000218,-7.952691083022966900
0.371000000000000218,-7.829856245217763799
0.372000000000000219,-7.708344502905674744
0.373000000000000220,-7.588209875781143587
0.374000000000000221,-7.469504375817116681
0.375000000000000222,-7.352277973313958270
0.376000000000000223,-7.236578568140953571
0.377000000000000224,-7.122451965975112209
0.378000000000000225,-7.009941859341577874
0.379000000000000226,-6.899089813259566384
0.380000000000000226,-6.789935255298561678
0.381000000000000227,-6.682515469850144996
0.382000000000000228,-6.576865596422512894
0.383000000000000229,-6.473018631766429110
0.384000000000000230,-6.371005435643442461
0.385000000000000231,-6.270854740050127774
0.386000000000000232,-6.172593161714504006
0.387000000000000233,-6.076245217684239641
0.388000000000000234,-5.981833343829495497
0.389000000000000234,-5.889377916086994347
0.390000000000000235,-5.798897274275438107
0.391000000000000236,-5.710407748316802312
0.392000000000000237,-5.623923686701651548
0.393000000000000238,-5.539457487041334005
0.394000000000000239,-5.457019628553933188
0.395000000000000240,-5.376618706335456466
0.396000000000000241,-5.298261467272234349
0.397000000000000242,-5.221952847454968349
0.398000000000000242,-5.147696010959653456
0.399000000000000243,-5.075492389864983522
0.400000000000000244,-5.005341725380531237
0.401000000000000245,-4.937242109964918413
0.402000000000000246,-4.871190030317259279
0.403000000000000247,-4.807180411130122621
0.404000000000000248,-4.745206659496752799
0.405000000000000249,-4.685260709869650597
0.406000000000000250,-4.627333069472147287
0.407000000000000250,-4.571412864068998161
0.408000000000000251,-4.517487884006254895
0.409000000000000252,-4.465544630435110740
0.410000000000000253,-4.415568361638221084
0.411000000000000254,-4.367543139381557360
0.412000000000000255,-4.321451875218408567
0.413000000000000256,-4.277276376676397263
0.414000000000000257,-4.234997393261885179
0.415000000000000258,-4.194594662220180403
0.416000000000000258,-4.156046953993291382
0.417000000000000259,-4.119332117320696263
0.418000000000000260,-4.084427123931946291
0.419000000000000261,-4.051308112783162940
0.420000000000000262,-4.019950433792902622
0.421000000000000263,-3.990328691035839537
0.422000000000000264,-3.962416785355648674
0.423000000000000265,-3.936187956361618667
0.424000000000000266,-3.911614823776196292
0.425000000000000266,-3.888669428103329384
0.426000000000000267,-3.867323270590110607
0.427000000000000268,-3.847547352456916592
0.428000000000000269,-3.829312213373317064
0.429000000000000270,-3.812587969159594969
0.430000000000000271,-3.797344348695887106
0.431000000000000272,-3.783550730023011344
0.432000000000000273,-3.771176175621095528
0.433000000000000274,-3.760189466854144236
0.434000000000000274,-3.750559137570473212
0.435000000000000275,-3.742253506850631517
0.436000000000000276,-3.735240710896302829
0.437000000000000277,-3.729488734055068644
0.438000000000000278,-3.724965438977585030
0.439000000000000279,-3.721638595905109703
0.440000000000000280,-3.719475911086649766
0.441000000000000281,-3.718445054326309673
0.442000000000000282,-3.718513685662733881
0.443000000000000282,-3.719649481183446849
0.444000000000000283,-3.721820157978268817
0.445000000000000284,-3.724993498236774947
0.446000000000000285,-3.729137372495761049
0.447000000000000286,-3.734219762043720525
0.448000000000000287,-3.740208780489902463
0.449000000000000288,-3.747072694506533796
0.450000000000000289,-3.754779943753385307
0.451000000000000290,-3.763299159994524246
0.452000000000000290,-3.772599185417759848
0.453000000000000291,-3.782649090167826245
0.454000000000000292,-3.793418189104863725
0.455000000000000293,-3.804876057800219424
0.456000000000000294,-3.816992547782075640
0.457000000000000295,-3.829737801043687107
0.458000000000000296,-3.843082263827521494
0.459000000000000297,-3.856996699698730602
0.460000000000000298,-3.871452201921822933
0.461000000000000298,-3.886420205154448748
0.462000000000000299,-3.901872496472679419
0.463000000000000300,-3.917781225742069662
0.464000000000000301,-3.934118915349132717
0.465000000000000302,-3.950858469307827470
0.466000000000000303,-3.967973181755962919
0.467000000000000304,-3.985436744856161617
0.468000000000000305,-4.003223256116433149
0.469000000000000306,-4.021307225145140052
0.470000000000000306,-4.039663579855302444
0.471000000000000307,-4.058267672133050397
0.472000000000000308,-4.077095282985161440
0.473000000000000309,-4.096122627180348807
0.474000000000000310,-4.115326357398980228
0.475000000000000311,-4.134683567905996782
0.476000000000000312,-4.154171797761275542
0.477000000000000313,-4.173769033582052757
0.478000000000000314,-4.193453711871469203
0.479000000000000314,-4.213204720927464564
0.480000000000000315,-4.233001402345859532
0.481000000000000316,-4.252823552131512308
0.482000000000000317,-4.272651421431048036
0.483000000000000318,-4.292465716900670358
0.484000000000000319,-4.312247600722218799
0.485000000000000320,-4.331978690280552158
0.486000000000000321,-4.351641057515061028
0.487000000000000322,-4.371217227957949980
0.488000000000000322,-4.390690179471652854
0.489000000000000323,-4.410043340697608727
0.490000000000000324,-4.429260589228340983
0.491000000000000325,-4.448326249514581221
0.492000000000000326,-4.467225090518909703
0.493000000000000327,-4.485942323127241060
0.494000000000000328,-4.504463597329125157
0.495000000000000329,-4.522774999177741506
0.496000000000000330,-4.540863047540041109
0.497000000000000330,-4.558714690647502010
0.498000000000000331,-4.576317302457464820
0.499000000000000332,-4.593658678834928288
0.500000000000000333,-4.610727033564458566
0.501000000000000334,-4.627510994201546879
0.502000000000000335,-4.643999597772524801
0.503000000000000336,-4.660182286331989943
0.504000000000000337,-4.676048902386380490
0.505000000000000338,-4.691589684192097209
0.506000000000000338,-4.706795260936420533
0.507000000000000339,-4.721656647809179042
0.508000000000000340,-4.736165240972875168
0.509000000000000341,-4.750312812438818533
0.510000000000000342,-4.764091504856555304
0.511000000000000343,-4.777493826223657258
0.512000000000000344,-4.790512644522733510
0.513000000000000345,-4.803141182292248068
0.514000000000000346,-4.815373011137732639
0.515000000000000346,-4.827202046189397855
0.516000000000000347,-4.838622540512304226
0.517000000000000348,-4.849629079474906845
0.518000000000000349,-4.860216575081468093
0.519000000000000350,-4.870380260273902806
0.520000000000000351,-4.880115683208194000
0.521000000000000352,-4.889418701510434673
0.522000000000000353,-4.898285476517347803
0.523000000000000353,-4.906712467505984776
0.524000000000000354,-4.914696425917057354
0.525000000000000355,-4.922234389576241931
0.526000000000000356,-4.929323676917601205
0.527000000000000357,-4.935961881213105862
0.528000000000000358,-4.942146864812118068
0.529000000000000359,-4.947876753394367277
0.530000000000000360,-4.953149930240106968
0.531000000000000361,-4.957965030520645300
0.532000000000000361,-4.962320935612551054
0.533000000000000362,-4.966216767438520030
0.534000000000000363,-4.969651882837895052
0.535000000000000364,-4.972625867969559188
0.536000000000000365,-4.975138532749850739
0.537000000000000366,-4.977189905328057051
0.538000000000000367,-4.978780226601809744
0.539000000000000368,-4.979909944774703945
0.540000000000000369,-4.980579709958229628
0.541000000000000369,-4.980790368820089853
0.542000000000000370,-4.980542959280755966
0.543000000000000371,-4.979838705260110743
0.544000000000000372,-4.978679011475857230
0.545000000000000373,-4.977065458295241385
0.546000000000000374,-4.974999796641659700
0.547000000000000375,-4.972483942957413028
0.548000000000000376,-4.969519974224049008
0.549000000000000377,-4.966110123041361568
0.550000000000000377,-4.962256772766253654
0.551000000000000378,-4.957962452712399326
0.552000000000000379,-4.953229833411763927
0.553000000000000380,-4.948061721938713298
0.554000000000000381,-4.942461057297580673
0.555000000000000382,-4.936430905874408026
0.556000000000000383,-4.929974456953392092
0.557000000000000384,-4.923095018298766945
0.558000000000000385,-4.915796011802425092
0.559000000000000385,-4.908080969197897048
0.560000000000000386,-4.899953527840920309
0.561000000000000387,-4.891417426556979642
0.562000000000000388,-4.882476501556041626
0.563000000000000389,-4.873134682414701047
0.564000000000000390,-4.863395988125827074
0.565000000000000391,-4.853264523215892190
0.566000000000000392,-4.842744473929920801
0.567000000000000393,-4.831840104484142806
0.568000000000000393,-4.820555753386204678
0.569000000000000394,-4.808895829822935397
0.570000000000000395,-4.796864810115502031
0.571000000000000396,-4.784467234241684075
0.572000000000000397,-4.771707702425233677
0.573000000000000398,-4.758590871791894550
0.574000000000000399,-4.745121453091899255
0.575000000000000400,-4.731304207488586933
0.576000000000000401,-4.717143943412774654
0.577000000000000401,-4.702645513482579531
0.578000000000000402,-4.687813811488166671
0.579000000000000403,-4.672653769441081018
0.580000000000000404,-4.657170354687676372
0.581000000000000405,-4.641368567086134433
0.582000000000000406,-4.625253436246596905
0.583000000000000407,-4.608830018833841358
0.584000000000000408,-4.592103395932026544
0.585000000000000409,-4.575078670470846376
0.586000000000000409,-4.557760964712561425
0.587000000000000410,-4.540155417799335069
0.588000000000000411,-4.522267183360145992
0.589000000000000412,-4.504101427176802730
0.590000000000000413,-4.485663324908242267
0.591000000000000414,-4.466958059872608189
0.592000000000000415,-4.447990820886348118
0.593000000000000416,-4.428766800159658068
0.594000000000000417,-4.409291191247615593
0.595000000000000417,-4.389569187056318711
0.596000000000000418,-4.369605977903206373
0.597000000000000419,-4.349406749631059554
0.598000000000000420,-4.328976681774709512
0.599000000000000421,-4.308320945779955835
0.600000000000000422,-4.287444703273811442
0.601000000000000423,-4.266353104385406603
0.602000000000000424,-4.245051286116796163
0.603000000000000425,-4.223544370762962075
0.604000000000000425,-4.201837464380188791
0.605000000000000426,-4.179935655302152497
0.606000000000000427,-4.157844012702956782
0.607000000000000428,-4.135567585206289642
0.608000000000000429,-4.113111399540103186
0.609000000000000430,-4.090480459235909194
