# AuFCC100-Ablate100_BSAIV7
# h[nm],U(h)[kJ/mol]
0.149999999999999994,164.165379073498115758
0.150999999999999995,157.096684007518405224
0.151999999999999996,152.316670840549761579
0.152999999999999997,148.060531560641095439
0.153999999999999998,143.699260590008918825
0.154999999999999999,139.127730504051072558
0.156000000000000000,134.438902931765227322
0.157000000000000001,129.764640116608916287
0.158000000000000002,125.209232323288915723
0.159000000000000002,120.831173197264732266
0.160000000000000003,116.647354106633571291
0.161000000000000004,112.645411290165299079
0.162000000000000005,108.796939150272550023
0.163000000000000006,105.068342773530005729
0.164000000000000007,101.428340913565477877
0.165000000000000008,97.852262855107341011
0.166000000000000009,94.323767749510452063
0.167000000000000010,90.834741661631070997
0.168000000000000010,87.384072347405023606
0.169000000000000011,83.975869060670476074
0.170000000000000012,80.617542992859654305
0.171000000000000013,77.318023434592404897
0.172000000000000014,74.086268583900476870
0.173000000000000015,70.930141591268466073
0.174000000000000016,67.855660284761569301
0.175000000000000017,64.866589072617401257
0.176000000000000018,61.964319062300113217
0.177000000000000018,59.147972905672858701
0.178000000000000019,56.414670303660876982
0.179000000000000020,53.759895243888273342
0.180000000000000021,51.177914408405783320
0.181000000000000022,48.662205952778919027
0.182000000000000023,46.205867762438330715
0.183000000000000024,43.801983526342176845
0.184000000000000025,41.443933063315668619
0.185000000000000026,39.125640074712592309
0.186000000000000026,36.841755834082235310
0.187000000000000027,34.587781329956555965
0.188000000000000028,32.360133189369101103
0.189000000000000029,30.156160499462622226
0.190000000000000030,27.974120595613747753
0.191000000000000031,25.813122175151583804
0.192000000000000032,23.673043889604890921
0.193000000000000033,21.554436009139891439
0.194000000000000034,19.458411961922298161
0.195000000000000034,17.386535627726640740
0.196000000000000035,15.340709287428239804
0.197000000000000036,13.323066157347000171
0.198000000000000037,11.335870512676216038
0.199000000000000038,9.381427556545895996
0.200000000000000039,7.462004438508165194
0.201000000000000040,5.579763177340696600
0.202000000000000041,3.736705700163388766
0.203000000000000042,1.934630770032189861
0.204000000000000042,0.175102230951334009
0.205000000000000043,-1.540572256117411998
0.206000000000000044,-3.211352990257289264
0.207000000000000045,-4.836471635052224549
0.208000000000000046,-6.415427418835827567
0.209000000000000047,-7.947977306618899895
0.210000000000000048,-9.434121290246194391
0.211000000000000049,-10.874083885698716756
0.212000000000000050,-12.268292848130061046
0.213000000000000050,-13.617356022778398739
0.214000000000000051,-14.922037148925261008
0.215000000000000052,-16.183231329202950377
0.216000000000000053,-17.401940771537660169
0.217000000000000054,-18.579251308808192533
0.218000000000000055,-19.716310104143012438
0.219000000000000056,-20.814304859296616002
0.220000000000000057,-21.874444760849495850
0.221000000000000058,-22.897943324706705681
0.222000000000000058,-23.886003233846075489
0.223000000000000059,-24.839803207471611302
0.224000000000000060,-25.760486891451147784
0.225000000000000061,-26.649153719757396885
0.226000000000000062,-27.506851664064299712
0.227000000000000063,-28.334571763074148265
0.228000000000000064,-29.133244303899516581
0.229000000000000065,-29.903736514225652598
0.230000000000000066,-30.646851615336753838
0.231000000000000066,-31.363329081748833715
0.232000000000000067,-32.053845952500431338
0.233000000000000068,-32.719019041517285018
0.234000000000000069,-33.359407899324807545
0.235000000000000070,-33.975518385227005069
0.236000000000000071,-34.567806717439943043
0.237000000000000072,-35.136683878159956862
0.238000000000000073,-35.682520260795342892
0.239000000000000073,-36.205650457290552424
0.240000000000000074,-36.706378094359465081
0.241000000000000075,-37.184980638291264654
0.242000000000000076,-37.641714098620163043
0.243000000000000077,-38.076817571208721347
0.244000000000000078,-38.490517571067684344
0.245000000000000079,-38.883032114432296567
0.246000000000000080,-39.254574518177136611
0.247000000000000081,-39.605356892533635005
0.248000000000000081,-39.935593310252663457
0.249000000000000082,-40.245502641823506451
0.250000000000000111,-40.535311052123816467
0.251000000000000112,-40.805254158948130794
0.252000000000000113,-41.055578858272426146
0.253000000000000114,-41.286544824884444438
0.254000000000000115,-41.498425700187823395
0.255000000000000115,-41.691509981604085056
0.256000000000000116,-41.866101630098540909
0.257000000000000117,-42.022520413982945797
0.258000000000000118,-42.161102008344883529
0.259000000000000119,-42.282197870263622974
0.260000000000000120,-42.386174910438285224
0.261000000000000121,-42.473414982012876351
0.262000000000000122,-42.544314207280038431
0.263000000000000123,-42.599282162609561908
0.264000000000000123,-42.638740941421168884
0.265000000000000124,-42.663124114328837777
0.266000000000000125,-42.672875604761948409
0.267000000000000126,-42.668448497436727962
0.268000000000000127,-42.650303796042315696
0.269000000000000128,-42.618909145433107710
0.270000000000000129,-42.574737532509217885
0.271000000000000130,-42.518265978833277075
0.272000000000000131,-42.449974236891577561
0.273000000000000131,-42.370343500772676748
0.274000000000000132,-42.279855140919650580
0.275000000000000133,-42.178989471522392307
0.276000000000000134,-42.068224558060919094
0.277000000000000135,-41.948035071497074000
0.278000000000000136,-41.818891194646155895
0.279000000000000137,-41.681257585342869731
0.280000000000000138,-41.535592400155465498
0.281000000000000139,-41.382346381594238949
0.282000000000000139,-41.221962011012493576
0.283000000000000140,-41.054872728705113616
0.284000000000000141,-40.881502222075958741
0.285000000000000142,-40.702263782166291151
0.286000000000000143,-40.517559728313798928
0.287000000000000144,-40.327780900241592121
0.288000000000000145,-40.133306216459317284
0.289000000000000146,-39.934502297489594014
0.290000000000000147,-39.731723152112159880
0.291000000000000147,-39.525309924540962925
0.292000000000000148,-39.315590700215615527
0.293000000000000149,-39.102880367693003905
0.294000000000000150,-38.887480533965991469
0.295000000000000151,-38.669679490412789846
0.296000000000000152,-38.449752226485969686
0.297000000000000153,-38.227960488186873533
0.298000000000000154,-38.004552878331857357
0.299000000000000155,-37.779764995602945987
0.300000000000000155,-37.553819609381775990
0.301000000000000156,-37.326926867391520659
0.302000000000000157,-37.099284533214131443
0.303000000000000158,-36.871078250807883592
0.304000000000000159,-36.642481833220450937
0.305000000000000160,-36.413657572774226878
0.306000000000000161,-36.184756570091707317
0.307000000000000162,-35.955919079427431484
0.308000000000000163,-35.727274867878080045
0.309000000000000163,-35.498943586152932994
0.310000000000000164,-35.271035148700399020
0.311000000000000165,-35.043650121103752326
0.312000000000000166,-34.816880112777269574
0.313000000000000167,-34.590808173113536839
0.314000000000000168,-34.365509189351826080
0.315000000000000169,-34.141050284555866767
0.316000000000000170,-33.917491214206876293
0.317000000000000171,-33.694884760032273618
0.318000000000000171,-33.473277119803341861
0.319000000000000172,-33.252708291945239694
0.320000000000000173,-33.033212453908632256
0.321000000000000174,-32.814818333355461277
0.322000000000000175,-32.597549571310636907
0.323000000000000176,-32.381425076526113571
0.324000000000000177,-32.166459370395124040
0.325000000000000178,-31.952662921840829569
0.326000000000000179,-31.740042471685921299
0.327000000000000179,-31.528601346087821611
0.328000000000000180,-31.318339758697170794
0.329000000000000181,-31.109255101267404342
0.330000000000000182,-30.901342222506457347
0.331000000000000183,-30.694593695023947078
0.332000000000000184,-30.489000070281917942
0.333000000000000185,-30.284550121510456222
0.334000000000000186,-30.081231074597134523
0.335000000000000187,-29.879028827003775604
0.336000000000000187,-29.677928154804771310
0.337000000000000188,-29.477912907977504631
0.338000000000000189,-29.278966194109802501
0.339000000000000190,-29.081070550718919776
0.340000000000000191,-28.884208106403328031
0.341000000000000192,-28.688360731073817789
0.342000000000000193,-28.493510175529564776
0.343000000000000194,-28.299638200665288679
0.344000000000000195,-28.106726696609747762
0.345000000000000195,-27.914757792110577839
0.346000000000000196,-27.723713954490627032
0.347000000000000197,-27.533578080510732633
0.348000000000000198,-27.344333578480643610
0.349000000000000199,-27.155964441964805189
0.350000000000000200,-26.968455315434027852
0.351000000000000201,-26.781791552215100438
0.352000000000000202,-26.595959265091529744
0.353000000000000203,-26.410945369907700808
0.354000000000000203,-26.226737622526531624
0.355000000000000204,-26.043324649487669120
0.356000000000000205,-25.860695972709180523
0.357000000000000206,-25.678842028570784350
0.358000000000000207,-25.497754181710313048
0.359000000000000208,-25.317424733859279939
0.360000000000000209,-25.137846928035695981
0.361000000000000210,-24.959014948404650625
0.362000000000000210,-24.780923916109180993
0.363000000000000211,-24.603569881364968808
0.364000000000000212,-24.426949812103842419
0.365000000000000213,-24.251061579441319793
0.366000000000000214,-24.075903940234503864
0.367000000000000215,-23.901476516986541299
0.368000000000000216,-23.727779775344295388
0.369000000000000217,-23.554814999426035627
0.370000000000000218,-23.382584265206098451
0.371000000000000218,-23.211090412173298603
0.372000000000000219,-23.040337013470484351
0.373000000000000220,-22.870328344712497426
0.374000000000000221,-22.701069351670334129
0.375000000000000222,-22.532565616999413294
0.376000000000000223,-22.364823326180978569
0.377000000000000224,-22.197849232835867639
0.378000000000000225,-22.031650623561109370
0.379000000000000226,-21.866235282430917408
0.380000000000000226,-21.701611455294994357
0.381000000000000227,-21.537787813998292563
0.382000000000000228,-21.374773420638938148
0.383000000000000229,-21.212577691972260396
0.384000000000000230,-21.051210364061475389
0.385000000000000231,-20.890681457268517107
0.386000000000000232,-20.731001241670593771
0.387000000000000233,-20.572180202981627417
0.388000000000000234,-20.414229009050881558
0.389000000000000234,-20.257158477004928443
0.390000000000000235,-20.100979541092382163
0.391000000000000236,-19.945703221285761231
0.392000000000000237,-19.791340592688431599
0.393000000000000238,-19.637902755789976794
0.394000000000000239,-19.485400807607472728
0.395000000000000240,-19.333845813746016518
0.396000000000000241,-19.183248781406778249
0.397000000000000242,-19.033620633366517438
0.398000000000000242,-18.884972182948864372
0.399000000000000243,-18.737314110002927237
0.400000000000000244,-18.590656937901847812
0.401000000000000245,-18.445011011570322523
0.402000000000000246,-18.300386476546432135
0.403000000000000247,-18.156793259080689751
0.404000000000000248,-18.014241047271887908
0.405000000000000249,-17.872739273237169044
0.406000000000000250,-17.732297096310677631
0.407000000000000250,-17.592923387263525115
0.408000000000000251,-17.454626713535116522
0.409000000000000252,-17.317415325464441622
0.410000000000000253,-17.181297143507698877
0.411000000000000254,-17.046279746427419610
0.412000000000000255,-16.912370360436362660
0.413000000000000256,-16.779575849278611344
0.414000000000000257,-16.647902705228311504
0.415000000000000258,-16.517357040986464511
0.416000000000000258,-16.387944582454210263
0.417000000000000259,-16.259670662360782956
0.418000000000000260,-16.132540214723487537
0.419000000000000261,-16.006557770116124573
0.420000000000000262,-15.881727451722216671
0.421000000000000263,-15.758052972148542281
0.422000000000000264,-15.635537630974260637
0.423000000000000265,-15.514184313010565219
0.424000000000000266,-15.393995487245925702
0.425000000000000266,-15.274973206451258889
0.426000000000000267,-15.157119107419777748
0.427000000000000268,-15.040434411816118399
0.428000000000000269,-14.924919927609289871
0.429000000000000270,-14.810576051064320069
0.430000000000000271,-14.697402769267341682
0.431000000000000272,-14.585399663159359207
0.432000000000000273,-14.474565911053961287
0.433000000000000274,-14.364900292614683153
0.434000000000000274,-14.256401193267882022
0.435000000000000275,-14.149066609027503461
0.436000000000000276,-14.042894151708486206
0.437000000000000277,-13.937881054505700362
0.438000000000000278,-13.834024177916186105
0.439000000000000279,-13.731320015982609206
0.440000000000000280,-13.629764702836311585
0.441000000000000281,-13.529354019519010066
0.442000000000000282,-13.430083401062674398
0.443000000000000282,-13.331947943807335832
0.444000000000000283,-13.234942412937627410
0.445000000000000284,-13.139061250218912136
0.446000000000000285,-13.044298581914580026
0.447000000000000286,-12.950648226866949386
0.448000000000000287,-12.858103704723987448
0.449000000000000288,-12.766658244295603808
0.450000000000000289,-12.676304792023021406
0.451000000000000290,-12.587036020545664172
0.452000000000000290,-12.498844337350570655
0.453000000000000291,-12.411721893489719548
0.454000000000000292,-12.325660592351372458
0.455000000000000293,-12.240652098471921150
0.456000000000000294,-12.156687846375486828
0.457000000000000295,-12.073759049428772983
0.458000000000000296,-11.991856708699504708
0.459000000000000297,-11.910971621807021847
0.460000000000000298,-11.831094391754326978
0.461000000000000298,-11.752215435731233839
0.462000000000000299,-11.674324993878970602
0.463000000000000300,-11.597413138006697153
0.464000000000000301,-11.521469780251347714
0.465000000000000302,-11.446484681672309591
0.466000000000000303,-11.372447460773093653
0.467000000000000304,-11.299347601942439923
0.468000000000000305,-11.227174463807980231
0.469000000000000306,-11.155917287495725532
0.470000000000000306,-11.085565204789340044
0.471000000000000307,-11.016107246183173274
0.472000000000000308,-10.947532348823960646
0.473000000000000309,-10.879829364335931174
0.474000000000000310,-10.812987066524769375
0.475000000000000311,-10.746994158956123755
0.476000000000000312,-10.681839282404819613
0.477000000000000313,-10.617511022170898372
0.478000000000000314,-10.553997915259468954
0.479000000000000314,-10.491288457421282132
0.480000000000000315,-10.429371110051246063
0.481000000000000316,-10.368234306942706979
0.482000000000000317,-10.307866460895208860
0.483000000000000318,-10.248255970173945073
0.484000000000000319,-10.189391224819296156
0.485000000000000320,-10.131260612805224497
0.486000000000000321,-10.073852526045261158
0.487000000000000322,-10.017155366245319215
0.488000000000000322,-9.961157550602614208
0.489000000000000323,-9.905847517350341747
0.490000000000000324,-9.851213731147755226
0.491000000000000325,-9.797244688315661421
0.492000000000000326,-9.743928921917369479
0.493000000000000327,-9.691255006685514317
0.494000000000000328,-9.639211563795058169
0.495000000000000329,-9.587787265483255439
0.496000000000000330,-9.536970839517147525
0.497000000000000330,-9.486751073509646304
0.498000000000000331,-9.437116819085138886
0.499000000000000332,-9.388056995895802004
0.500000000000000333,-9.339560595489903250
0.501000000000000334,-9.291616685033423195
0.502000000000000335,-9.244214410886485211
0.503000000000000336,-9.197343002036284076
0.504000000000000337,-9.150991773387966433
0.505000000000000338,-9.105150128915388663
0.506000000000000338,-9.059807564673526770
0.507000000000000339,-9.014953671674385660
0.508000000000000340,-8.970578138628422238
0.509000000000000341,-8.926670754553544640
0.510000000000000342,-8.883221411253634514
0.511000000000000343,-8.840220105668889161
0.512000000000000344,-8.797656942099994382
0.513000000000000345,-8.755522134308462157
0.514000000000000346,-8.713806007495390915
0.515000000000000346,-8.672499000160801330
0.516000000000000347,-8.631591665846004346
0.517000000000000348,-8.591074674761298269
0.518000000000000349,-8.550938815301281082
0.519000000000000350,-8.511174995450254244
0.520000000000000351,-8.471774244080052085
0.521000000000000352,-8.432727712142707333
0.522000000000000353,-8.394026673760357937
0.523000000000000353,-8.355662527214759550
0.524000000000000354,-8.317626795838959808
0.525000000000000355,-8.279911128813333576
0.526000000000000356,-8.242507301868563729
0.527000000000000357,-8.205407217897883854
0.528000000000000358,-8.168602907480982722
0.529000000000000359,-8.132086529321949087
0.530000000000000360,-8.095850370603679735
0.531000000000000361,-8.059886847260974818
0.532000000000000361,-8.024188504174841086
0.533000000000000362,-7.988748015290136451
0.534000000000000363,-7.953558183658986813
0.535000000000000364,-7.918611941412178723
0.536000000000000365,-7.883902349660838027
0.537000000000000366,-7.849422598330559886
0.538000000000000367,-7.815166005930239912
0.539000000000000368,-7.781126019257820658
0.540000000000000369,-7.747296213044981172
0.541000000000000369,-7.713670289543043346
0.542000000000000370,-7.680242078052100574
0.543000000000000371,-7.647005534395413306
0.544000000000000372,-7.613954740341194238
0.545000000000000373,-7.581083902973718480
0.546000000000000374,-7.548387354015730466
0.547000000000000375,-7.515859549104082937
0.548000000000000376,-7.483495067020585978
0.549000000000000377,-7.451288608879854003
0.550000000000000377,-7.419234997275959920
0.551000000000000378,-7.387329175389828251
0.552000000000000379,-7.355566206059032552
0.553000000000000380,-7.323941270811751281
0.554000000000000381,-7.292449668866579415
0.555000000000000382,-7.261086816099947328
0.556000000000000383,-7.229848243982570644
0.557000000000000384,-7.198729598486790060
0.558000000000000385,-7.167726638966128050
0.559000000000000385,-7.136835237008773092
0.560000000000000386,-7.106051375266302372
0.561000000000000387,-7.075371146259291422
0.562000000000000388,-7.044790751161062126
0.563000000000000389,-7.014306498561073688
0.564000000000000390,-6.983914803209225752
0.565000000000000391,-6.953612184742473445
0.566000000000000392,-6.923395266394962277
0.567000000000000393,-6.893260773693002719
0.568000000000000393,-6.863205533136046199
0.569000000000000394,-6.833226470864866897
0.570000000000000395,-6.803320611318168787
0.571000000000000396,-6.773485075878585171
0.572000000000000397,-6.743717081509350564
0.573000000000000398,-6.714013939382533991
0.574000000000000399,-6.684373053499998107
0.575000000000000400,-6.654791919307965209
0.576000000000000401,-6.625268122306223972
0.577000000000000401,-6.595799336652929057
0.578000000000000402,-6.566383323765832003
0.579000000000000403,-6.537017930920862696
0.580000000000000404,-6.507701089848943354
0.581000000000000405,-6.478430815331774895
0.582000000000000406,-6.449205203797478525
0.583000000000000407,-6.420022431916775574
0.584000000000000408,-6.390880755200539554
0.585000000000000409,-6.361778506599328864
0.586000000000000409,-6.332714095105660412
0.587000000000000410,-6.303686004359710715
0.588000000000000411,-6.274692791258969393
0.589000000000000412,-6.245733084572600902
0.590000000000000413,-6.216805583560972792
0.591000000000000414,-6.187909056601023750
0.592000000000000415,-6.159042339817970557
0.593000000000000416,-6.130204335723847819
0.594000000000000417,-6.101394011863409794
0.595000000000000417,-6.072610399467944120
0.596000000000000418,-6.043852592117248790
0.597000000000000419,-6.015119744410503344
0.598000000000000420,-5.986411070646143529
0.599000000000000421,-5.957725843511399333
0.600000000000000422,-5.929063392781681152
0.601000000000000423,-5.900423104030300792
0.602000000000000424,-5.871804417348800875
0.603000000000000425,-5.843206826078242599
0.604000000000000425,-5.814629875551743154
0.605000000000000426,-5.786073161848565682
0.606000000000000427,-5.757536330560077964
