# AuFCC100-Ablate100_TYR-AC
# h[nm],U(h)[kJ/mol]
0.149999999999999994,127.208316374380430602
0.150999999999999995,124.888689327381797511
0.151999999999999996,120.345326961686311051
0.152999999999999997,115.389205779552682429
0.153999999999999998,110.712825784703568388
0.154999999999999999,106.465432025842687835
0.156000000000000000,102.571700374606663786
0.157000000000000001,98.896203071480698554
0.158000000000000002,95.318590002571497166
0.159000000000000002,91.759788671076293554
0.160000000000000003,88.183521542945044303
0.161000000000000004,84.587221290821346997
0.162000000000000005,80.990042912204614822
0.163000000000000006,77.421799796531814764
0.164000000000000007,73.914393331264506060
0.165000000000000008,70.496064934813617242
0.166000000000000009,67.188181556658690852
0.167000000000000010,64.004015065555435626
0.168000000000000010,60.948929916102443372
0.169000000000000011,58.021451197482647899
0.170000000000000012,55.214786262601343481
0.171000000000000013,52.518483294700743613
0.172000000000000014,49.920011449482657895
0.173000000000000015,47.406131646407786207
0.174000000000000016,44.963992514921187649
0.175000000000000017,42.581933423934273719
0.176000000000000018,40.250008433462781454
0.177000000000000018,37.960264421901875664
0.178000000000000019,35.706816540182543918
0.179000000000000020,33.485767183414949955
0.180000000000000021,31.295013071661049509
0.181000000000000022,29.133980555447351435
0.182000000000000023,27.003323243371529117
0.183000000000000024,24.904609454413822789
0.184000000000000025,22.840020488503611773
0.185000000000000026,20.812074708191364181
0.186000000000000026,18.823387172784414645
0.187000000000000027,16.876470172146753157
0.188000000000000028,14.973576486027315724
0.189000000000000029,13.116584500765878119
0.190000000000000030,11.306922366153923321
0.191000000000000031,9.545527069680586507
0.192000000000000032,7.832833535567287342
0.193000000000000033,6.168788516293792767
0.194000000000000034,4.552884036837111736
0.195000000000000034,2.984205389468651326
0.196000000000000035,1.461489084829613372
0.197000000000000036,-0.016813319229542857
0.198000000000000037,-1.452469016280895531
0.199000000000000038,-2.847398291263542269
0.200000000000000039,-4.203611735767529112
0.201000000000000040,-5.523152125803834522
0.202000000000000041,-6.808042249647873412
0.203000000000000042,-8.060239529814262838
0.204000000000000042,-9.281597899936913976
0.205000000000000043,-10.473837075039323707
0.206000000000000044,-11.638519090581784354
0.207000000000000045,-12.777031778134873008
0.208000000000000046,-13.890578688737210911
0.209000000000000047,-14.980174863426835685
0.210000000000000048,-16.046647778256591721
0.211000000000000049,-17.090642752459221043
0.212000000000000050,-18.112632097666992337
0.213000000000000050,-19.112927297900050405
0.214000000000000051,-20.091693539567252458
0.215000000000000052,-21.048965953614786173
0.216000000000000053,-21.984666984389559019
0.217000000000000054,-22.898624358463340656
0.218000000000000055,-23.790589188805874699
0.219000000000000056,-24.660253812997062539
0.220000000000000057,-25.507269026775020393
0.221000000000000058,-26.331260434655018088
0.222000000000000058,-27.131843696528498810
0.223000000000000059,-27.908638502243945823
0.224000000000000060,-28.661281154653504899
0.225000000000000061,-29.389435685156815481
0.226000000000000062,-30.092803464252245504
0.227000000000000063,-30.771131303029005011
0.228000000000000064,-31.424218070029070304
0.229000000000000065,-32.051919871699396936
0.230000000000000066,-32.654153864021637332
0.231000000000000066,-33.230900778187404399
0.232000000000000067,-33.782206254736173889
0.233000000000000068,-34.308181088770581368
0.234000000000000069,-34.809000494084592958
0.235000000000000070,-35.284902496661189275
0.236000000000000071,-35.736185568372562216
0.237000000000000072,-36.163205610196257567
0.238000000000000073,-36.566372391158580513
0.239000000000000073,-36.946145544831807683
0.240000000000000074,-37.303030219814033330
0.241000000000000075,-37.637572474450685434
0.242000000000000076,-37.950354499333037950
0.243000000000000077,-38.241989744023662467
0.244000000000000078,-38.513118017175166585
0.245000000000000079,-38.764400621870578334
0.246000000000000080,-38.996515580742254770
0.247000000000000081,-39.210152998321419204
0.248000000000000081,-39.406010601212507538
0.249000000000000082,-39.584789490142654245
0.250000000000000111,-39.747190131755630205
0.251000000000000112,-39.893908612237261480
0.252000000000000113,-40.025633169503855413
0.253000000000000114,-40.143041015765170698
0.254000000000000115,-40.246795457804381613
0.255000000000000115,-40.337543318287472971
0.256000000000000116,-40.415912657825707299
0.257000000000000117,-40.482510794349160221
0.258000000000000118,-40.537922613591334198
0.259000000000000119,-40.582709162117922119
0.260000000000000120,-40.617406512331754698
0.261000000000000121,-40.642524887228034913
0.262000000000000122,-40.658548031337183204
0.263000000000000123,-40.665932813247039235
0.264000000000000123,-40.665109044321702925
0.265000000000000124,-40.656479497701624837
0.266000000000000125,-40.640420111356988286
0.267000000000000126,-40.617280358848553590
0.268000000000000127,-40.587383771504860874
0.269000000000000128,-40.551028595930389997
0.270000000000000129,-40.508488571094680708
0.271000000000000130,-40.460013809699610476
0.272000000000000131,-40.405831769061911984
0.273000000000000131,-40.346148297364628377
0.274000000000000132,-40.281148741809438718
0.275000000000000133,-40.210999105927683672
0.276000000000000134,-40.135847244069232431
0.277000000000000135,-40.055824081872671627
0.278000000000000136,-39.971044852319870699
0.279000000000000137,-39.881610337781076225
0.280000000000000138,-39.787608109257810440
0.281000000000000139,-39.689113754822145097
0.282000000000000139,-39.586192090026116830
0.283000000000000140,-39.478898343810627125
0.284000000000000141,-39.367279314173266869
0.285000000000000142,-39.251374488557004838
0.286000000000000143,-39.131217124593177914
0.287000000000000144,-39.006835287470593698
0.288000000000000145,-38.878252840807142832
0.289000000000000146,-38.745490388468120102
0.290000000000000147,-38.608566165308054963
0.291000000000000147,-38.467496875308611948
0.292000000000000148,-38.322298476044423410
0.293000000000000149,-38.172986908831958885
0.294000000000000150,-38.019578774304797264
0.295000000000000151,-37.862091953511956888
0.296000000000000152,-37.700546174955931633
0.297000000000000153,-37.534963528275135047
0.298000000000000154,-37.365368925531633693
0.299000000000000155,-37.191790511292651900
0.300000000000000155,-37.014260022892941038
0.301000000000000156,-36.832813102437640396
0.302000000000000157,-36.647489562252367534
0.303000000000000158,-36.458333605610711459
0.304000000000000159,-36.265394004671733796
0.305000000000000160,-36.068724237639827379
0.306000000000000161,-35.868382587223223368
0.307000000000000162,-35.664432202510781167
0.308000000000000163,-35.456941126416076315
0.309000000000000163,-35.245982290851898711
0.310000000000000164,-35.031633481798756691
0.311000000000000165,-34.813977276419826978
0.312000000000000166,-34.593100954353161569
0.313000000000000167,-34.369096385279590322
0.314000000000000168,-34.142059894825614208
0.315000000000000169,-33.912092110811855150
0.316000000000000170,-33.679297791804678752
0.317000000000000171,-33.443785639868323756
0.318000000000000171,-33.205668099350660327
0.319000000000000172,-32.965061143467650595
0.320000000000000173,-32.722084050380168208
0.321000000000000174,-32.476859170382894604
0.322000000000000175,-32.229511685749308469
0.323000000000000176,-31.980169364700106627
0.324000000000000177,-31.728962310884192277
0.325000000000000178,-31.476022709683672218
0.326000000000000179,-31.221484572576521543
0.327000000000000179,-30.965483480712975961
0.328000000000000180,-30.708156328785300104
0.329000000000000181,-30.449641070195827552
0.330000000000000182,-30.190076464453305505
0.331000000000000183,-29.929601827656721724
0.332000000000000184,-29.668356786854367613
0.333000000000000185,-29.406481038998407485
0.334000000000000186,-29.144114115149172051
0.335000000000000187,-28.881395150519050929
0.336000000000000187,-28.618462660885700899
0.337000000000000188,-28.355454325844171137
0.338000000000000189,-28.092506779312554244
0.339000000000000190,-27.829755407651163068
0.340000000000000191,-27.567334155704447340
0.341000000000000192,-27.305375341026781655
0.342000000000000193,-27.044009476506374767
0.343000000000000194,-26.783365101559553523
0.344000000000000195,-26.523568622025454289
0.345000000000000195,-26.264744158854142597
0.346000000000000196,-26.007013405644567428
0.347000000000000197,-25.750495495055435669
0.348000000000000198,-25.495306874081524739
0.349000000000000199,-25.241561188158350149
0.350000000000000200,-24.989369174032322718
0.351000000000000201,-24.738838561308174491
0.352000000000000202,-24.490073982563963284
0.353000000000000203,-24.243176891902891157
0.354000000000000203,-23.998245491792687289
0.355000000000000204,-23.755374668026874474
0.356000000000000205,-23.514655932627128720
0.357000000000000206,-23.276177374492426964
0.358000000000000207,-23.040023617589234561
0.359000000000000208,-22.806275786466422062
0.360000000000000209,-22.575011478870024462
0.361000000000000210,-22.346304745225371136
0.362000000000000210,-22.120226074747527889
0.363000000000000211,-21.896842387936541030
0.364000000000000212,-21.676217035209496942
0.365000000000000213,-21.458409801418628859
0.366000000000000214,-21.243476916002968835
0.367000000000000215,-21.031471068519490331
0.368000000000000216,-20.822441429300162952
0.369000000000000217,-20.616433674981145430
0.370000000000000218,-20.413490018652233005
0.371000000000000218,-20.213649244376195924
0.372000000000000219,-20.016946745830374255
0.373000000000000220,-19.823414568825818094
0.374000000000000221,-19.633081457463127606
0.375000000000000222,-19.445972903687675171
0.376000000000000223,-19.262111200011737822
0.377000000000000224,-19.081515495175690234
0.378000000000000225,-18.904201852525481797
0.379000000000000226,-18.730183310888943282
0.380000000000000226,-18.559469947739348328
0.381000000000000227,-18.392068944440076450
0.382000000000000228,-18.227984653370590706
0.383000000000000229,-18.067218666739908173
0.384000000000000230,-17.909769886899958635
0.385000000000000231,-17.755634597977802969
0.386000000000000232,-17.604806538651860848
0.387000000000000233,-17.457276975903830873
0.388000000000000234,-17.313034779584572931
0.389000000000000234,-17.172066497638645899
0.390000000000000235,-17.034356431838450163
0.391000000000000236,-16.899886713885901912
0.392000000000000237,-16.768637381745186588
0.393000000000000238,-16.640586456077254951
0.394000000000000239,-16.515710016652313641
0.395000000000000240,-16.393982278623219884
0.396000000000000241,-16.275375668548299757
0.397000000000000242,-16.159860900058610866
0.398000000000000242,-16.047407049069924767
0.399000000000000243,-15.937981628445873739
0.400000000000000244,-15.831550662024037379
0.401000000000000245,-15.728078757922412834
0.402000000000000246,-15.627529181048851470
0.403000000000000247,-15.529863924741206915
0.404000000000000248,-15.435043781471247115
0.405000000000000249,-15.343028412549921669
0.406000000000000250,-15.253776416776513969
0.407000000000000250,-15.167245397978760479
0.408000000000000251,-15.083392031395357336
0.409000000000000252,-15.002172128856738453
0.410000000000000253,-14.923540702723840923
0.411000000000000254,-14.847452028548886460
0.412000000000000255,-14.773859706425707117
0.413000000000000256,-14.702716721001092282
0.414000000000000257,-14.633975500121845670
0.415000000000000258,-14.567587972095955351
0.416000000000000258,-14.503505621549171778
0.417000000000000259,-14.441679543861585699
0.418000000000000260,-14.382060498171714613
0.419000000000000261,-14.324598958938221216
0.420000000000000262,-14.269245166052314744
0.421000000000000263,-14.215949173496309044
0.422000000000000264,-14.164660896545976598
0.423000000000000265,-14.115330157517050225
0.424000000000000266,-14.067906730058117759
0.425000000000000266,-14.022340381994046865
0.426000000000000267,-13.978580916726297545
0.427000000000000268,-13.936578213198135501
0.428000000000000269,-13.896282264434304921
0.429000000000000270,-13.857643214666575560
0.430000000000000271,-13.820611395057820658
0.431000000000000272,-13.785137358038809907
0.432000000000000273,-13.751171910273015442
0.433000000000000274,-13.718666144266119744
0.434000000000000274,-13.687571468637894867
0.435000000000000275,-13.657839637074994599
0.436000000000000276,-13.629422775984476601
0.437000000000000277,-13.602273410868352954
0.438000000000000278,-13.576344491440400120
0.439000000000000279,-13.551589415507271141
0.440000000000000280,-13.527962051636269081
0.441000000000000281,-13.505416760632943607
0.442000000000000282,-13.483908415852175366
0.443000000000000282,-13.463392422366599277
0.444000000000000283,-13.443824735016860927
0.445000000000000284,-13.425161875368360143
0.446000000000000285,-13.407360947599389789
0.447000000000000286,-13.390379653345997113
0.448000000000000287,-13.374176305528612474
0.449000000000000288,-13.358709841186215073
0.450000000000000289,-13.343939833343247514
0.451000000000000290,-13.329826501935096772
0.452000000000000290,-13.316330723817452863
0.453000000000000291,-13.303414041885233132
0.454000000000000292,-13.291038673326379893
0.455000000000000293,-13.279167517035920909
0.456000000000000294,-13.267764160215396174
0.457000000000000295,-13.256792884182818426
0.458000000000000296,-13.246218669417782365
0.459000000000000297,-13.236007199866552497
0.460000000000000298,-13.226124866531307589
0.461000000000000298,-13.216538770367813882
0.462000000000000299,-13.207216724515266293
0.463000000000000300,-13.198127255881829001
0.464000000000000301,-13.189239606109225633
0.465000000000000302,-13.180523731939032928
0.466000000000000303,-13.171950305003580439
0.467000000000000304,-13.163490711063275285
0.468000000000000305,-13.155117048712487104
0.469000000000000306,-13.146802127575346830
0.470000000000000306,-13.138519466012445136
0.471000000000000307,-13.130243288359306320
0.472000000000000308,-13.121948521716769065
0.473000000000000309,-13.113610792313263431
0.474000000000000310,-13.105206421458333921
0.475000000000000311,-13.096712421106639468
0.476000000000000312,-13.088106489050904457
0.477000000000000313,-13.079367003762197186
0.478000000000000314,-13.070473018895214068
0.479000000000000314,-13.061404257476041835
0.480000000000000315,-13.052141105789292652
0.481000000000000316,-13.042664606981267283
0.482000000000000317,-13.032956454395096202
0.483000000000000318,-13.022998984653673560
0.484000000000000319,-13.012775170505690880
0.485000000000000320,-13.002268613449469825
0.486000000000000321,-12.991463536149311153
0.487000000000000322,-12.980344774658115981
0.488000000000000322,-12.968897770460088736
0.489000000000000323,-12.957108562346764558
0.490000000000000324,-12.944963778139083388
0.491000000000000325,-12.932450626268058969
0.492000000000000326,-12.919556887226008257
0.493000000000000327,-12.906270904900106089
0.494000000000000328,-12.892581577799427706
0.495000000000000329,-12.878478350186551182
0.496000000000000330,-12.863951203124120326
0.497000000000000330,-12.848990645446647818
0.498000000000000331,-12.833587704667346330
0.499000000000000332,-12.817733917829475132
0.500000000000000333,-12.801421322311380635
0.501000000000000334,-12.784642446593950993
0.502000000000000335,-12.767390300999011288
0.503000000000000336,-12.749658368406786124
0.504000000000000337,-12.731440594960293566
0.505000000000000338,-12.712731380764102695
0.506000000000000338,-12.693525570584725415
0.507000000000000339,-12.673818444559575624
0.508000000000000340,-12.653605708921023876
0.509000000000000341,-12.632883486742041868
0.510000000000000342,-12.611648308709280997
0.511000000000000343,-12.589897103929594380
0.512000000000000344,-12.567627190775350954
0.513000000000000345,-12.544836267773879612
0.514000000000000346,-12.521522404546141516
0.515000000000000346,-12.497684032799174503
0.516000000000000347,-12.473319937377052469
0.517000000000000348,-12.448429247374614093
0.518000000000000349,-12.423011427317865341
0.519000000000000350,-12.397066268415194656
0.520000000000000351,-12.370593879882742172
0.521000000000000352,-12.343594680347617754
0.522000000000000353,-12.316069389331975259
0.523000000000000353,-12.288019018821106698
0.524000000000000354,-12.259444864918418006
0.525000000000000355,-12.230348499589833722
0.526000000000000356,-12.200731762500208077
0.527000000000000357,-12.170596752944041086
0.528000000000000358,-12.139945821872643705
0.529000000000000359,-12.108781564019675869
0.530000000000000360,-12.077106810126965186
0.531000000000000361,-12.044924619272277866
0.532000000000000361,-12.012238271300535786
0.533000000000000362,-11.979051259359824400
0.534000000000000363,-11.945367282543639220
0.535000000000000364,-11.911190238640241290
0.536000000000000365,-11.876524216990341998
0.537000000000000366,-11.841373491453852651
0.538000000000000367,-11.805742513486489287
0.539000000000000368,-11.769635905327008985
0.540000000000000369,-11.733058453295400980
0.541000000000000369,-11.696015101202636544
0.542000000000000370,-11.658510943872279597
0.543000000000000371,-11.620551220774164136
0.544000000000000372,-11.582141309770310755
0.545000000000000373,-11.543286720973181758
0.546000000000000374,-11.503993090716187808
0.547000000000000375,-11.464266175636371514
0.548000000000000376,-11.424111846869156039
0.549000000000000377,-11.383536084354805240
0.550000000000000377,-11.342544971256341313
0.551000000000000378,-11.301144688488463430
0.552000000000000379,-11.259341509357167155
0.553000000000000380,-11.217141794309350544
0.554000000000000381,-11.174551985791968178
0.555000000000000382,-11.131578603220154022
0.556000000000000383,-11.088228238053419616
0.557000000000000384,-11.044507548979488831
0.558000000000000385,-11.000423257204767324
0.559000000000000385,-10.955982141850777012
0.560000000000000386,-10.911191035455576781
0.561000000000000387,-10.866056819579451798
0.562000000000000388,-10.820586420513697234
0.563000000000000389,-10.774786805091789432
0.564000000000000390,-10.728664976601729464
0.565000000000000391,-10.682227970798662042
0.566000000000000392,-10.635482852016695077
0.567000000000000393,-10.588436709378790113
0.568000000000000393,-10.541096653103652514
0.569000000000000394,-10.493469810908457873
0.570000000000000395,-10.445563324506419889
0.571000000000000396,-10.397384346197702243
0.572000000000000397,-10.348940035552908867
0.573000000000000398,-10.300237556187596510
0.574000000000000399,-10.251284072626823729
0.575000000000000400,-10.202086747258366728
0.576000000000000401,-10.152652737373456304
0.577000000000000401,-10.102989192293804876
0.578000000000000402,-10.053103250583495409
0.579000000000000403,-10.003002037344744579
0.580000000000000404,-9.952692661596023171
0.581000000000000405,-9.902182213731391514
0.582000000000000406,-9.851477763059779846
0.583000000000000407,-9.800586355422796103
0.584000000000000408,-9.749515010890011268
0.585000000000000409,-9.698270721530224847
0.586000000000000409,-9.646860449257520287
0.587000000000000410,-9.595291123750875784
0.588000000000000411,-9.543569640445927149
0.589000000000000412,-9.491702858597783177
0.590000000000000413,-9.439697599413403140
0.591000000000000414,-9.387560644252459952
0.592000000000000415,-9.335298732895388696
0.593000000000000416,-9.282918561877215424
0.594000000000000417,-9.230426782886102188
0.595000000000000417,-9.177830001225368406
0.596000000000000418,-9.125134774337452015
0.597000000000000419,-9.072347610389099870
0.598000000000000420,-9.019474966916023462
0.599000000000000421,-8.966523249526209938
0.600000000000000422,-8.913498810660501093
0.601000000000000423,-8.860407948409271484
0.602000000000000424,-8.807256905384061696
0.603000000000000425,-8.754051867642981932
0.604000000000000425,-8.700798963668706421
