# AuFCC100-Ablate100_GUAIACYL-AC
# h[nm],U(h)[kJ/mol]
0.149999999999999994,105.088010417625312698
0.150999999999999995,100.275794397043881645
0.151999999999999996,96.455259118502837623
0.152999999999999997,92.879808553653816716
0.153999999999999998,89.288582163577643769
0.154999999999999999,85.642806399844346288
0.156000000000000000,81.986105182113689693
0.157000000000000001,78.376748526411589069
0.158000000000000002,74.859767396391859506
0.159000000000000002,71.459689902221640523
0.160000000000000003,68.182761647701923380
0.161000000000000004,65.022528808565340341
0.162000000000000005,61.965680272992265998
0.163000000000000006,58.996793347801009588
0.164000000000000007,56.101585971644325923
0.165000000000000008,53.268759012552990839
0.166000000000000009,50.490714576113752798
0.167000000000000010,47.763485334693854156
0.168000000000000010,45.086181978787031710
0.169000000000000011,42.460205840125624377
0.170000000000000012,39.888406530719521470
0.171000000000000013,37.374302824734868977
0.172000000000000014,34.921434428226362456
0.173000000000000015,32.532874047642899029
0.174000000000000016,30.210902431528278811
0.175000000000000017,27.956832000794072712
0.176000000000000018,25.770955201407787172
0.177000000000000018,23.652589802121902096
0.178000000000000019,21.600193281787973376
0.179000000000000020,19.611520800443841495
0.180000000000000021,17.683804949407189611
0.181000000000000022,15.813939745501121692
0.182000000000000023,13.998655635957609533
0.183000000000000024,12.234676270653910279
0.184000000000000025,10.518851281834610489
0.185000000000000026,8.848262200137032352
0.186000000000000026,7.220300915320469137
0.187000000000000027,5.632721794310290520
0.188000000000000028,4.083669759990833370
0.189000000000000029,2.571687387549586923
0.190000000000000030,1.095704470954328658
0.191000000000000031,-0.344986372481043080
0.192000000000000032,-1.750764586070474138
0.193000000000000033,-3.121723815907348154
0.194000000000000034,-4.457718420473080201
0.195000000000000034,-5.758411851174647822
0.196000000000000035,-7.023324822995675731
0.197000000000000036,-8.251881606774500000
0.198000000000000037,-9.443453165659807524
0.199000000000000038,-10.597396215993558855
0.200000000000000039,-11.713087609941933209
0.201000000000000040,-12.789953710100423478
0.202000000000000041,-13.827494654353150949
0.203000000000000042,-14.825303593876572705
0.204000000000000042,-15.783081131205758396
0.205000000000000043,-16.700645292514781914
0.206000000000000044,-17.577937443019102659
0.207000000000000045,-18.415024601195753462
0.208000000000000046,-19.212098630822371348
0.209000000000000047,-19.969472793933555010
0.210000000000000048,-20.687576136645866143
0.211000000000000049,-21.366946156983438243
0.212000000000000050,-22.008220172501470557
0.213000000000000050,-22.612125768369757850
0.214000000000000051,-23.179470665947391694
0.215000000000000052,-23.711132309648185412
0.216000000000000053,-24.208047427595793977
0.217000000000000054,-24.671201780398185122
0.218000000000000055,-25.101620273238275161
0.219000000000000056,-25.500357570033749255
0.220000000000000057,-25.868489315105534843
0.221000000000000058,-26.207104037861075341
0.222000000000000058,-26.517295789567089770
0.223000000000000059,-26.800157538339437480
0.224000000000000060,-27.056775328925283475
0.225000000000000061,-27.288223197526242814
0.226000000000000062,-27.495558818594531658
0.227000000000000063,-27.679819849982948199
0.228000000000000064,-27.842020934773678675
0.229000000000000065,-27.983151312280917011
0.230000000000000066,-28.104172986838328541
0.231000000000000066,-28.206019400784661855
0.232000000000000067,-28.289594557290435262
0.233000000000000068,-28.355772539091514517
0.234000000000000069,-28.405397370590730333
0.235000000000000070,-28.439283172957960488
0.236000000000000071,-28.458214564623439458
0.237000000000000072,-28.462947262761822742
0.238000000000000073,-28.454208844865036099
0.239000000000000073,-28.432699633183869281
0.240000000000000074,-28.399093668579769911
0.241000000000000075,-28.354039744084236219
0.242000000000000076,-28.298162472146124458
0.243000000000000077,-28.232063363100202480
0.244000000000000078,-28.156321895772300934
0.245000000000000079,-28.071496564312649724
0.246000000000000080,-27.978125888299484103
0.247000000000000081,-27.876729375863209981
0.248000000000000081,-27.767808432040446576
0.249000000000000082,-27.651847206775016730
0.250000000000000111,-27.529313378942674717
0.251000000000000112,-27.400658874493778683
0.252000000000000113,-27.266320518295344755
0.253000000000000114,-27.126720620518732119
0.254000000000000115,-26.982267499481558559
0.255000000000000115,-26.833355943720665238
0.256000000000000116,-26.680367616768045025
0.257000000000000117,-26.523671408636669611
0.258000000000000118,-26.363623738414087683
0.259000000000000119,-26.200568812626251258
0.260000000000000120,-26.034838844184712059
0.261000000000000121,-25.866754236783584986
0.262000000000000122,-25.696623739581241352
0.263000000000000123,-25.524744576898946491
0.264000000000000123,-25.351402557506030888
0.265000000000000124,-25.176872167849971618
0.266000000000000125,-25.001416653340520213
0.267000000000000126,-24.825288091516839017
0.268000000000000127,-24.648727460626631114
0.269000000000000128,-24.471964706830664937
0.270000000000000129,-24.295218812923213392
0.271000000000000130,-24.118697871133576882
0.272000000000000131,-23.942599162250616018
0.273000000000000131,-23.767109242995410057
0.274000000000000132,-23.592404043259939783
0.275000000000000133,-23.418648974535145157
0.276000000000000134,-23.245999050571366951
0.277000000000000135,-23.074599021050552494
0.278000000000000136,-22.904583518803548259
0.279000000000000137,-22.736077220877504601
0.280000000000000138,-22.569195023550598478
0.281000000000000139,-22.404042231200726576
0.282000000000000139,-22.240714758765086856
0.283000000000000140,-22.079299347375812346
0.284000000000000141,-21.919873792623580044
0.285000000000000142,-21.762507184786123560
0.286000000000000143,-21.607260160260228332
0.287000000000000144,-21.454185163353848509
0.288000000000000145,-21.303326717528641154
0.289000000000000146,-21.154721705130846487
0.290000000000000147,-21.008399654609835494
0.291000000000000147,-20.864383034197224731
0.292000000000000148,-20.722687551004622009
0.293000000000000149,-20.583322454493224285
0.294000000000000150,-20.446290843273366988
0.295000000000000151,-20.311589974205283227
0.296000000000000152,-20.179211572792610241
0.297000000000000153,-20.049142143887717538
0.298000000000000154,-19.921363281760072539
0.299000000000000155,-19.795851978617054812
0.300000000000000155,-19.672580930707901814
0.301000000000000156,-19.551518841186673825
0.302000000000000157,-19.432630718957668137
0.303000000000000158,-19.315878172776812960
0.304000000000000159,-19.201219699933535168
0.305000000000000160,-19.088610968889845765
0.306000000000000161,-18.978005095306333061
0.307000000000000162,-18.869352910937386980
0.308000000000000163,-18.762603224930366252
0.309000000000000163,-18.657703077115378676
0.310000000000000164,-18.554597982923176858
0.311000000000000165,-18.453232169618104308
0.312000000000000166,-18.353548803581411164
0.313000000000000167,-18.255490208426614629
0.314000000000000168,-18.158998073773275905
0.315000000000000169,-18.064013654548478627
0.316000000000000170,-17.970477960725730782
0.317000000000000171,-17.878331937449981837
0.318000000000000171,-17.787516635533314968
0.319000000000000172,-17.697973372340687348
0.320000000000000173,-17.609643883116337548
0.321000000000000174,-17.522470462831865490
0.322000000000000175,-17.436396098663752952
0.323000000000000176,-17.351364593233938649
0.324000000000000177,-17.267320678769777942
0.325000000000000178,-17.184210122360720874
0.326000000000000179,-17.101979822508134532
0.327000000000000179,-17.020577897181333071
0.328000000000000180,-16.939953763607906723
0.329000000000000181,-16.860058210039760240
0.330000000000000182,-16.780843459747167401
0.331000000000000183,-16.702263227503074461
0.332000000000000184,-16.624272768827903946
0.333000000000000185,-16.546828922271259898
0.334000000000000186,-16.469890145012389127
0.335000000000000187,-16.393416542064475294
0.336000000000000187,-16.317369889370713310
0.337000000000000188,-16.241713651080761593
0.338000000000000189,-16.166412991296844837
0.339000000000000190,-16.091434780577419161
0.340000000000000191,-16.016747597484478405
0.341000000000000192,-15.942321725458450388
0.342000000000000193,-15.868129145299954885
0.343000000000000194,-15.794143523534842188
0.344000000000000195,-15.720340196932761856
0.345000000000000195,-15.646696153445095234
0.346000000000000196,-15.573190009821431090
0.347000000000000197,-15.499801986157606848
0.348000000000000198,-15.426513877621607307
0.349000000000000199,-15.353309023596116489
0.350000000000000200,-15.280172274469530080
0.351000000000000201,-15.207089956299123301
0.352000000000000202,-15.134049833562471576
0.353000000000000203,-15.061041070205025250
0.354000000000000203,-14.988054189183742437
0.355000000000000204,-14.915081030698264186
0.356000000000000205,-14.842114709293117158
0.357000000000000206,-14.769149570006035788
0.358000000000000207,-14.696181143729040386
0.359000000000000208,-14.623206101941295998
0.360000000000000209,-14.550222210964028235
0.361000000000000210,-14.477228285880087810
0.362000000000000210,-14.404224144252882667
0.363000000000000211,-14.331210559771387025
0.364000000000000212,-14.258189215940632266
0.365000000000000213,-14.185162659929238416
0.366000000000000214,-14.112134256678706024
0.367000000000000215,-14.039108143371635151
0.368000000000000216,-13.966089184349570473
0.369000000000000217,-13.893082926564105151
0.370000000000000218,-13.820095555638662432
0.371000000000000218,-13.747133852611915117
0.372000000000000219,-13.674205151427841542
0.373000000000000220,-13.601317297231622305
0.374000000000000221,-13.528478605524876244
0.375000000000000222,-13.455697822228364302
0.376000000000000223,-13.382984084695261018
0.377000000000000224,-13.310346883712952604
0.378000000000000225,-13.237796026526826410
0.379000000000000226,-13.165341600914839404
0.380000000000000226,-13.092993940337567693
0.381000000000000227,-13.020763590184097680
0.382000000000000228,-12.948661275130698201
0.383000000000000229,-12.876697867625191307
0.384000000000000230,-12.804884357506580272
0.385000000000000231,-12.733231822766606811
0.386000000000000232,-12.661751401456251998
0.387000000000000233,-12.590454264737967804
0.388000000000000234,-12.519351591081257169
0.389000000000000234,-12.448454541597177681
0.390000000000000235,-12.377774236504484051
0.391000000000000236,-12.307321732718655483
0.392000000000000237,-12.237108002552318453
0.393000000000000238,-12.167143913514427922
0.394000000000000239,-12.097440209193305094
0.395000000000000240,-12.028007491207507229
0.396000000000000241,-11.958856202206884944
0.397000000000000242,-11.889996609904871505
0.398000000000000242,-11.821438792122149763
0.399000000000000243,-11.753192622820462176
0.400000000000000244,-11.685267759104629448
0.401000000000000245,-11.617673629170109706
0.402000000000000246,-11.550419421172502865
0.403000000000000247,-11.483514072994813304
0.404000000000000248,-11.416966262888109895
0.405000000000000249,-11.350784400960300502
0.406000000000000250,-11.284976621487807336
0.407000000000000250,-11.219550776024384220
0.408000000000000251,-11.154514427281268851
0.409000000000000252,-11.089874843752820510
0.410000000000000253,-11.025638995061378012
0.411000000000000254,-10.961813547995589602
0.412000000000000255,-10.898404863216052618
0.413000000000000256,-10.835418992602580346
0.414000000000000257,-10.772861677217200338
0.415000000000000258,-10.710738345857627962
0.416000000000000258,-10.649054114175807939
0.417000000000000259,-10.587813784336661982
0.418000000000000260,-10.527021845192345850
0.419000000000000261,-10.466682472947779203
0.420000000000000262,-10.406799532293499411
0.421000000000000263,-10.347376577982448254
0.422000000000000264,-10.288416856827407031
0.423000000000000265,-10.229923310096717515
0.424000000000000266,-10.171898576285981264
0.425000000000000266,-10.114344994244129694
0.426000000000000267,-10.057264606632680071
0.427000000000000268,-10.000659163697573462
0.428000000000000269,-9.944530127333436553
0.429000000000000270,-9.888878675420698983
0.430000000000000271,-9.833705706416491665
0.431000000000000272,-9.779011844180846680
0.432000000000000273,-9.724797443020211318
0.433000000000000274,-9.671062592930892876
0.434000000000000274,-9.617807125025569448
0.435000000000000275,-9.565030617126534906
0.436000000000000276,-9.512732399509982173
0.437000000000000277,-9.460911560786056995
0.438000000000000278,-9.409566953900027286
0.439000000000000279,-9.358697202240502833
0.440000000000000280,-9.308300705841059397
0.441000000000000281,-9.258375647662180796
0.442000000000000282,-9.208919999941121759
0.443000000000000282,-9.159931530597493321
0.444000000000000283,-9.111407809683200298
0.445000000000000284,-9.063346215865662359
0.446000000000000285,-9.015743942933761801
0.447000000000000286,-8.968598006316614857
0.448000000000000287,-8.921905249605405430
0.449000000000000288,-8.875662351069408373
0.450000000000000289,-8.829865830157320516
0.451000000000000290,-8.784512053975907619
0.452000000000000290,-8.739597243738050025
0.453000000000000291,-8.695117481172870200
0.454000000000000292,-8.651068714891103184
0.455000000000000293,-8.607446766698959806
0.456000000000000294,-8.564247337854581588
0.457000000000000295,-8.521466015261093929
0.458000000000000296,-8.479098277591001320
0.459000000000000297,-8.437139501336810454
0.460000000000000298,-8.395584966783172121
0.461000000000000298,-8.354429863896188024
0.462000000000000299,-8.313669298125844875
0.463000000000000300,-8.273298296117790329
0.464000000000000301,-8.233311811331059715
0.465000000000000302,-8.193704729558605848
0.466000000000000303,-8.154471874347752447
0.467000000000000304,-8.115608012317942155
0.468000000000000305,-8.077107858373519633
0.469000000000000306,-8.038966080809382575
0.470000000000000306,-8.001177306307749149
0.471000000000000307,-7.963736124824262852
0.472000000000000308,-7.926637094362256164
0.473000000000000309,-7.889874745633792763
0.474000000000000310,-7.853443586606566384
0.475000000000000311,-7.817338106935928010
0.476000000000000312,-7.781552782281368152
0.477000000000000313,-7.746082078506974611
0.478000000000000314,-7.710920455765718273
0.479000000000000314,-7.676062372467373329
0.480000000000000315,-7.641502289130107428
0.481000000000000316,-7.607234672116011787
0.482000000000000317,-7.573253997250771086
0.483000000000000318,-7.539554753328047809
0.484000000000000319,-7.506131445499031329
0.485000000000000320,-7.472978598547949325
0.486000000000000321,-7.440090760054252073
0.487000000000000322,-7.407462503442397761
0.488000000000000322,-7.375088430920190952
0.489000000000000323,-7.342963176306851025
0.490000000000000324,-7.311081407751811589
0.491000000000000325,-7.279437830345679927
0.492000000000000326,-7.248027188624433848
0.493000000000000327,-7.216844268968491072
0.494000000000000328,-7.185883901897855530
0.495000000000000329,-7.155140964265011227
0.496000000000000330,-7.124610381346973220
0.497000000000000330,-7.094287128838209000
0.498000000000000331,-7.064166234745941964
0.499000000000000332,-7.034242781189649740
0.500000000000000333,-7.004511906106341890
0.501000000000000334,-6.974968804863438621
0.502000000000000335,-6.945608731780967382
0.503000000000000336,-6.916427001564949606
0.504000000000000337,-6.887418990653662476
0.505000000000000338,-6.858580138478744814
0.506000000000000338,-6.829905948642890579
0.507000000000000339,-6.801391990016028899
0.508000000000000340,-6.773033897751849608
0.509000000000000341,-6.744827374226571415
0.510000000000000342,-6.716768189901751285
0.511000000000000343,-6.688852184113099675
0.512000000000000344,-6.661075265787123278
0.513000000000000345,-6.633433414087456015
0.514000000000000346,-6.605922678992823371
0.515000000000000346,-6.578539181808372049
0.516000000000000347,-6.551279115612328674
0.517000000000000348,-6.524138745639791459
0.518000000000000349,-6.497114409605410756
0.519000000000000350,-6.470202517966901823
0.520000000000000351,-6.443399554131073792
0.521000000000000352,-6.416702074604231143
0.522000000000000353,-6.390106709088631654
0.523000000000000353,-6.363610160526836701
0.524000000000000354,-6.337209205095637010
0.525000000000000355,-6.310900692151205860
0.526000000000000356,-6.284681544127264097
0.527000000000000357,-6.258548756387839695
0.528000000000000358,-6.232499397036292521
0.529000000000000359,-6.206530606682176376
0.530000000000000360,-6.180639598167599225
0.531000000000000361,-6.154823656254563957
0.532000000000000361,-6.129080137274883988
0.533000000000000362,-6.103406468744137392
0.534000000000000363,-6.077800148941200575
0.535000000000000364,-6.052258746454748817
0.536000000000000365,-6.026779899698220255
0.537000000000000366,-6.001361316394595136
0.538000000000000367,-5.976000773032383862
0.539000000000000368,-5.950696114294199646
0.540000000000000369,-5.925445252459150325
0.541000000000000369,-5.900246166780456214
0.542000000000000370,-5.875096902839457513
0.543000000000000371,-5.849995571877281364
0.544000000000000372,-5.824940350105403120
0.545000000000000373,-5.799929477996231597
0.546000000000000374,-5.774961259554904025
0.547000000000000375,-5.750034061573368049
0.548000000000000376,-5.725146312867931186
0.549000000000000377,-5.700296503501252943
0.550000000000000377,-5.675483183989848079
0.551000000000000378,-5.650704964498144633
0.552000000000000379,-5.625960514020064807
0.553000000000000380,-5.601248559549051542
0.554000000000000381,-5.576567885237511568
0.555000000000000382,-5.551917331546617262
0.556000000000000383,-5.527295794387206307
0.557000000000000384,-5.502702224252837837
0.558000000000000385,-5.478135625345640136
0.559000000000000385,-5.453595054695876243
0.560000000000000386,-5.429079621275965550
0.561000000000000387,-5.404588485109706575
0.562000000000000388,-5.380120856377460292
0.563000000000000389,-5.355675994517959282
0.564000000000000390,-5.331253207327472765
0.565000000000000391,-5.306851850056959918
0.566000000000000392,-5.282471324507839405
0.567000000000000393,-5.258111078127049254
0.568000000000000393,-5.233770603101893570
0.569000000000000394,-5.209449435455331567
0.570000000000000395,-5.185147154142272896
0.571000000000000396,-5.160863380147278967
0.572000000000000397,-5.136597775584363923
0.573000000000000398,-5.112350042799247873
0.574000000000000399,-5.088119923474582862
0.575000000000000400,-5.063907197738632959
0.576000000000000401,-5.039711683277763754
0.577000000000000401,-5.015533234453267930
0.578000000000000402,-4.991371741422808483
0.579000000000000403,-4.967227129266932550
0.580000000000000404,-4.943099357121019111
0.581000000000000405,-4.918988417312982087
0.582000000000000406,-4.894894334507041478
0.583000000000000407,-4.870817164853937342
0.584000000000000408,-4.846756995147839753
0.585000000000000409,-4.822713941990251385
0.586000000000000409,-4.798688150961160304
0.587000000000000410,-4.774679795797743154
0.588000000000000411,-4.750689077580787512
0.589000000000000412,-4.726716223929136262
0.590000000000000413,-4.702761488202294338
0.591000000000000414,-4.678825148711484694
0.592000000000000415,-4.654907507939267219
0.593000000000000416,-4.631008891767918634
0.594000000000000417,-4.607129648716760784
0.595000000000000417,-4.583270149188601650
0.596000000000000418,-4.559430784725330810
0.597000000000000419,-4.535611967272986433
0.598000000000000420,-4.511814128456182793
0.599000000000000421,-4.488037718862238457
0.600000000000000422,-4.464283207334927006
0.601000000000000423,-4.440551080278052787
0.602000000000000424,-4.416841840968881883
0.603000000000000425,-4.393156008881516250
0.604000000000000425,-4.369494119020262524
0.605000000000000426,-4.345856721263093192
0.606000000000000427,-4.322244379715205476
0.607000000000000428,-4.298657672072701885
