# AuFCC100-Ablate100_PYRROLIDINE-AC
# h[nm],U(h)[kJ/mol]
0.149999999999999994,152.750334464053054262
0.150999999999999995,149.331452188186347030
0.151999999999999996,145.119889797853431901
0.152999999999999997,140.735558806493344264
0.153999999999999998,136.462392741596119095
0.154999999999999999,132.395259204765011418
0.156000000000000000,128.533255091371813705
0.157000000000000001,124.835944308569509076
0.158000000000000002,121.254818747562950421
0.159000000000000002,117.748842529958210434
0.160000000000000003,114.290291414805480485
0.161000000000000004,110.865106492355039336
0.162000000000000005,107.470521391370056108
0.163000000000000006,104.111681418520973352
0.164000000000000007,100.798252636926179093
0.165000000000000008,97.541537120480228396
0.166000000000000009,94.352302086608517584
0.167000000000000010,91.239344471340402265
0.168000000000000010,88.208710243808283735
0.169000000000000011,85.263440875018218890
0.170000000000000012,82.403707327726621656
0.171000000000000013,79.627200289717293913
0.172000000000000014,76.929664310005563266
0.173000000000000015,74.305486587579125057
0.174000000000000016,71.748274414897252882
0.175000000000000017,69.251376410102707837
0.176000000000000018,66.808320557154985408
0.177000000000000018,64.413156340903668706
0.178000000000000019,62.060699008655930697
0.179000000000000020,59.746681567887591768
0.180000000000000021,57.467825023555846542
0.181000000000000022,55.221840085902556439
0.182000000000000023,53.007374639189912102
0.183000000000000024,50.823921101422790514
0.184000000000000025,48.671696807428062925
0.185000000000000026,46.551509025995841284
0.186000000000000026,44.464614422742386068
0.187000000000000027,42.412580890244100829
0.188000000000000028,40.397157820063888778
0.189000000000000029,38.420159178521281262
0.190000000000000030,36.483362225647177013
0.191000000000000031,34.588423413907420922
0.192000000000000032,32.736811928947965100
0.193000000000000033,30.929760483280766437
0.194000000000000034,29.168232330171843358
0.195000000000000034,27.452903007589913642
0.196000000000000035,25.784155026329329985
0.197000000000000036,24.162083556666939188
0.198000000000000037,22.586511118986248192
0.199000000000000038,21.057009322079920821
0.200000000000000039,19.572925796905185081
0.201000000000000040,18.133414624560955986
0.202000000000000041,16.737468739030489928
0.203000000000000042,15.383952984313586043
0.204000000000000042,14.071636711017458055
0.205000000000000043,12.799225000682756814
0.206000000000000044,11.565387800554006503
0.207000000000000045,10.368786432450061596
0.208000000000000046,9.208097103665007666
0.209000000000000047,8.082031193540395009
0.210000000000000048,6.989352215635380894
0.211000000000000049,5.928889462252503684
0.212000000000000050,4.899548426044161076
0.213000000000000050,3.900318163595541510
0.214000000000000051,2.930275819628482825
0.215000000000000052,1.988588569388930027
0.216000000000000053,1.074513262561666016
0.217000000000000054,0.187394066425781963
0.218000000000000055,-0.673341589375370697
0.219000000000000056,-1.508188467496068608
0.220000000000000057,-2.317570088007552265
0.221000000000000058,-3.101846130127970724
0.222000000000000058,-3.861320415740613576
0.223000000000000059,-4.596249241664676966
0.224000000000000060,-5.306849851222667169
0.225000000000000061,-5.993308860178323094
0.226000000000000062,-6.655790476892515350
0.227000000000000063,-7.294444380981066622
0.228000000000000064,-7.909413148386346570
0.229000000000000065,-8.500839133231242073
0.230000000000000066,-9.068870737829092477
0.231000000000000066,-9.613668021587157497
0.232000000000000067,-10.135407617132552005
0.233000000000000068,-10.634286937745649482
0.234000000000000069,-11.110527674085250993
0.235000000000000070,-11.564378590256989554
0.236000000000000071,-11.996117639564671364
0.237000000000000072,-12.406053428875939204
0.238000000000000073,-12.794526067526195590
0.239000000000000073,-13.161907442190861062
0.240000000000000074,-13.508600963301670816
0.241000000000000075,-13.835040831489081370
0.242000000000000076,-14.141690874332937256
0.243000000000000077,-14.429043004524027438
0.244000000000000078,-14.697615350503417275
0.245000000000000079,-14.947950109874776459
0.246000000000000080,-15.180611174490772797
0.247000000000000081,-15.396181574203826159
0.248000000000000081,-15.595260783942048732
0.249000000000000082,-15.778461936113142627
0.250000000000000111,-15.946408977435051924
0.251000000000000112,-16.099733806213723852
0.252000000000000113,-16.239073422903196331
0.253000000000000114,-16.365067123544839944
0.254000000000000115,-16.478353762445742348
0.255000000000000115,-16.579569107258059546
0.256000000000000116,-16.669343306502284463
0.257000000000000117,-16.748298486564301868
0.258000000000000118,-16.817046492314982942
0.259000000000000119,-16.876186782769313055
0.260000000000000120,-16.926304490636745470
0.261000000000000121,-16.967968652221678383
0.262000000000000122,-17.001730611924390502
0.263000000000000123,-17.028122603567393156
0.264000000000000123,-17.047656508934316832
0.265000000000000124,-17.060822792253553359
0.266000000000000125,-17.068089607886061998
0.267000000000000126,-17.069902077178184641
0.268000000000000127,-17.066681729311582671
0.269000000000000128,-17.058826100014226057
0.270000000000000129,-17.046708481181134687
0.271000000000000130,-17.030677813781903041
0.272000000000000131,-17.011058715894336046
0.273000000000000131,-16.988151637289995222
0.274000000000000132,-16.962233131698532418
0.275000000000000133,-16.933556237683422552
0.276000000000000134,-16.902350958961804395
0.277000000000000135,-16.868824834987542260
0.278000000000000136,-16.833163592678623388
0.279000000000000137,-16.795531870299676314
0.280000000000000138,-16.756074004699659241
0.281000000000000139,-16.714914873344348223
0.282000000000000139,-16.672160782867425866
0.283000000000000140,-16.627900396184294607
0.284000000000000141,-16.582205690563174727
0.285000000000000142,-16.535132939423384357
0.286000000000000143,-16.486723711023742567
0.287000000000000144,-16.437005877611092330
0.288000000000000145,-16.385994629015474544
0.289000000000000146,-16.333693485098748965
0.290000000000000147,-16.280095301886085224
0.291000000000000147,-16.225183266629152001
0.292000000000000148,-16.168931877465201552
0.293000000000000149,-16.111307903743121273
0.294000000000000150,-16.052271323485086896
0.295000000000000151,-15.991776234838473769
0.296000000000000152,-15.929771738744889831
0.297000000000000153,-15.866202790411652046
0.298000000000000154,-15.801011017513129531
0.299000000000000155,-15.734135503375762610
0.300000000000000155,-15.665513533709392036
0.301000000000000156,-15.595081305739473265
0.302000000000000157,-15.522774598868517515
0.303000000000000158,-15.448529406251637397
0.304000000000000159,-15.372282526909614830
0.305000000000000160,-15.293972118223814860
0.306000000000000161,-15.213538208861374201
0.307000000000000162,-15.130923172365976725
0.308000000000000163,-15.046072161819683544
0.309000000000000163,-14.958933506136313341
0.310000000000000164,-14.869459068685637604
0.311000000000000165,-14.777604569071931095
0.312000000000000166,-14.683329869000909085
0.313000000000000167,-14.586599223265341863
0.314000000000000168,-14.487381496963545047
0.315000000000000169,-14.385650350136719666
0.316000000000000170,-14.281384391071094697
0.317000000000000171,-14.174567299560521860
0.318000000000000171,-14.065187921464124443
0.319000000000000172,-13.953240335924126825
0.320000000000000173,-13.838723896629815613
0.321000000000000174,-13.721643248526955716
0.322000000000000175,-13.602008321377828892
0.323000000000000176,-13.479834301575971622
0.324000000000000177,-13.355141583612459399
0.325000000000000178,-13.227955702577606445
0.326000000000000179,-13.098307249064472302
0.327000000000000179,-12.966231767817324894
0.328000000000000180,-12.831769641442082985
0.329000000000000181,-12.694965960465898647
0.330000000000000182,-12.555870380998674918
0.331000000000000183,-12.414536971214637617
0.332000000000000184,-12.271024047832479908
0.333000000000000185,-12.125394003733166670
0.334000000000000186,-11.977713127812060989
0.335000000000000187,-11.828051418118985083
0.336000000000000187,-11.676482389295674835
0.337000000000000188,-11.523082875274969439
0.338000000000000189,-11.367932828160983050
0.339000000000000190,-11.211115114163689555
0.340000000000000191,-11.052715307415619250
0.341000000000000192,-10.892821482453555859
0.342000000000000193,-10.731524006102009849
0.343000000000000194,-10.568915329451842311
0.344000000000000195,-10.405089780582418513
0.345000000000000195,-10.240143358633524429
0.346000000000000196,-10.074173529790202863
0.347000000000000197,-9.907279025703001452
0.348000000000000198,-9.739559644825757090
0.349000000000000199,-9.571116057113815856
0.350000000000000200,-9.402049612488289299
0.351000000000000201,-9.232462153434724428
0.352000000000000202,-9.062455832069838735
0.353000000000000203,-8.892132931975840648
0.354000000000000203,-8.721595695069142451
0.355000000000000204,-8.550946153739255706
0.356000000000000205,-8.380285968463766721
0.357000000000000206,-8.209716271076802130
0.358000000000000207,-8.039337513841187999
0.359000000000000208,-7.869249324449087979
0.360000000000000209,-7.699550367051249289
0.361000000000000210,-7.530338209392096083
0.362000000000000210,-7.361709196106092534
0.363000000000000211,-7.193758328210527964
0.364000000000000212,-7.026579148810585984
0.365000000000000213,-6.860263635014573147
0.366000000000000214,-6.694902096040640238
0.367000000000000215,-6.530583077480547338
0.368000000000000216,-6.367393271671776489
0.369000000000000217,-6.205417434115766184
0.370000000000000218,-6.044738305867951134
0.371000000000000218,-5.885436541813794165
0.372000000000000219,-5.727590644734955383
0.373000000000000220,-5.571276905060150497
0.374000000000000221,-5.416569346187072753
0.375000000000000222,-5.263539675253821493
0.376000000000000223,-5.112257239231882799
0.377000000000000224,-4.962788986206409625
0.378000000000000225,-4.815199431704581201
0.379000000000000226,-4.669550629928023611
0.380000000000000226,-4.525902149741732217
0.381000000000000227,-4.384311055268337753
0.382000000000000228,-4.244831890934285923
0.383000000000000229,-4.107516670812290549
0.384000000000000230,-3.972414872102675076
0.385000000000000231,-3.839573432595718039
0.386000000000000232,-3.709036751955934186
0.387000000000000233,-3.580846696669548468
0.388000000000000234,-3.455042608496376566
0.389000000000000234,-3.331661316268290651
0.390000000000000235,-3.210737150877002843
0.391000000000000236,-3.092301963295756018
0.392000000000000237,-2.976385145480509475
0.393000000000000238,-2.863013653998676578
0.394000000000000239,-2.752212036235112791
0.395000000000000240,-2.644002459027710916
0.396000000000000241,-2.538404739587365899
0.397000000000000242,-2.435436378559811210
0.398000000000000242,-2.335112595089843701
0.399000000000000243,-2.237446363751352862
0.400000000000000244,-2.142448453209652381
0.401000000000000245,-2.050127466486383554
0.402000000000000246,-1.960489882699930630
0.403000000000000247,-1.873540100158240351
0.404000000000000248,-1.789280480684350083
0.405000000000000249,-1.707711395058411963
0.406000000000000250,-1.628831269463681952
0.407000000000000250,-1.552636632827603780
0.408000000000000251,-1.479122164952698437
0.409000000000000252,-1.408280745335848128
0.410000000000000253,-1.340103502577886241
0.411000000000000254,-1.274579864289500541
0.412000000000000255,-1.211697607402716592
0.413000000000000256,-1.151442908801175502
0.414000000000000257,-1.093800396185706569
0.415000000000000258,-1.038753199095586277
0.416000000000000258,-0.986283000009070321
0.417000000000000259,-0.936370085450519363
0.418000000000000260,-0.888993397034678723
0.419000000000000261,-0.844130582382078054
0.420000000000000262,-0.801758045842915434
0.421000000000000263,-0.761850998969887505
0.422000000000000264,-0.724383510683647591
0.423000000000000265,-0.689328557077670157
0.424000000000000266,-0.656658070812461303
0.425000000000000266,-0.626342990051717785
0.426000000000000267,-0.598353306896203030
0.427000000000000268,-0.572658115273792068
0.428000000000000269,-0.549225658246844661
0.429000000000000270,-0.528023374700744008
0.430000000000000271,-0.509017945380072057
0.431000000000000272,-0.492175338241244709
0.432000000000000273,-0.477460853092972204
0.433000000000000274,-0.464839165498164675
0.434000000000000274,-0.454274369913245324
0.435000000000000275,-0.445730022042837848
0.436000000000000276,-0.439169180390132918
0.437000000000000277,-0.434554446985035814
0.438000000000000278,-0.431848007274261481
0.439000000000000279,-0.431011669159428845
0.440000000000000280,-0.432006901170897462
0.441000000000000281,-0.434794869766855663
0.442000000000000282,-0.439336475748943300
0.443000000000000282,-0.445592389786964138
0.444000000000000283,-0.453523087047131124
0.445000000000000284,-0.463088880919411916
0.446000000000000285,-0.474249955841001269
0.447000000000000286,-0.486966399214440848
0.448000000000000287,-0.501198232419791667
0.449000000000000288,-0.516905440921767712
0.450000000000000289,-0.534048003473693411
0.451000000000000290,-0.552585920421189369
0.452000000000000290,-0.572479241109601689
0.453000000000000291,-0.593688090400018131
0.454000000000000292,-0.616172694299673696
0.455000000000000293,-0.639893404713360092
0.456000000000000294,-0.664810723323234987
0.457000000000000295,-0.690885324605128304
0.458000000000000296,-0.718078077990255581
0.459000000000000297,-0.746350069181653586
0.460000000000000298,-0.775662620635574451
0.461000000000000298,-0.805977311218201264
0.462000000000000299,-0.837255995049049573
0.463000000000000300,-0.869460819542430263
0.464000000000000301,-0.902554242659103445
0.465000000000000302,-0.936499049380418391
0.466000000000000303,-0.971258367417849433
0.467000000000000304,-1.006795682170794848
0.468000000000000305,-1.043074850946196008
0.469000000000000306,-1.080060116453497976
0.470000000000000306,-1.117716119588788359
0.471000000000000307,-1.156007911522221487
0.472000000000000308,-1.194900965102904555
0.473000000000000309,-1.234361185595619359
0.474000000000000310,-1.274354920763776766
0.475000000000000311,-1.314848970313387655
0.476000000000000312,-1.355810594712363759
0.477000000000000313,-1.397207523400176399
0.478000000000000314,-1.439007962402337970
0.479000000000000314,-1.481180601364589178
0.480000000000000315,-1.523694620021401658
0.481000000000000316,-1.566519694113596151
0.482000000000000317,-1.609626000769617038
0.483000000000000318,-1.652984223365129068
0.484000000000000319,-1.696565555875411802
0.485000000000000320,-1.740341706734992000
0.486000000000000321,-1.784284902218847391
0.487000000000000322,-1.828367889359372001
0.488000000000000322,-1.872563938413233320
0.489000000000000323,-1.916846844892004853
0.490000000000000324,-1.961190931170482488
0.491000000000000325,-2.005571047686262709
0.492000000000000326,-2.049962573744109395
0.493000000000000327,-2.094341417938423433
0.494000000000000328,-2.138684018206985282
0.495000000000000329,-2.182967341528903926
0.496000000000000330,-2.227168883279561307
0.497000000000000330,-2.271266666255155720
0.498000000000000331,-2.315239239379196956
0.499000000000000332,-2.359065676103077269
0.500000000000000333,-2.402725572512832919
0.501000000000000334,-2.446199045153702123
0.502000000000000335,-2.489466728584103006
0.503000000000000336,-2.532509772670309189
0.504000000000000337,-2.575309839632995867
0.505000000000000338,-2.617849100856454392
0.506000000000000338,-2.660110233471190355
0.507000000000000339,-2.702076416720348373
0.508000000000000340,-2.743731328120148305
0.509000000000000341,-2.785059139424316932
0.510000000000000342,-2.826044512402311693
0.511000000000000343,-2.866672594440856869
0.512000000000000344,-2.906929013978102549
0.513000000000000345,-2.946799875779464006
0.514000000000000346,-2.986271756064122762
0.515000000000000346,-3.025331697490669658
0.516000000000000347,-3.063967204010441314
0.517000000000000348,-3.102166235596704347
0.518000000000000349,-3.139917202857691159
0.519000000000000350,-3.177208961541198029
0.520000000000000351,-3.214030806938435347
0.521000000000000352,-3.250372468194330455
0.522000000000000353,-3.286224102531471125
0.523000000000000353,-3.321576289394700954
0.524000000000000354,-3.356420024522926759
0.525000000000000355,-3.390746713954838842
0.526000000000000356,-3.424548167974700075
0.527000000000000357,-3.457816595004442384
0.528000000000000358,-3.490544595448022314
0.529000000000000359,-3.522725155493610316
0.530000000000000360,-3.554351640879371388
0.531000000000000361,-3.585417790628075974
0.532000000000000361,-3.615917710755790715
0.533000000000000362,-3.645845867959593534
0.534000000000000363,-3.675197083289222455
0.535000000000000364,-3.703966525807265153
0.536000000000000365,-3.732149706242398057
0.537000000000000366,-3.759742470639996448
0.538000000000000367,-3.786740994014276218
0.539000000000000368,-3.813141774005997409
0.540000000000000369,-3.838941624549526033
0.541000000000000369,-3.864137669553006305
0.542000000000000370,-3.888727336595139583
0.543000000000000371,-3.912708350642000621
0.544000000000000372,-3.936078727787147180
0.545000000000000373,-3.958836769018112101
0.546000000000000374,-3.980981054012304732
0.547000000000000375,-4.002510434965101283
0.548000000000000376,-4.023424030452946276
0.549000000000000377,-4.043721219333923145
0.550000000000000377,-4.063401634688386999
0.551000000000000378,-4.082465157801912881
0.552000000000000379,-4.100911912192858111
0.553000000000000380,-4.118742257686594854
0.554000000000000381,-4.135956784538451281
0.555000000000000382,-4.152556307607283337
0.556000000000000383,-4.168541860581375325
0.557000000000000384,-4.183914690258470515
0.558000000000000385,-4.198676250881424821
0.559000000000000385,-4.212828198531064494
0.560000000000000386,-4.226372385577533919
0.561000000000000387,-4.239310855191571470
0.562000000000000388,-4.251645835916809446
0.563000000000000389,-4.263379736304332646
0.564000000000000390,-4.274515139610451264
0.565000000000000391,-4.285054798558746825
0.566000000000000392,-4.295001630167218920
0.567000000000000393,-4.304358710641380092
0.568000000000000393,-4.313129270334011167
0.569000000000000394,-4.321316688772293801
0.570000000000000395,-4.328924489752900229
0.571000000000000396,-4.335956336505545572
0.572000000000000397,-4.342416026925546291
0.573000000000000398,-4.348307488875756910
0.574000000000000399,-4.353634775558208325
0.575000000000000400,-4.358402060955826052
0.576000000000000401,-4.362613635344376739
0.577000000000000401,-4.366273900874918290
0.578000000000000402,-4.369387367226822860
0.579000000000000403,-4.371958647331483760
0.580000000000000404,-4.373992453166783534
0.581000000000000405,-4.375493591622246825
0.582000000000000406,-4.376466960434902909
0.583000000000000407,-4.376917544195700671
0.584000000000000408,-4.376850410426427196
0.585000000000000409,-4.376270705726866161
0.586000000000000409,-4.375183651992067269
0.587000000000000410,-4.373594542699479781
0.588000000000000411,-4.371508739265594023
0.589000000000000412,-4.368931667471938063
0.590000000000000413,-4.365868813959915329
0.591000000000000414,-4.362325722794269112
0.592000000000000415,-4.358307992094696104
0.593000000000000416,-4.353821270735203086
0.594000000000000417,-4.348871255110791090
0.595000000000000417,-4.343463685970975874
0.596000000000000418,-4.337604345319629573
0.597000000000000419,-4.331299053380716302
0.598000000000000420,-4.324553665629268906
0.599000000000000421,-4.317374069887164545
0.600000000000000422,-4.309766183483071167
0.601000000000000423,-4.301735950475978676
0.602000000000000424,-4.293289338941741029
0.603000000000000425,-4.284432338322019085
0.604000000000000425,-4.275170956834917213
0.605000000000000426,-4.265511218946777205
0.606000000000000427,-4.255459162904419834
0.607000000000000428,-4.245020838327117296
0.608000000000000429,-4.234202303857760974
0.609000000000000430,-4.223009624872358536
0.610000000000000431,-4.211448871247347014
