# AuFCC100-Ablate100_13THIAZOLE-AC
# h[nm],U(h)[kJ/mol]
0.149999999999999994,142.306089235443607777
0.150999999999999995,139.760288933353251650
0.151999999999999996,135.334706752815407071
0.152999999999999997,130.541615127148020292
0.153999999999999998,125.992784482464500684
0.154999999999999999,121.841979903317536582
0.156000000000000000,118.039957608902383868
0.157000000000000001,114.472694296944411008
0.158000000000000002,111.029236526398875640
0.159000000000000002,107.629004739483249864
0.160000000000000003,104.227271962350300782
0.161000000000000004,100.810185452841693632
0.162000000000000005,97.385926057838787528
0.163000000000000006,93.975572826275708849
0.164000000000000007,90.605379622085834512
0.165000000000000008,87.301075530604194341
0.166000000000000009,84.084197955274902370
0.167000000000000010,80.970171660021534876
0.168000000000000010,77.967735808124388086
0.169000000000000011,75.079314221817313069
0.170000000000000012,72.301970747624238811
0.171000000000000013,69.628660498608951457
0.172000000000000014,67.049560581073961885
0.173000000000000015,64.553330833635399699
0.174000000000000016,62.128211535437309010
0.175000000000000017,59.762909598971646119
0.176000000000000018,57.447257889817834098
0.177000000000000018,55.172655377286602629
0.178000000000000019,52.932310557617881841
0.179000000000000020,50.721318791166318363
0.180000000000000021,48.536607505917068295
0.181000000000000022,46.376783066033780756
0.182000000000000023,44.241910656561366011
0.183000000000000024,42.133254716035096976
0.184000000000000025,40.053002955063533364
0.185000000000000026,38.003992335861518370
0.186000000000000026,35.989450901804239891
0.187000000000000027,34.012765258360552423
0.188000000000000028,32.077279941966423848
0.189000000000000029,30.186131925061950199
0.190000000000000030,28.342121096674805614
0.191000000000000031,26.547615697700621240
0.192000000000000032,24.804490326456296145
0.193000000000000033,23.114093199852220550
0.194000000000000034,21.477238791071400215
0.195000000000000034,19.894221699051009011
0.196000000000000035,18.364847575427582171
0.197000000000000036,16.888477083996356498
0.198000000000000037,15.464079146263014053
0.199000000000000038,14.090290091848856946
0.200000000000000039,12.765475749144904682
0.201000000000000040,11.487793951332717413
0.202000000000000041,10.255255373545807629
0.203000000000000042,9.065781041852870814
0.204000000000000042,7.917255251923125847
0.205000000000000043,6.807572996663656006
0.206000000000000044,5.734681323006586950
0.207000000000000045,4.696614316184069438
0.208000000000000046,3.691521645080602099
0.209000000000000047,2.717690795941177129
0.210000000000000048,1.773563276274214839
0.211000000000000049,0.857745189399969687
0.212000000000000050,-0.030987333617891723
0.213000000000000050,-0.893687300100441506
0.214000000000000051,-1.731240042145868241
0.215000000000000052,-2.544369833028495620
0.216000000000000053,-3.333649348053028483
0.217000000000000054,-4.099511402838048824
0.218000000000000055,-4.842262431297507774
0.219000000000000056,-5.562097202928655726
0.220000000000000057,-6.259114322011966713
0.221000000000000058,-6.933332097909143954
0.222000000000000058,-7.584704424071015083
0.223000000000000059,-8.213136352169101428
0.224000000000000060,-8.818499095766915374
0.225000000000000061,-9.400644244205466293
0.226000000000000062,-9.959417011171272094
0.227000000000000063,-10.494668383216568586
0.228000000000000064,-11.006266070944466406
0.229000000000000065,-11.494104199438575975
0.230000000000000066,-11.958111704698563216
0.231000000000000066,-12.398259429339894666
0.232000000000000067,-12.814565933695593714
0.233000000000000068,-13.207102057859017918
0.234000000000000069,-13.575994286307857095
0.235000000000000070,-13.921426979768824594
0.236000000000000071,-14.243643549157502193
0.237000000000000072,-14.542946654012819607
0.238000000000000073,-14.819697513098750719
0.239000000000000073,-15.074314418025315021
0.240000000000000074,-15.307270542104157940
0.241000000000000075,-15.519091136440234635
0.242000000000000076,-15.710350203707383443
0.243000000000000077,-15.881666737377297949
0.244000000000000078,-16.033700610572644507
0.245000000000000079,-16.167148194378754056
0.246000000000000080,-16.282737780546057138
0.247000000000000081,-16.381224878196043448
0.248000000000000081,-16.463387448542537328
0.249000000000000082,-16.530021135874985561
0.250000000000000111,-16.581934547225650078
0.251000000000000112,-16.619944627343691934
0.252000000000000113,-16.644872169903639048
0.253000000000000114,-16.657537500342371573
0.254000000000000115,-16.658756360402016128
0.255000000000000115,-16.649336019391796526
0.256000000000000116,-16.630071632405211801
0.257000000000000117,-16.601742861258451001
0.258000000000000118,-16.565110769769638921
0.259000000000000119,-16.520915001183759330
0.260000000000000120,-16.469871242069103801
0.261000000000000121,-16.412668973864690258
0.262000000000000122,-16.349969510441532350
0.263000000000000123,-16.282404317542006567
0.264000000000000123,-16.210573607772481353
0.265000000000000124,-16.135045202928587571
0.266000000000000125,-16.056353653817300398
0.267000000000000126,-15.974999606386353079
0.268000000000000127,-15.891449401865113344
0.269000000000000128,-15.806134897741159762
0.270000000000000129,-15.719453495728322068
0.271000000000000130,-15.631768362404708128
0.272000000000000131,-15.543408827897433611
0.273000000000000131,-15.454670947845723816
0.274000000000000132,-15.365818213870156228
0.275000000000000133,-15.277082397896975863
0.276000000000000134,-15.188664515916405762
0.277000000000000135,-15.100735897079982095
0.278000000000000136,-15.013439344449135859
0.279000000000000137,-14.926890374183491517
0.280000000000000138,-14.841178520491231652
0.281000000000000139,-14.756368694243690243
0.282000000000000139,-14.672502583773061602
0.283000000000000140,-14.589600087015686114
0.284000000000000141,-14.507660764826715294
0.285000000000000142,-14.426665305966412944
0.286000000000000143,-14.346576994938320837
0.287000000000000144,-14.267343174538265060
0.288000000000000145,-14.188896695646585400
0.289000000000000146,-14.111157347457815803
0.290000000000000147,-14.034033261990604302
0.291000000000000147,-13.957422287350388146
0.292000000000000148,-13.881213324827342603
0.293000000000000149,-13.805287625498570137
0.294000000000000150,-13.729520042565383164
0.295000000000000151,-13.653780236192522679
0.296000000000000152,-13.577933828124027826
0.297000000000000153,-13.501843503831230109
0.298000000000000154,-13.425370060399506755
0.299000000000000155,-13.348373398783872190
0.300000000000000155,-13.270713459457363470
0.301000000000000156,-13.192251100842005584
0.302000000000000157,-13.112848920250078422
0.303000000000000158,-13.032372017373225148
0.304000000000000159,-12.950688700641089568
0.305000000000000160,-12.867671137027866024
0.306000000000000161,-12.783195946118517838
0.307000000000000162,-12.697144739454392592
0.308000000000000163,-12.609404606363472823
0.309000000000000163,-12.519868547644236401
0.310000000000000164,-12.428435858614744092
0.311000000000000165,-12.335012463161382001
0.312000000000000166,-12.239511200526667523
0.313000000000000167,-12.141852066662078613
0.314000000000000168,-12.041962412043039521
0.315000000000000169,-11.939777097898646829
0.316000000000000170,-11.835238612850329076
0.317000000000000171,-11.728297151982287616
0.318000000000000171,-11.618910660382818278
0.319000000000000172,-11.507044843201679640
0.320000000000000173,-11.392673144263870455
0.321000000000000174,-11.275776695266859662
0.322000000000000175,-11.156344237566653277
0.323000000000000176,-11.034372018529010617
0.324000000000000177,-10.909863664386517002
0.325000000000000178,-10.782830031500708401
0.326000000000000179,-10.653289037882490931
0.327000000000000179,-10.521265476772516223
0.328000000000000180,-10.386790814028975305
0.329000000000000181,-10.249902971012751607
0.330000000000000182,-10.110646094598440214
0.331000000000000183,-9.969070315878468591
0.332000000000000184,-9.825231499062182294
0.333000000000000185,-9.679190982007106925
0.334000000000000186,-9.531015309753028575
0.335000000000000187,-9.380775962362843501
0.336000000000000187,-9.228549078307514364
0.337000000000000188,-9.074415174565602982
0.338000000000000189,-8.918458864542015974
0.339000000000000190,-8.760768574844970402
0.340000000000000191,-8.601436261895488045
0.341000000000000192,-8.440557129281167192
0.342000000000000193,-8.278229346702620006
0.343000000000000194,-8.114553771301691754
0.344000000000000195,-7.949633672100391735
0.345000000000000195,-7.783574458222966896
0.346000000000000196,-7.616483411517357638
0.347000000000000197,-7.448469424138805195
0.348000000000000198,-7.279642741606683565
0.349000000000000199,-7.110114711795375797
0.350000000000000200,-6.939997540272726084
0.351000000000000201,-6.769404052353147350
0.352000000000000202,-6.598447462189217738
0.353000000000000203,-6.427241149183524627
0.354000000000000203,-6.255898441962800760
0.355000000000000204,-6.084532410118836054
0.356000000000000205,-5.913255663884825708
0.357000000000000206,-5.742180161882064482
0.358000000000000207,-5.571417027040055814
0.359000000000000208,-5.401076370763314038
0.360000000000000209,-5.231267125389911676
0.361000000000000210,-5.062096884960689991
0.362000000000000210,-4.893671754293423604
0.363000000000000211,-4.726096206333606276
0.364000000000000212,-4.559472947732258419
0.365000000000000213,-4.393902792581657835
0.366000000000000214,-4.229484544221917552
0.367000000000000215,-4.066314885014823410
0.368000000000000216,-3.904488273966240541
0.369000000000000217,-3.744096852064699554
0.370000000000000218,-3.585230355191386220
0.371000000000000218,-3.427976034445517683
0.372000000000000219,-3.272418583719257867
0.373000000000000220,-3.118640074347330593
0.374000000000000221,-2.966719896648979393
0.375000000000000222,-2.816734708172852208
0.376000000000000223,-2.668758388449977481
0.377000000000000224,-2.522862000054833409
0.378000000000000225,-2.379113755770861705
0.379000000000000226,-2.237578991653176974
0.380000000000000226,-2.098320145779280388
0.381000000000000227,-1.961396742476392063
0.382000000000000228,-1.826865381813373990
0.383000000000000229,-1.694779734144611805
0.384000000000000230,-1.565190539493237720
0.385000000000000231,-1.438145611562141379
0.386000000000000232,-1.313689846162017671
0.387000000000000233,-1.191865233847507533
0.388000000000000234,-1.072710876554543225
0.389000000000000234,-0.956263008034495043
0.390000000000000235,-0.842555017883230617
0.391000000000000236,-0.731617478966807400
0.392000000000000237,-0.623478178048274545
0.393000000000000238,-0.518162149424317042
0.394000000000000239,-0.415691711383889106
0.395000000000000240,-0.316086505305323895
0.396000000000000241,-0.219363537212560411
0.397000000000000242,-0.125537221615556027
0.398000000000000242,-0.034619427464525121
0.399000000000000243,0.053380473947701332
0.400000000000000244,0.138455559296374237
0.401000000000000245,0.220601301904366359
0.402000000000000246,0.299815518942181947
0.403000000000000247,0.376098317294674411
0.404000000000000248,0.449452038235834572
0.405000000000000249,0.519881201048194908
0.406000000000000250,0.587392445718325051
0.407000000000000250,0.651994474834972193
0.408000000000000251,0.713697994811562597
0.409000000000000252,0.772515656549684460
0.410000000000000253,0.828461995655690564
0.411000000000000254,0.881553372317313899
0.412000000000000255,0.931807910942931139
0.413000000000000256,0.979245439661012740
0.414000000000000257,1.023887429773099544
0.415000000000000258,1.065756935248794779
0.416000000000000258,1.104878532347094877
0.417000000000000259,1.141278259443879062
0.418000000000000260,1.174983557141201063
0.419000000000000261,1.206023208729896767
0.420000000000000262,1.234427281072878024
0.421000000000000263,1.260227065972593596
0.422000000000000264,1.283455022082348851
0.423000000000000265,1.304144717417319743
0.424000000000000266,1.322330772517451347
0.425000000000000266,1.338048804311057882
0.426000000000000267,1.351335370724368934
0.427000000000000268,1.362227916078957879
0.428000000000000269,1.370764717315871906
0.429000000000000270,1.376984831082157967
0.430000000000000271,1.380928041712340626
0.431000000000000272,1.382634810134793169
0.432000000000000273,1.382146223729910472
0.433000000000000274,1.379503947164490540
0.434000000000000274,1.374750174223998034
0.435000000000000275,1.367927580662151588
0.436000000000000276,1.359079278084635911
0.437000000000000277,1.348248768881678661
0.438000000000000278,1.335479902221977655
0.439000000000000279,1.320816831118375889
0.440000000000000280,1.304303970573735594
0.441000000000000281,1.285985956813628039
0.442000000000000282,1.265907607610442742
0.443000000000000282,1.244113883702164802
0.444000000000000283,1.220649851307035627
0.445000000000000284,1.195560645734128125
0.446000000000000285,1.168891436088207669
0.447000000000000286,1.140687391065862588
0.448000000000000287,1.110993645838734611
0.449000000000000288,1.079855270018296620
0.450000000000000289,1.047317236695523901
0.451000000000000290,1.013424392547755293
0.452000000000000290,0.978221429003984122
0.453000000000000291,0.941752854458849931
0.454000000000000292,0.904062967524763672
0.455000000000000293,0.865195831310713870
0.456000000000000294,0.825195248715595797
0.457000000000000295,0.784104738723174211
0.458000000000000296,0.741967513685027003
0.459000000000000297,0.698826457577485849
0.460000000000000298,0.654724105217624364
0.461000000000000298,0.609702622423366480
0.462000000000000299,0.563803787101749054
0.463000000000000300,0.517068971249478593
0.464000000000000301,0.469539123849200934
0.465000000000000302,0.421254754644811935
0.466000000000000303,0.372255918778572115
0.467000000000000304,0.322582202272940433
0.468000000000000305,0.272272708339376668
0.469000000000000306,0.221366044496524028
0.470000000000000306,0.169900310479904337
0.471000000000000307,0.117913086925092031
0.472000000000000308,0.065441424806348847
0.473000000000000309,0.012521835612566746
0.474000000000000310,-0.040809717757543010
0.475000000000000311,-0.094517829399428474
0.476000000000000312,-0.148567658123597235
0.477000000000000313,-0.202924934511975519
0.478000000000000314,-0.257555967327447177
0.479000000000000314,-0.312427649294743148
0.480000000000000315,-0.367507462270448393
0.481000000000000316,-0.422763481819963427
0.482000000000000317,-0.478164381218987800
0.483000000000000318,-0.533679434897049276
0.484000000000000319,-0.589278521340383277
0.485000000000000320,-0.644932125471313511
0.486000000000000321,-0.700611340521102965
0.487000000000000322,-0.756287869413024283
0.488000000000000322,-0.811934025672248039
0.489000000000000323,-0.867522733878790198
0.490000000000000324,-0.923027529679762870
0.491000000000000325,-0.978422559376708412
0.492000000000000326,-1.033682579103686994
0.493000000000000327,-1.088782953611499682
0.494000000000000328,-1.143699654673182131
0.495000000000000329,-1.198409259125651216
0.496000000000000330,-1.252888946562082495
0.497000000000000330,-1.307116496689406215
0.498000000000000331,-1.361070286364977289
0.499000000000000332,-1.414729286326120050
0.500000000000000333,-1.468073057626256839
0.501000000000000334,-1.521081747790678618
0.502000000000000335,-1.573736086705016080
0.503000000000000336,-1.626017382249019594
0.504000000000000337,-1.677907515688129125
0.505000000000000338,-1.729388936834849178
0.506000000000000338,-1.780444658991805706
0.507000000000000339,-1.831058253688062631
0.508000000000000340,-1.881213845219890102
0.509000000000000341,-1.930896105007005925
0.510000000000000342,-1.980090245775004920
0.511000000000000343,-2.028782015574396969
0.512000000000000344,-2.076957691646402981
0.513000000000000345,-2.124604074145344690
0.514000000000000346,-2.171708479727368690
0.515000000000000346,-2.218258735014660310
0.516000000000000347,-2.264243169944367029
0.517000000000000348,-2.309650611010979127
0.518000000000000349,-2.354470374410739364
0.519000000000000350,-2.398692259096325330
0.520000000000000351,-2.442306539749951266
0.521000000000000352,-2.485303959682560127
0.522000000000000353,-2.527675723666703789
0.523000000000000353,-2.569413490710469539
0.524000000000000354,-2.610509366779379725
0.525000000000000355,-2.650955897473244782
0.526000000000000356,-2.690746060664431116
0.527000000000000357,-2.729873259103988481
0.528000000000000358,-2.768331313001839877
0.529000000000000359,-2.806114452586741859
0.530000000000000360,-2.843217310652009555
0.531000000000000361,-2.879634915092273761
0.532000000000000361,-2.915362681436737269
0.533000000000000362,-2.950396405383853171
0.534000000000000363,-2.984732255342476215
0.535000000000000364,-3.018366764984092843
0.536000000000000365,-3.051296825810633884
0.537000000000000366,-3.083519679742257935
0.538000000000000367,-3.115032911729163967
0.539000000000000368,-3.145834442391465924
0.540000000000000369,-3.175922520690878770
0.541000000000000369,-3.205295716637841963
0.542000000000000370,-3.233952914037538928
0.543000000000000371,-3.261893303278113443
0.544000000000000372,-3.289116374164213319
0.545000000000000373,-3.315621908798825679
0.546000000000000374,-3.341409974516294401
0.547000000000000375,-3.366480916869124762
0.548000000000000376,-3.390835352671227376
0.549000000000000377,-3.414474163099893822
0.550000000000000377,-3.437398486858914026
0.551000000000000378,-3.459609713404846243
0.552000000000000379,-3.481109476238582801
0.553000000000000380,-3.501899646264024391
0.554000000000000381,-3.521982325215677001
0.555000000000000382,-3.541359839156870581
0.556000000000000383,-3.560034732050056050
0.557000000000000384,-3.578009759400750056
0.558000000000000385,-3.595287881976348299
0.559000000000000385,-3.611872259601148105
0.560000000000000386,-3.627766245028630099
0.561000000000000387,-3.642973377892116726
0.562000000000000388,-3.657497378734697602
0.563000000000000389,-3.671342143119354695
0.564000000000000390,-3.684511735819975264
0.565000000000000391,-3.697010385094027463
0.566000000000000392,-3.708842477037483043
0.567000000000000393,-3.720012550022486320
0.568000000000000393,-3.730525289218290741
0.569000000000000394,-3.740385521195814356
0.570000000000000395,-3.749598208616163220
0.571000000000000396,-3.758168445003312819
0.572000000000000397,-3.766101449601237050
0.573000000000000398,-3.773402562315530506
0.574000000000000399,-3.780077238739596002
0.575000000000000400,-3.786131045265497708
0.576000000000000401,-3.791569654279284940
0.577000000000000401,-3.796398839440860762
0.578000000000000402,-3.800624471048110742
0.579000000000000403,-3.804252511485171961
0.580000000000000404,-3.807289010754604242
0.581000000000000405,-3.809740102093123859
0.582000000000000406,-3.811611997670651952
0.583000000000000407,-3.812910984372233081
0.584000000000000408,-3.813643419662509526
0.585000000000000409,-3.813815727532206434
0.586000000000000409,-3.813434394526251658
0.587000000000000410,-3.812505965852980516
0.588000000000000411,-3.811037041573843709
0.589000000000000412,-3.809034272873168536
0.590000000000000413,-3.806504358407233557
0.591000000000000414,-3.803454040732144215
0.592000000000000415,-3.799890102809835746
0.593000000000000416,-3.795819364591472400
0.594000000000000417,-3.791248679677648337
0.595000000000000417,-3.786184932054608598
0.596000000000000418,-3.780635032905760973
0.597000000000000419,-3.774605917497777963
0.598000000000000420,-3.768104542140448210
0.599000000000000421,-3.761137881219560164
0.600000000000000422,-3.753712924301976450
0.601000000000000423,-3.745836673312091136
0.602000000000000424,-3.737516139778870983
0.603000000000000425,-3.728758342152643568
0.604000000000000425,-3.719570303190713467
0.605000000000000426,-3.709959047411069299
0.606000000000000427,-3.699931598613232175
0.607000000000000428,-3.689494977465373804
0.608000000000000429,-3.678656199156889350
0.609000000000000430,-3.667422271115460486
0.610000000000000431,-3.655800190787795056
0.611000000000000432,-3.643796943483069928
0.612000000000000433,-3.631419500278239898
