# TiO2-rut-100_HIS: HID 0.14621171572600097 HIE 0.5848468629040039 HIP 0.2689414213699952
# h[nm],U(h)[kJ/mol]
0.200000000000000011,68.949944619789505396
0.201000000000000012,67.206919215236723630
0.202000000000000013,65.864468950855069806
0.203000000000000014,64.701632942453869646
0.204000000000000015,63.597237695244501765
0.205000000000000016,62.492324906658524242
0.206000000000000016,61.364856833095878130
0.207000000000000017,60.213105876184819465
0.208000000000000018,59.045100458962238577
0.209000000000000019,57.872221945900122364
0.210000000000000020,56.705585298058885257
0.211000000000000021,55.554234011402684246
0.212000000000000022,54.424471978610469591
0.213000000000000023,53.319867531607073374
0.214000000000000024,52.241618138954891037
0.215000000000000024,51.189073325291822414
0.216000000000000025,50.160289927190170545
0.217000000000000026,49.152546537234442781
0.218000000000000027,48.162779474275374980
0.219000000000000028,47.187925748187218744
0.220000000000000029,46.225172892065046426
0.221000000000000030,45.272123884757824896
0.222000000000000031,44.326889629775052981
0.223000000000000032,43.388122998108869410
0.224000000000000032,42.455008282896528726
0.225000000000000033,41.527218753975681409
0.226000000000000034,40.604853321061057159
0.227000000000000035,39.688361436264159465
0.228000000000000036,38.778463495738591860
0.229000000000000037,37.876072260655767820
0.230000000000000038,36.982219277157753368
0.231000000000000039,36.097988962628420495
0.232000000000000040,35.224461945585609612
0.233000000000000040,34.362668386997839320
0.234000000000000041,33.513551351066176665
0.235000000000000042,32.677939808225481499
0.236000000000000043,31.856530515687552452
0.237000000000000044,31.049877805292187105
0.238000000000000045,30.258390190628311700
0.239000000000000046,29.482332663744728052
0.240000000000000047,28.721833567503299633
0.241000000000000048,27.976894986809355714
0.242000000000000048,27.247405687374094185
0.243000000000000049,26.533155733613412508
0.244000000000000050,25.833852029295460540
0.245000000000000051,25.149134139070625338
0.246000000000000052,24.478589861175787945
0.247000000000000053,23.821770127888797219
0.248000000000000054,23.178202908349156530
0.249000000000000055,22.547405876691726689
0.250000000000000056,21.928897686314023474
0.251000000000000056,21.322207758316970683
0.252000000000000057,20.726884548936347130
0.253000000000000058,20.142502307628149083
0.254000000000000059,19.568666375092828247
0.255000000000000060,19.005017099759587751
0.256000000000000061,18.451232473002161072
0.257000000000000062,17.907029598546152727
0.258000000000000063,17.372165121063702031
0.259000000000000064,16.846434743704357118
0.260000000000000064,16.329671965097585229
0.261000000000000065,15.821746163931242890
0.262000000000000066,15.322560154235587149
0.263000000000000067,14.832047327588391283
0.264000000000000068,14.350168490126295140
0.265000000000000069,13.876908492956951946
0.266000000000000070,13.412272744701061455
0.267000000000000071,12.956283684775321774
0.268000000000000071,12.508977285922252776
0.269000000000000072,12.070399644613061696
0.270000000000000073,11.640603708462059274
0.271000000000000074,11.219646180822396175
0.272000000000000075,10.807584634372933152
0.273000000000000076,10.404474857818156508
0.274000000000000077,10.010368452840619824
0.275000000000000078,9.625310692185852446
0.276000000000000079,9.249338644219420758
0.277000000000000079,8.882479564458579446
0.278000000000000080,8.524749550422518141
0.279000000000000081,8.176152452627139411
0.280000000000000082,7.836679031636004211
0.281000000000000083,7.506306348720524824
0.282000000000000084,7.184997375835598277
0.283000000000000085,6.872700809232034302
0.284000000000000086,6.569351070056649533
0.285000000000000087,6.274868474689345277
0.286000000000000087,5.989159557286376945
0.287000000000000088,5.712117526998970796
0.288000000000000089,5.443622842575090104
0.289000000000000090,5.183543887491101287
0.290000000000000091,4.931737729365961442
0.291000000000000092,4.688050948148815955
0.292000000000000093,4.452320518415280759
0.293000000000000094,4.224374732030098833
0.294000000000000095,4.004034148412315197
0.295000000000000095,3.791112560652066144
0.296000000000000096,3.585417966759365083
0.297000000000000097,3.386753536357309358
0.298000000000000098,3.194918564154097140
0.299000000000000099,3.009709402526850486
0.300000000000000100,2.830920366518532738
0.301000000000000101,2.658344605477799938
0.302000000000000102,2.491774936456552680
0.303000000000000103,2.331004635314751106
0.304000000000000103,2.175828182265925115
0.305000000000000104,2.026041959325198594
0.306000000000000105,1.881444897795273352
0.307000000000000106,1.741839074543504395
0.308000000000000107,1.607030256385210354
0.309000000000000108,1.476828392396250411
0.310000000000000109,1.351048054432226753
0.311000000000000110,1.229508826535534283
0.312000000000000111,1.112035644265217282
0.313000000000000111,0.998459085292741189
0.314000000000000112,0.888615612869992133
0.315000000000000113,0.782347773998049556
0.316000000000000114,0.679504354308679392
0.317000000000000115,0.579940491818215609
0.318000000000000116,0.483517751828039355
0.319000000000000117,0.390104165330267982
0.320000000000000118,0.299574233334183981
0.321000000000000119,0.211808899560723518
0.322000000000000119,0.126695493962086847
0.323000000000000120,0.044127649513330425
0.324000000000000121,-0.035994805305392841
0.325000000000000122,-0.113765975960283872
0.326000000000000123,-0.189274050930096693
0.327000000000000124,-0.262601468136192118
0.328000000000000125,-0.333825096563288182
0.329000000000000126,-0.403016430983201168
0.330000000000000127,-0.470241797786064786
0.331000000000000127,-0.535562570020548190
0.332000000000000128,-0.599035389845399613
0.333000000000000129,-0.660712396698159177
0.334000000000000130,-0.720641459591714661
0.335000000000000131,-0.778866412055302382
0.336000000000000132,-0.835427288341547114
0.337000000000000133,-0.890360559626020454
0.338000000000000134,-0.943699369028511592
0.339000000000000135,-0.995473764385976900
0.340000000000000135,-1.045710927805498569
0.341000000000000136,-1.094435401120608109
0.342000000000000137,-1.141669306466325251
0.343000000000000138,-1.187432561276385412
0.344000000000000139,-1.231743087090774846
0.345000000000000140,-1.274617011641975939
0.346000000000000141,-1.316068863764799479
0.347000000000000142,-1.356111760746768535
0.348000000000000143,-1.394757587804163146
0.349000000000000143,-1.432017169432386217
0.350000000000000144,-1.467900432439073199
0.351000000000000145,-1.502416560523597733
0.352000000000000146,-1.535574140318149317
0.353000000000000147,-1.567381298852756455
0.354000000000000148,-1.597845832450234038
0.355000000000000149,-1.626975327096680912
0.356000000000000150,-1.654777270369282460
0.357000000000000151,-1.681259155035782493
0.358000000000000151,-1.706428574469250892
0.359000000000000152,-1.730293310047847255
0.360000000000000153,-1.752861410732423408
0.361000000000000154,-1.774141265034822501
0.362000000000000155,-1.794141665607392522
0.363000000000000156,-1.812871866699015344
0.364000000000000157,-1.830341634735454637
0.365000000000000158,-1.846561292292305811
0.366000000000000159,-1.861541755736668025
0.367000000000000159,-1.875294566820241871
0.368000000000000160,-1.887831918510783247
0.369000000000000161,-1.899166675351692479
0.370000000000000162,-1.909312388640814095
0.371000000000000163,-1.918283306719374748
0.372000000000000164,-1.926094380660532179
0.373000000000000165,-1.932761265644593607
0.374000000000000166,-1.938300318304322367
0.375000000000000167,-1.942728590319149351
0.376000000000000167,-1.946063818532029366
0.377000000000000168,-1.948324411856407146
0.378000000000000169,-1.949529435234156782
0.379000000000000170,-1.949698590898186756
0.380000000000000171,-1.948852197185608537
0.381000000000000172,-1.947011165139308941
0.382000000000000173,-1.944196973127335193
0.383000000000000174,-1.940431639700884281
0.384000000000000175,-1.935737694902693207
0.385000000000000175,-1.930138150228658311
0.386000000000000176,-1.923656467436474893
0.387000000000000177,-1.916316526385691166
0.388000000000000178,-1.908142592084704603
0.389000000000000179,-1.899159281110771369
0.390000000000000180,-1.889391527560271511
0.391000000000000181,-1.878864548677361412
0.392000000000000182,-1.867603810300339173
0.393000000000000183,-1.855634992256332216
0.394000000000000183,-1.842983953826420995
0.395000000000000184,-1.829676699394982231
0.396000000000000185,-1.815739344388848764
0.397000000000000186,-1.801198081604077572
0.398000000000000187,-1.786079148010416784
0.399000000000000188,-1.770408792116131336
0.400000000000000189,-1.754213241968693104
0.401000000000000190,-1.737518673859978158
0.402000000000000191,-1.720351181797968421
0.403000000000000191,-1.702736747800497774
0.404000000000000192,-1.684701213060678882
0.405000000000000193,-1.666270250027596989
0.406000000000000194,-1.647469335440499894
0.407000000000000195,-1.628323724349314938
0.408000000000000196,-1.608858425149323867
0.409000000000000197,-1.589098175653094858
0.410000000000000198,-1.569067420218315911
0.411000000000000199,-1.548790287945775113
0.412000000000000199,-1.528290571957974686
0.413000000000000200,-1.507591709764900090
0.414000000000000201,-1.486716764720139805
0.415000000000000202,-1.465688408567088263
0.416000000000000203,-1.444528905072120395
0.417000000000000204,-1.423260094738578285
0.418000000000000205,-1.401903380592962600
0.419000000000000206,-1.380479715032210342
0.420000000000000207,-1.359009587718651879
0.421000000000000207,-1.337513014507437425
0.422000000000000208,-1.316009527388989797
0.423000000000000209,-1.294518165427776202
0.424000000000000210,-1.273057466676820404
0.425000000000000211,-1.251645461046193564
0.426000000000000212,-1.230299664102522783
0.427000000000000213,-1.209037071775322936
0.428000000000000214,-1.187874155945260801
0.429000000000000214,-1.166826860888417139
0.430000000000000215,-1.145910600550087199
0.431000000000000216,-1.125140256621066204
0.432000000000000217,-1.104530177388818979
0.433000000000000218,-1.084094177335656495
0.434000000000000219,-1.063845537455776258
0.435000000000000220,-1.043797006262818350
0.436000000000000221,-1.023960801459476544
0.437000000000000222,-1.004348612240759886
0.438000000000000222,-0.984971602202494356
0.439000000000000223,-0.965840412826846739
0.440000000000000224,-0.946965167516751971
0.441000000000000225,-0.928355476151439540
0.442000000000000226,-0.910020440135594688
0.443000000000000227,-0.891968657914858687
0.444000000000000228,-0.874208230931024510
0.445000000000000229,-0.856746769990467283
0.446000000000000230,-0.839591402019968625
0.447000000000000230,-0.822748777184555524
0.448000000000000231,-0.806225076342490743
0.449000000000000232,-0.790026018813075659
0.450000000000000233,-0.774156870433610922
0.451000000000000234,-0.758622451882307036
0.452000000000000235,-0.743427147244696496
0.453000000000000236,-0.728574912801567387
0.454000000000000237,-0.714069286017283145
0.455000000000000238,-0.699913394707755043
0.456000000000000238,-0.686109966368212754
0.457000000000000239,-0.672661337641418222
0.458000000000000240,-0.659569463907738185
0.459000000000000241,-0.646835928979038299
0.460000000000000242,-0.634461954879196099
0.461000000000000243,-0.622448411694470516
0.462000000000000244,-0.610795827477877751
0.463000000000000245,-0.599504398192068466
0.464000000000000246,-0.588573997676212324
0.465000000000000246,-0.578004187622697230
0.466000000000000247,-0.567794227550309727
0.467000000000000248,-0.557943084761073571
0.468000000000000249,-0.548449444268600872
0.469000000000000250,-0.539311718686368846
0.470000000000000251,-0.530528058064951624
0.471000000000000252,-0.522096359667780896
0.472000000000000253,-0.514014277675706510
0.473000000000000254,-0.506279232810947222
0.474000000000000254,-0.498888421871829524
0.475000000000000255,-0.491838827170043291
0.476000000000000256,-0.485127225862768297
0.477000000000000257,-0.478750199172489566
0.478000000000000258,-0.472704141487807594
0.479000000000000259,-0.466985269339029285
0.480000000000000260,-0.461589630242806248
0.481000000000000261,-0.456513111410471961
0.482000000000000262,-0.451751448315245441
0.483000000000000262,-0.447300233113828272
0.484000000000000263,-0.443154922918309213
0.485000000000000264,-0.439310847914754832
0.486000000000000265,-0.435763219325175089
0.487000000000000266,-0.432507137209909909
0.488000000000000267,-0.429537598107875396
0.489000000000000268,-0.426849502512426593
0.490000000000000269,-0.424437662180857322
0.491000000000000270,-0.422296807275970576
0.492000000000000270,-0.420421593338319410
0.493000000000000271,-0.418806608088131915
0.494000000000000272,-0.417446378056066880
0.495000000000000273,-0.416335375042325817
0.496000000000000274,-0.415468022403795378
0.497000000000000275,-0.414838701169160828
0.498000000000000276,-0.414441755982199345
0.499000000000000277,-0.414271500873557408
0.500000000000000222,-0.414322224861628396
0.501000000000000334,-0.414588197383263302
0.502000000000000224,-0.415063673555253088
0.503000000000000336,-0.415742899267669830
0.504000000000000226,-0.416620116110332117
0.505000000000000338,-0.417689566133776724
0.506000000000000227,-0.418945496446293253
0.507000000000000339,-0.420382163648673368
0.508000000000000229,-0.421993838108448149
0.509000000000000341,-0.423774808075533804
0.510000000000000231,-0.425719383641282034
0.511000000000000343,-0.427821900543004729
0.512000000000000233,-0.430076723816168349
0.513000000000000345,-0.432478251296534721
0.514000000000000234,-0.435020916974580896
0.515000000000000346,-0.437699194204568653
0.516000000000000236,-0.440507598770765729
0.517000000000000348,-0.443440691813333898
0.518000000000000238,-0.446493082616417514
0.519000000000000350,-0.449659431261091314
0.520000000000000240,-0.452934451145745931
0.521000000000000352,-0.456312911376688002
0.522000000000000242,-0.459789639031531805
0.523000000000000353,-0.463359521298254473
0.524000000000000243,-0.467017507492511197
0.525000000000000355,-0.470758610956111545
0.526000000000000245,-0.474577910839306172
0.527000000000000357,-0.478470553769742346
0.528000000000000247,-0.482431755410812402
0.529000000000000359,-0.486456801912193093
0.530000000000000249,-0.490541051255339255
0.531000000000000361,-0.494679934496699281
0.532000000000000250,-0.498868956911373618
0.533000000000000362,-0.503103699040020280
0.534000000000000252,-0.507379817641605668
0.535000000000000364,-0.511693046554869357
0.536000000000000254,-0.516039197471015232
0.537000000000000366,-0.520414160620398247
0.538000000000000256,-0.524813905375790979
0.539000000000000368,-0.529234480774845917
0.540000000000000258,-0.533672015964319901
0.541000000000000369,-0.538122720568627200
0.542000000000000259,-0.542582884985193581
0.543000000000000371,-0.547048880609142474
0.544000000000000261,-0.551517159989707406
0.545000000000000373,-0.555984256920828979
0.546000000000000263,-0.560446786468256297
0.547000000000000375,-0.564901444935534625
0.548000000000000265,-0.569345009771150545
0.549000000000000377,-0.573774339419095392
0.550000000000000266,-0.578186373115063712
0.551000000000000378,-0.582578130630476032
0.552000000000000268,-0.586946711966433110
0.553000000000000380,-0.591289296999733538
0.554000000000000270,-0.595603145082976182
0.555000000000000382,-0.599885594600767513
0.556000000000000272,-0.604134062484025125
0.557000000000000384,-0.608346043684243165
0.558000000000000274,-0.612519110609695439
0.559000000000000385,-0.616650912525315453
0.560000000000000275,-0.620739174918134462
0.561000000000000387,-0.624781698829996790
0.562000000000000277,-0.628776360159245096
0.563000000000000389,-0.632721108933114396
0.564000000000000279,-0.636613968552386278
0.565000000000000391,-0.640453035009958649
0.566000000000000281,-0.644236476084819043
0.567000000000000393,-0.647962530512984691
0.568000000000000282,-0.651629507136826769
0.569000000000000394,-0.655235784034239210
0.570000000000000284,-0.658779807628989023
0.571000000000000396,-0.662260091783666183
0.572000000000000286,-0.665675216876475018
0.573000000000000398,-0.669023828863150927
0.574000000000000288,-0.672304638325241677
0.575000000000000400,-0.675516419505961641
0.576000000000000290,-0.678658009334710211
0.577000000000000401,-0.681728306441458209
0.578000000000000291,-0.684726270162004824
0.579000000000000403,-0.687650919535208405
0.580000000000000293,-0.690501332293161130
0.581000000000000405,-0.693276643845326168
0.582000000000000295,-0.695976046257531067
0.583000000000000407,-0.698598787226786588
0.584000000000000297,-0.701144169052731137
0.585000000000000409,-0.703611547606644905
0.586000000000000298,-0.706000331298742512
0.587000000000000410,-0.708309980044626863
0.588000000000000300,-0.710540004231570932
0.589000000000000412,-0.712689963685421812
0.590000000000000302,-0.714759466638761887
0.591000000000000414,-0.716748168701065169
0.592000000000000304,-0.718655771831412826
0.593000000000000416,-0.720482023314423792
0.594000000000000306,-0.722226714739992670
0.595000000000000417,-0.723889680987374495
0.596000000000000307,-0.725470799214145479
0.597000000000000419,-0.726969987850585087
0.598000000000000309,-0.728387205599947518
0.599000000000000421,-0.729722450445056348
0.600000000000000311,-0.730975758661728814
0.601000000000000423,-0.732147203839394800
0.602000000000000313,-0.733236895909323838
0.603000000000000425,-0.734244980180847273
0.604000000000000314,-0.735171636385925198
0.605000000000000426,-0.736017077732384561
0.606000000000000316,-0.736781549966165294
0.607000000000000428,-0.737465330442849565
0.608000000000000318,-0.738068727208788244
0.609000000000000430,-0.738592078092047633
0.610000000000000320,-0.739035749803449549
0.611000000000000432,-0.739400137047928840
0.612000000000000322,-0.739685661646412140
0.613000000000000433,-0.739892771668421712
0.614000000000000323,-0.740021940575596004
0.615000000000000435,-0.740073666376282580
0.616000000000000325,-0.740048470791342394
0.617000000000000437,-0.739946898431350863
0.618000000000000327,-0.739769515985281290
0.619000000000000439,-0.739516911420787904
0.620000000000000329,-0.739189693196217967
0.621000000000000441,-0.738788489484419442
0.622000000000000330,-0.738313947408418159
0.623000000000000442,-0.737766732289062865
0.624000000000000332,-0.737147526904645578
0.625000000000000444,-0.736457030762599385
0.626000000000000334,-0.735695959383263709
0.627000000000000446,-0.734865043595769318
0.628000000000000336,-0.733965028846052081
0.629000000000000448,-0.732996674517014779
0.630000000000000338,-0.731960753260810115
0.631000000000000449,-0.730858050343282883
0.632000000000000339,-0.729689363000504909
0.633000000000000451,-0.728455499807422968
0.634000000000000341,-0.727157280058553068
0.635000000000000453,-0.725795533160734418
0.636000000000000343,-0.724371098037827732
0.637000000000000455,-0.722884822547386396
0.638000000000000345,-0.721337562909189378
0.639000000000000457,-0.719730183145593561
0.640000000000000346,-0.718063554533652337
0.641000000000000458,-0.716338555068902982
0.642000000000000348,-0.714556068940773281
0.643000000000000460,-0.712716986019502841
0.644000000000000350,-0.710822201354513461
0.645000000000000462,-0.708872614684126656
0.646000000000000352,-0.706869129956539721
0.647000000000000464,-0.704812654861961319
0.648000000000000353,-0.702704100375822316
0.649000000000000465,-0.700544380312918324
0.650000000000000355,-0.698334410892433755
0.651000000000000467,-0.696075110313675749
0.652000000000000357,-0.693767398342476138
0.653000000000000469,-0.691412195908063132
0.654000000000000359,-0.689010424710379321
0.655000000000000471,-0.686563006837637158
0.656000000000000361,-0.684070864394063283
0.657000000000000473,-0.681534919137656625
0.658000000000000362,-0.678956092127875332
0.659000000000000474,-0.676335303383094999
0.660000000000000364,-0.673673471547735714
0.661000000000000476,-0.670971513568909605
0.662000000000000366,-0.668230344382474306
