# TiO2-rut-100_GLUPSCA-AC
# h[nm],U(h)[kJ/mol]
0.200000000000000011,54.835715092818801963
0.201000000000000012,53.419277763380499380
0.202000000000000013,52.390770508591380406
0.203000000000000014,51.531791016791167692
0.204000000000000015,50.722463736726922434
0.205000000000000016,49.904501505012390794
0.206000000000000016,49.056275699277613001
0.207000000000000017,48.176399226303011858
0.208000000000000018,47.273260747829041861
0.209000000000000019,46.358649034976465941
0.210000000000000020,45.444128742266016729
0.211000000000000021,44.539216031518016337
0.212000000000000022,43.650687308712399215
0.213000000000000023,42.782562149074450986
0.214000000000000024,41.936451618624388971
0.215000000000000024,41.112070397285556567
0.216000000000000025,40.307786563821565551
0.217000000000000026,39.521135079309857474
0.218000000000000027,38.749256270014591053
0.219000000000000028,37.989243724935683133
0.220000000000000029,37.238400527793018568
0.221000000000000030,36.494411249195692903
0.222000000000000031,35.755441541983614684
0.223000000000000032,35.020178893310287549
0.224000000000000032,34.287828078632308859
0.225000000000000033,33.558073830218589251
0.226000000000000034,32.831021655235765877
0.227000000000000035,32.107125937687705175
0.228000000000000036,31.387112642742614810
0.229000000000000037,30.671902238780369032
0.230000000000000038,29.962536932906250087
0.231000000000000039,29.260115012225838882
0.232000000000000040,28.565734002866740582
0.233000000000000040,27.880443492431385977
0.234000000000000041,27.205207790646550592
0.235000000000000042,26.540878103942894484
0.236000000000000043,25.888173547312714362
0.237000000000000044,25.247670086124891498
0.238000000000000045,24.619796368258921149
0.239000000000000046,24.004835351881645522
0.240000000000000047,23.402930637972517047
0.241000000000000048,22.814096463548764859
0.242000000000000048,22.238230388296422291
0.243000000000000049,21.675127803236964752
0.244000000000000050,21.124497496587686385
0.245000000000000051,20.585977622430565503
0.246000000000000052,20.059151527156053874
0.247000000000000053,19.543562993215523704
0.248000000000000054,19.038730556961603213
0.249000000000000055,18.544160645649263586
0.250000000000000056,18.059359357112032995
0.251000000000000056,17.583842773878977539
0.252000000000000057,17.117145761648153268
0.253000000000000058,16.658829250481087314
0.254000000000000059,16.208486036446494438
0.255000000000000060,15.765745172479523006
0.256000000000000061,15.330275040771843109
0.257000000000000062,14.901785215942529916
0.258000000000000063,14.480027239428329366
0.259000000000000064,14.064794431818512521
0.260000000000000064,13.655920872038858960
0.261000000000000065,13.253279671099340575
0.262000000000000066,12.856780664228926625
0.263000000000000067,12.466367639232235121
0.264000000000000068,12.082015211343200889
0.265000000000000069,11.703725446183179670
0.266000000000000070,11.331524323049602998
0.267000000000000071,10.965458120999148406
0.268000000000000071,10.605589800324089822
0.269000000000000072,10.251995442276049531
0.270000000000000073,9.904760800448190849
0.271000000000000074,9.563978008222900229
0.272000000000000075,9.229742478230196667
0.273000000000000076,8.902150021916032330
0.274000000000000077,8.581294210134515765
0.275000000000000078,8.267263989179964412
0.276000000000000079,7.960141560869826272
0.277000000000000079,7.660000530169196686
0.278000000000000080,7.366904319394760314
0.279000000000000081,7.080904844218831151
0.280000000000000082,6.802041443480393745
0.281000000000000083,6.530340052157899144
0.282000000000000084,6.265812604725772061
0.283000000000000085,6.008456654458290913
0.284000000000000086,5.758255193014541362
0.285000000000000087,5.515176653793115946
0.286000000000000087,5.279175082039239797
0.287000000000000088,5.050190454479336566
0.288000000000000089,4.828149131307833741
0.289000000000000090,4.612964423620253385
0.290000000000000091,4.404537259841371011
0.291000000000000092,4.202756935303057162
0.292000000000000093,4.007501929856175593
0.293000000000000094,3.818640779225597637
0.294000000000000095,3.636032986714595516
0.295000000000000095,3.459529962811878079
0.296000000000000096,3.288975981233678958
0.297000000000000097,3.124209140926986983
0.298000000000000098,2.965062324554930573
0.299000000000000099,2.811364144968569345
0.300000000000000100,2.662939872131405039
0.301000000000000101,2.519612333894598155
0.302000000000000102,2.381202784916228943
0.303000000000000103,2.247531738870253815
0.304000000000000103,2.118419759897655741
0.305000000000000104,1.993688210008888406
0.306000000000000105,1.873159949852425399
0.307000000000000106,1.756659990917380343
0.308000000000000107,1.644016097838237211
0.309000000000000108,1.535059340017657759
0.310000000000000109,1.429624592279000073
0.311000000000000110,1.327550984706264092
0.312000000000000111,1.228682302225440948
0.313000000000000111,1.132867334831881179
0.314000000000000112,1.039960179673482532
0.315000000000000113,0.949820496463029684
0.316000000000000114,0.862313717916575073
0.317000000000000115,0.777311217101401830
0.318000000000000116,0.694690433729080126
0.319000000000000117,0.614334961549356962
0.320000000000000118,0.536134599091510067
0.321000000000000119,0.459985366063820844
0.322000000000000119,0.385789487761792005
0.323000000000000120,0.313455349853740906
0.324000000000000121,0.242897425910612974
0.325000000000000122,0.174036180028023957
0.326000000000000123,0.106797946854157694
0.327000000000000124,0.041114791289481679
0.328000000000000125,-0.023075649935101472
0.329000000000000126,-0.085830342663870504
0.330000000000000127,-0.147201043645330210
0.331000000000000127,-0.207234500808252203
0.332000000000000128,-0.265972663597712766
0.333000000000000129,-0.323452901577793273
0.334000000000000130,-0.379708229604079461
0.335000000000000131,-0.434767537968023088
0.336000000000000132,-0.488655826014688432
0.337000000000000133,-0.541394437835729270
0.338000000000000134,-0.593001298739031957
0.339000000000000135,-0.643491151294880992
0.340000000000000135,-0.692875789855713076
0.341000000000000136,-0.741164292541141134
0.342000000000000137,-0.788363249772359942
0.343000000000000138,-0.834476988529411101
0.344000000000000139,-0.879507791591161436
0.345000000000000140,-0.923456111100625088
0.346000000000000141,-0.966320775877627214
0.347000000000000142,-1.008099191976310038
0.348000000000000143,-1.048787536056843717
0.349000000000000143,-1.088380941208443087
0.350000000000000144,-1.126873674924860014
0.351000000000000145,-1.164259308993447650
0.352000000000000146,-1.200530881115150050
0.353000000000000147,-1.235681048124968928
0.354000000000000148,-1.269702230731063031
0.355000000000000149,-1.302586749735421767
0.356000000000000150,-1.334326953740319288
0.357000000000000151,-1.364915338382469479
0.358000000000000151,-1.394344657171239898
0.359000000000000152,-1.422608024038350738
0.360000000000000153,-1.449699007734670309
0.361000000000000154,-1.475611718234585812
0.362000000000000155,-1.500340885330901708
0.363000000000000156,-1.523881929622640241
0.364000000000000157,-1.546231026115167495
0.365000000000000158,-1.567385160666877386
0.366000000000000159,-1.587342179528768771
0.367000000000000159,-1.606100832233847031
0.368000000000000160,-1.623660808101385244
0.369000000000000161,-1.640022766627672990
0.370000000000000162,-1.655188362039637040
0.371000000000000163,-1.669160262290952046
0.372000000000000164,-1.681942162781982164
0.373000000000000165,-1.693538795085386628
0.374000000000000166,-1.703955930958471088
0.375000000000000167,-1.713200381921321735
0.376000000000000167,-1.721279994677140213
0.377000000000000168,-1.728203642647201166
0.378000000000000169,-1.733981213888359907
0.379000000000000170,-1.738623595655763410
0.380000000000000171,-1.742142655867448653
0.381000000000000172,-1.744551221721040379
0.382000000000000173,-1.745863055705809241
0.383000000000000174,-1.746092829246039813
0.384000000000000175,-1.745256094203875064
0.385000000000000175,-1.743369252461870023
0.386000000000000176,-1.740449523797348075
0.387000000000000177,-1.736514912252112408
0.388000000000000178,-1.731584171192815491
0.389000000000000179,-1.725676767248456756
0.390000000000000180,-1.718812843303099580
0.391000000000000181,-1.711013180713142789
0.392000000000000182,-1.702299160909982900
0.393000000000000183,-1.692692726540367953
0.394000000000000183,-1.682216342288332500
0.395000000000000184,-1.670892955514339917
0.396000000000000185,-1.658745956839030145
0.397000000000000186,-1.645799140791032400
0.398000000000000187,-1.632076666630478456
0.399000000000000188,-1.617603019452162894
0.400000000000000189,-1.602402971664925957
0.401000000000000190,-1.586501544936582686
0.402000000000000191,-1.569923972686775304
0.403000000000000191,-1.552695663203274012
0.404000000000000192,-1.534842163450845787
0.405000000000000193,-1.516389123635404790
0.406000000000000194,-1.497362262580215653
0.407000000000000195,-1.477787333965072447
0.408000000000000196,-1.457690093473820392
0.409000000000000197,-1.437096266890308005
0.410000000000000198,-1.416031519177826770
0.411000000000000199,-1.394521424572177981
0.412000000000000199,-1.372591437714055340
0.413000000000000200,-1.350266865842001174
0.414000000000000201,-1.327572842063164060
0.415000000000000202,-1.304534299715103707
0.416000000000000203,-1.281175947828392836
0.417000000000000204,-1.257522247696145623
0.418000000000000205,-1.233597390553552664
0.419000000000000206,-1.209425276367401603
0.420000000000000207,-1.185029493732694394
0.421000000000000207,-1.160433300871062334
0.422000000000000208,-1.135659607722933284
0.423000000000000209,-1.110730959123508832
0.424000000000000210,-1.085669519050253662
0.425000000000000211,-1.060497055927827503
0.426000000000000212,-1.035234928974679169
0.427000000000000213,-1.009904075573796245
0.428000000000000214,-0.984524999648848542
0.429000000000000214,-0.959117761025487625
0.430000000000000215,-0.933701965756528862
0.431000000000000216,-0.908296757388689868
0.432000000000000217,-0.882920809147578978
0.433000000000000218,-0.857592317016903971
0.434000000000000219,-0.832328993687187380
0.435000000000000220,-0.807148063348666178
0.436000000000000221,-0.782066257302574730
0.437000000000000222,-0.757099810364638026
0.438000000000000222,-0.732264458034312615
0.439000000000000223,-0.707575434403076908
0.440000000000000224,-0.683047470774927667
0.441000000000000225,-0.658694794972162656
0.442000000000000226,-0.634531131299620355
0.443000000000000227,-0.610569701140424526
0.444000000000000228,-0.586823224156614920
0.445000000000000229,-0.563303920068042197
0.446000000000000230,-0.540023510983227761
0.447000000000000230,-0.516993224256139361
0.448000000000000231,-0.494223795843121760
0.449000000000000232,-0.471725474134553013
0.450000000000000233,-0.449508024236290549
0.451000000000000234,-0.427580732676201614
0.452000000000000235,-0.405952412511718042
0.453000000000000236,-0.384631408814629150
0.454000000000000237,-0.363625604510019351
0.455000000000000238,-0.342942426546555545
0.456000000000000238,-0.322588852376059831
0.457000000000000239,-0.302571416720675945
0.458000000000000240,-0.282896218606645045
0.459000000000000241,-0.263568928644107525
0.460000000000000242,-0.244594796533126685
0.461000000000000243,-0.225978658776489594
0.462000000000000244,-0.207724946580651659
0.463000000000000245,-0.189837693926539597
0.464000000000000246,-0.172320545792789936
0.465000000000000246,-0.155176766514352776
0.466000000000000247,-0.138409248260134843
0.467000000000000248,-0.122020519613866438
0.468000000000000249,-0.106012754243030430
0.469000000000000250,-0.090387779641201330
0.470000000000000251,-0.075147085929780394
0.471000000000000252,-0.060291834705621286
0.472000000000000253,-0.045822867921715880
0.473000000000000254,-0.031740716788502280
0.474000000000000254,-0.018045610684067535
0.475000000000000255,-0.004737486061942886
0.476000000000000256,0.008184004654221377
0.477000000000000257,0.020719484199310821
0.478000000000000258,0.032869841628448151
0.479000000000000259,0.044636223520934770
0.480000000000000260,0.056020025235140956
0.481000000000000261,0.067022882222618790
0.482000000000000262,0.077646661409171605
0.483000000000000262,0.087893452650231380
0.484000000000000263,0.097765560267434520
0.485000000000000264,0.107265494672829975
0.486000000000000265,0.116395964086769110
0.487000000000000266,0.125159866355129934
0.488000000000000267,0.133560280871103942
0.489000000000000268,0.141600460606398748
0.490000000000000269,0.149283824256400549
0.491000000000000270,0.156613948503378925
0.492000000000000270,0.163594560401599060
0.493000000000000271,0.170229529887750280
0.494000000000000272,0.176522862419889237
0.495000000000000273,0.182478691747719579
0.496000000000000274,0.188101272816744991
0.497000000000000275,0.193394974808599573
0.498000000000000276,0.198364274319487888
0.499000000000000277,0.203013748678517125
0.500000000000000222,0.207348069407364527
0.501000000000000334,0.211371995822534547
0.502000000000000224,0.215090368781194391
0.503000000000000336,0.218508104571401685
0.504000000000000226,0.221630188947269074
0.505000000000000338,0.224461671309480304
0.506000000000000227,0.227007659031298825
0.507000000000000339,0.229273311930124069
0.508000000000000229,0.231263836884394614
0.509000000000000341,0.232984482595529341
0.510000000000000231,0.234440534494397473
0.511000000000000343,0.235637309791723759
0.512000000000000233,0.236580152671640398
0.513000000000000345,0.237274429627492511
0.514000000000000234,0.237725524938857291
0.515000000000000346,0.237938836288696637
0.516000000000000236,0.237919770519346180
0.517000000000000348,0.237673739526017336
0.518000000000000238,0.237206156286388692
0.519000000000000350,0.236522431024739410
0.520000000000000240,0.235627967509051572
0.521000000000000352,0.234528159479345272
0.522000000000000242,0.233228387205576204
0.523000000000000353,0.231734014173190783
0.524000000000000243,0.230050383894558091
0.525000000000000355,0.228182816844269276
0.526000000000000245,0.226136607516399579
0.527000000000000357,0.223917021601665628
0.528000000000000247,0.221529293282454104
0.529000000000000359,0.218978622643619281
0.530000000000000249,0.216270173196924681
0.531000000000000361,0.213409069516986960
0.532000000000000250,0.210400394986562045
0.533000000000000362,0.207249189648952281
0.534000000000000252,0.203960448165398656
0.535000000000000364,0.200539117875140616
0.536000000000000254,0.196990096956028538
0.537000000000000366,0.193318232683380720
0.538000000000000256,0.189528319784889016
0.539000000000000368,0.185625098889325629
0.540000000000000258,0.181613255066833512
0.541000000000000369,0.177497416458553048
0.542000000000000259,0.173282152993400773
0.543000000000000371,0.168971975189747659
0.544000000000000261,0.164571333039840395
0.545000000000000373,0.160084614974742606
0.546000000000000263,0.155516146907669073
0.547000000000000375,0.150870191353512123
0.548000000000000265,0.146150946622466693
0.549000000000000377,0.141362546085609636
0.550000000000000266,0.136509057510364545
0.551000000000000378,0.131594482463749191
0.552000000000000268,0.126622755781399282
0.553000000000000380,0.121597745100299900
0.554000000000000270,0.116523250453265018
0.555000000000000382,0.111403003923171443
0.556000000000000272,0.106240669355008283
0.557000000000000384,0.101039842123845022
0.558000000000000274,0.095804048956793272
0.559000000000000385,0.090536747807149709
0.560000000000000275,0.085241327778863035
0.561000000000000387,0.079921109099531623
0.562000000000000277,0.074579343140200621
0.563000000000000389,0.069219212480163869
0.564000000000000279,0.063843831015134134
0.565000000000000391,0.058456244107054564
0.566000000000000281,0.053059428773972531
0.567000000000000393,0.047656293918306558
0.568000000000000282,0.042249680591991065
0.569000000000000394,0.036842362296910770
0.570000000000000284,0.031437045319177223
0.571000000000000396,0.026036369095692246
0.572000000000000286,0.020642906611626301
0.573000000000000398,0.015259164827373762
0.574000000000000288,0.009887585133611676
0.575000000000000400,0.004530543833092216
0.576000000000000290,-0.000809647352078269
0.577000000000000401,-0.006130740749044961
0.578000000000000291,-0.011430552179858267
0.579000000000000403,-0.016706960385455150
0.580000000000000293,-0.021957906429111652
0.581000000000000405,-0.027181393080568939
0.582000000000000295,-0.032375484181894308
0.583000000000000407,-0.037538303996248204
0.584000000000000297,-0.042668036540535900
0.585000000000000409,-0.047762924903075696
0.586000000000000298,-0.052821270547184385
0.587000000000000410,-0.057841432601764185
0.588000000000000300,-0.062821827139738828
0.589000000000000412,-0.067760926445342068
0.590000000000000302,-0.072657258271081826
0.591000000000000414,-0.077509405085321295
0.592000000000000304,-0.082316003311230526
0.593000000000000416,-0.087075742557985183
0.594000000000000306,-0.091787364844975711
0.595000000000000417,-0.096449663819787854
0.596000000000000307,-0.101061483970672134
0.597000000000000419,-0.105621719834258498
0.598000000000000309,-0.110129315199163580
0.599000000000000421,-0.114583262306149652
0.600000000000000311,-0.118982601045514572
0.601000000000000423,-0.123326418152295531
0.602000000000000313,-0.127613846399879660
0.603000000000000425,-0.131844063792622673
0.604000000000000314,-0.136016292757994817
0.605000000000000426,-0.140129799338809202
0.606000000000000316,-0.144183892386018114
0.607000000000000428,-0.148177922752587732
0.608000000000000318,-0.152111282488914784
0.609000000000000430,-0.155983404040228729
0.610000000000000320,-0.159793759446412942
0.611000000000000432,-0.163541859544677648
0.612000000000000322,-0.167227253175439905
0.613000000000000433,-0.170849526391836759
0.614000000000000323,-0.174408301673195154
0.615000000000000435,-0.177903237142833792
0.616000000000000325,-0.181334025790483466
0.617000000000000437,-0.184700394699694709
0.618000000000000327,-0.188002104280483084
0.619000000000000439,-0.191238947507516216
0.620000000000000329,-0.194410749164107027
0.621000000000000441,-0.197517365092274716
0.622000000000000330,-0.200558681449090642
0.623000000000000442,-0.203534613969578615
0.624000000000000332,-0.206445107236318759
0.625000000000000444,-0.209290133956039182
0.626000000000000334,-0.212069694243304685
0.627000000000000446,-0.214783814911537252
0.628000000000000336,-0.217432548771502476
0.629000000000000448,-0.220015973937438714
0.630000000000000338,-0.222534193140941083
0.631000000000000449,-0.224987333052785038
0.632000000000000339,-0.227375543612751668
0.633000000000000451,-0.229698997367622976
0.634000000000000341,-0.231957888817405061
0.635000000000000453,-0.234152433769930918
0.636000000000000343,-0.236282868703848237
0.637000000000000455,-0.238349450140162705
0.638000000000000345,-0.240352454022326467
0.639000000000000457,-0.242292175104982410
0.640000000000000346,-0.244168926351395477
0.641000000000000458,-0.245983038339627258
0.642000000000000348,-0.247734858677482739
0.643000000000000460,-0.249424751426277597
0.644000000000000350,-0.251053096533424835
0.645000000000000462,-0.252620289273894405
0.646000000000000352,-0.254126739700522575
0.647000000000000464,-0.255572872103207893
0.648000000000000353,-0.256959124476976331
0.649000000000000465,-0.258285947998919574
0.650000000000000355,-0.259553806513992180
0.651000000000000467,-0.260763176029653765
0.652000000000000357,-0.261914544219350121
0.653000000000000469,-0.263008409934776088
0.654000000000000359,-0.264045282726938779
0.655000000000000471,-0.265025682375941374
0.656000000000000361,-0.265950138429484451
0.657000000000000473,-0.266819189750027053
0.658000000000000362,-0.267633384070574076
0.659000000000000474,-0.268393277559029086
0.660000000000000364,-0.269099434391074754
0.661000000000000476,-0.269752426331523076
0.662000000000000366,-0.270352832324067760
0.663000000000000478,-0.270901238089399421
0.664000000000000368,-0.271398235731593385
0.665000000000000480,-0.271844423352743114
0.666000000000000369,-0.272240404675721526
