# TiO2-rut-100_CS-3320-AC
# h[nm],U(h)[kJ/mol]
0.200000000000000011,62.213138662549155811
0.201000000000000012,60.937339155163307680
0.202000000000000013,59.881360107303706286
0.203000000000000014,58.934279725830307939
0.204000000000000015,58.031883773852221964
0.205000000000000016,57.140147717422699714
0.206000000000000016,56.243814721127115774
0.207000000000000017,55.338655775628694755
0.208000000000000018,54.426359505008214512
0.209000000000000019,53.511273804960673317
0.210000000000000020,52.598429212644909114
0.211000000000000021,51.692430248235737622
0.212000000000000022,50.796917911089444431
0.213000000000000023,49.914393384314422519
0.214000000000000024,49.046257018461929533
0.215000000000000024,48.192963399341060438
0.216000000000000025,47.354227043101197125
0.217000000000000026,46.529237289874139094
0.218000000000000027,45.716857794569435214
0.219000000000000028,44.915797547082625840
0.220000000000000029,44.124748036436031384
0.221000000000000030,43.342486088448680448
0.222000000000000031,42.567944864000757832
0.223000000000000032,41.800257104546574283
0.224000000000000032,41.038775393383616574
0.225000000000000033,40.283074284713919155
0.226000000000000034,39.532938866366279740
0.227000000000000035,38.788343827026167787
0.228000000000000036,38.049426505583063829
0.229000000000000037,37.316456782582186236
0.230000000000000038,36.589806078909411724
0.231000000000000039,35.869917182849533788
0.232000000000000040,35.157276148292055495
0.233000000000000040,34.452387099748207788
0.234000000000000041,33.755750443586336473
0.235000000000000042,33.067844715311451864
0.236000000000000043,32.389112083440394940
0.237000000000000044,31.719947374132619444
0.238000000000000045,31.060690369495404184
0.239000000000000046,30.411621058869929612
0.240000000000000047,29.772957479400396608
0.241000000000000048,29.144855763468825671
0.242000000000000048,28.527412010580007973
0.243000000000000049,27.920665615224017131
0.244000000000000050,27.324603706110213608
0.245000000000000051,26.739166382628269503
0.246000000000000052,26.164252468769433335
0.247000000000000053,25.599725540903953913
0.248000000000000054,25.045420022119589731
0.249000000000000055,24.501147171052174656
0.250000000000000056,23.966700826399236490
0.251000000000000056,23.441862799001640383
0.252000000000000057,22.926407831136479842
0.253000000000000058,22.420108067299725718
0.254000000000000059,21.922737002221545310
0.255000000000000060,21.434072890213293761
0.256000000000000061,20.953901615329947106
0.257000000000000062,20.482019034439595373
0.258000000000000063,20.018232815350597065
0.259000000000000064,19.562363799905451600
0.260000000000000064,19.114246927665650588
0.261000000000000065,18.673731759738775082
0.262000000000000066,18.240682644684213187
0.263000000000000067,17.814978569514209994
0.264000000000000068,17.396512738797884623
0.265000000000000069,16.985191923979254369
0.266000000000000070,16.580935623416465319
0.267000000000000071,16.183675071498591080
0.268000000000000071,15.793352132641876651
0.269000000000000072,15.409918113130141037
0.270000000000000073,15.033332520751741868
0.271000000000000074,14.663561799086171078
0.272000000000000075,14.300578060181157625
0.273000000000000076,13.944357836297664122
0.274000000000000077,13.594880868432829502
0.275000000000000078,13.252128946498626050
0.276000000000000079,12.916084813364326678
0.277000000000000079,12.586731142484165247
0.278000000000000080,12.264049596542571763
0.279000000000000081,11.948019972462573079
0.280000000000000082,11.638619436244180605
0.281000000000000083,11.335821849424746688
0.282000000000000084,11.039597187478888074
0.283000000000000085,10.749911049194292190
0.284000000000000086,10.466724254960695362
0.285000000000000087,10.189992530984657293
0.286000000000000087,9.919666275677382572
0.287000000000000088,9.655690403846833192
0.288000000000000089,9.398004263845148643
0.289000000000000090,9.146541622464644306
0.290000000000000091,8.901230712129521550
0.291000000000000092,8.661994334781235594
0.292000000000000093,8.428750016794245070
0.293000000000000094,8.201410209272058438
0.294000000000000095,7.979882528152357324
0.295000000000000095,7.764070028683420333
0.296000000000000096,7.553871509014018493
0.297000000000000097,7.349181837856434640
0.298000000000000098,7.149892301429955133
0.299000000000000099,6.955890965163051831
0.300000000000000100,6.767063045920638231
0.301000000000000101,6.583291290822307573
0.302000000000000102,6.404456359024211842
0.303000000000000103,6.230437203145676506
0.304000000000000103,6.061111447330121749
0.305000000000000104,5.896355759232970506
0.306000000000000105,5.736046213525963999
0.307000000000000106,5.580058644794862133
0.308000000000000107,5.428268987983787319
0.309000000000000108,5.280553604803849055
0.310000000000000109,5.136789594773786050
0.311000000000000110,4.996855089797231919
0.312000000000000111,4.860629531401793102
0.313000000000000111,4.727993929971832543
0.314000000000000112,4.598831105497213301
0.315000000000000113,4.473025909535818023
0.316000000000000114,4.350465428247792588
0.317000000000000115,4.231039166505086158
0.318000000000000116,4.114639213210692148
0.319000000000000117,4.001160388079252783
0.320000000000000118,3.890500370234426519
0.321000000000000119,3.782559809069395040
0.322000000000000119,3.677242417895977944
0.323000000000000120,3.574455050975434034
0.324000000000000121,3.474107764580814717
0.325000000000000122,3.376113862787835096
0.326000000000000123,3.280389928728927540
0.327000000000000124,3.186855842074289846
0.328000000000000125,3.095434783524920075
0.329000000000000126,3.006053227116975535
0.330000000000000127,2.918640921144199041
0.331000000000000127,2.833130858506863525
0.332000000000000128,2.749459237292173786
0.333000000000000129,2.667565412382570056
0.334000000000000130,2.587391838876042183
0.335000000000000131,2.508884008086108786
0.336000000000000132,2.431990376870122539
0.337000000000000133,2.356662291012125543
0.338000000000000134,2.282853903362224379
0.339000000000000135,2.210522087408232750
0.340000000000000135,2.139626346927198774
0.341000000000000136,2.070128722335609517
0.342000000000000137,2.001993694326830386
0.343000000000000138,1.935188085353856779
0.344000000000000139,1.869680959484208982
0.345000000000000140,1.805443521122741313
0.346000000000000141,1.742449013066847074
0.347000000000000142,1.680672614327648473
0.348000000000000143,1.620091338120072111
0.349000000000000143,1.560683930394744623
0.350000000000000144,1.502430769255082010
0.351000000000000145,1.445313765574419040
0.352000000000000146,1.389316265099964420
0.353000000000000147,1.334422952303625287
0.354000000000000148,1.280619756213598581
0.355000000000000149,1.227893758435776084
0.356000000000000150,1.176233103550067938
0.357000000000000151,1.125626912043953043
0.358000000000000151,1.076065195923850748
0.359000000000000152,1.027538777124352709
0.360000000000000153,0.980039208815765783
0.361000000000000154,0.933558699692301319
0.362000000000000155,0.888090041305702682
0.363000000000000156,0.843626538493184142
0.364000000000000157,0.800161942933398485
0.365000000000000158,0.757690389849999368
0.366000000000000159,0.716206337869618404
0.367000000000000159,0.675704512028754478
0.368000000000000160,0.636179849913293016
0.369000000000000161,0.597627450904074320
0.370000000000000162,0.560042528492770919
0.371000000000000163,0.523420365623976758
0.372000000000000164,0.487756273011842212
0.373000000000000165,0.453045550372842443
0.374000000000000166,0.419283450510168965
0.375000000000000167,0.386465146180156038
0.376000000000000167,0.354585699666186083
0.377000000000000168,0.323640034981798774
0.378000000000000169,0.293622912621189003
0.379000000000000170,0.264528906772450112
0.380000000000000171,0.236352384906587165
0.381000000000000172,0.209087489653564995
0.382000000000000173,0.182728122875196519
0.383000000000000174,0.157267931843747766
0.384000000000000175,0.132700297434630993
0.385000000000000175,0.109018324241337533
0.386000000000000176,0.086214832520816145
0.387000000000000177,0.064282351878158089
0.388000000000000178,0.043213116599896351
0.389000000000000179,0.022999062546489025
0.390000000000000180,0.003631825515543064
0.391000000000000181,-0.014897259011152242
0.392000000000000182,-0.032597154822079429
0.393000000000000183,-0.049477122715586470
0.394000000000000183,-0.065546717106241645
0.395000000000000184,-0.080815781577642409
0.396000000000000185,-0.095294443459157094
0.397000000000000186,-0.108993107501873826
0.398000000000000187,-0.121922448726756769
0.399000000000000188,-0.134093404515593539
0.400000000000000189,-0.145517166012869709
0.401000000000000190,-0.156205168904365810
0.402000000000000191,-0.166169083635660353
0.403000000000000191,-0.175420805131264401
0.404000000000000192,-0.183972442072666331
0.405000000000000193,-0.191836305790944739
0.406000000000000194,-0.199024898827235397
0.407000000000000195,-0.205550903211780961
0.408000000000000196,-0.211427168509861069
0.409000000000000197,-0.216666699680494595
0.410000000000000198,-0.221282644791439331
0.411000000000000199,-0.225288282631569914
0.412000000000000199,-0.228697010259585470
0.413000000000000200,-0.231522330525565589
0.414000000000000201,-0.233777839599858150
0.415000000000000202,-0.235477214541493035
0.416000000000000203,-0.236634200936356814
0.417000000000000204,-0.237262600633245058
0.418000000000000205,-0.237376259603990114
0.419000000000000206,-0.236989055951959710
0.420000000000000207,-0.236114888091315173
0.421000000000000207,-0.234767663117795344
0.422000000000000208,-0.232961285389825357
0.423000000000000209,-0.230709645337420277
0.424000000000000210,-0.228026608514490414
0.425000000000000211,-0.224926004908770766
0.426000000000000212,-0.221421618522179203
0.427000000000000213,-0.217527177232865021
0.428000000000000214,-0.213256342949064287
0.429000000000000214,-0.208622702063453236
0.430000000000000215,-0.203639756215585693
0.431000000000000216,-0.198320913368826457
0.432000000000000217,-0.192679479207076565
0.433000000000000218,-0.186728648855573331
0.434000000000000219,-0.180481498929112694
0.435000000000000220,-0.173950979910054399
0.436000000000000221,-0.167149908857650464
0.437000000000000222,-0.160090962449386781
0.438000000000000222,-0.152786670354307513
0.439000000000000223,-0.145249408937542734
0.440000000000000224,-0.137491395294589619
0.441000000000000225,-0.129524681613264137
0.442000000000000226,-0.121361149860740689
0.443000000000000227,-0.113012506792399020
0.444000000000000228,-0.104490279278895939
0.445000000000000229,-0.095805809947243040
0.446000000000000230,-0.086970253131359726
0.447000000000000230,-0.077994571127173423
0.448000000000000231,-0.068889530746945926
0.449000000000000232,-0.059665700167190958
0.450000000000000233,-0.050333446064359598
0.451000000000000234,-0.040902931032039333
0.452000000000000235,-0.031384111273377181
0.453000000000000236,-0.021786734562051525
0.454000000000000237,-0.012120338465139758
0.455000000000000238,-0.002394248820872469
0.456000000000000238,0.007382421535685746
0.457000000000000239,0.017200773806199242
0.458000000000000240,0.027052124029068203
0.459000000000000241,0.036928003653215614
0.460000000000000242,0.046820159892890477
0.461000000000000243,0.056720555870963127
0.462000000000000244,0.066621370557949547
0.463000000000000245,0.076514998514298743
0.464000000000000246,0.086394049443112700
0.465000000000000246,0.096251347560759801
0.466000000000000247,0.106079930792584751
0.467000000000000248,0.115873049800969061
0.468000000000000249,0.125624166852874086
0.469000000000000250,0.135326954533974114
0.470000000000000251,0.144975294316355141
0.471000000000000252,0.154563274986731003
0.472000000000000253,0.164085190941893361
0.473000000000000254,0.173535540358212781
0.474000000000000254,0.182909023241675017
0.475000000000000255,0.192200539364995954
0.476000000000000256,0.201405186098117112
0.477000000000000257,0.210518256138313486
0.478000000000000258,0.219535235146011448
0.479000000000000259,0.228451799292254204
0.480000000000000260,0.237263812723625123
0.481000000000000261,0.245967324950328914
0.482000000000000262,0.254558568162928878
0.483000000000000262,0.263033954483134214
0.484000000000000263,0.271390073153909117
0.485000000000000264,0.279623687673948518
0.486000000000000265,0.287731732881495506
0.487000000000000266,0.295711311992315928
0.488000000000000267,0.303559693596445745
0.489000000000000268,0.311274308618233353
0.490000000000000269,0.318852747244054602
0.491000000000000270,0.326292755821869729
0.492000000000000270,0.333592233736743293
0.493000000000000271,0.340749230266197078
0.494000000000000272,0.347761941419222231
0.495000000000000273,0.354628706762568857
0.496000000000000274,0.361348006237809161
0.497000000000000275,0.367918456972569696
0.498000000000000276,0.374338810089117735
0.499000000000000277,0.380607947513428413
0.500000000000000222,0.386724878787698179
0.501000000000000334,0.392688737889118233
0.502000000000000224,0.398498780057628232
0.503000000000000336,0.404154378635253941
0.504000000000000226,0.409655021919447471
0.505000000000000338,0.415000310032832664
0.506000000000000227,0.420189951811522355
0.507000000000000339,0.425223761714174309
0.508000000000000229,0.430101656753755557
0.509000000000000341,0.434823653453938364
0.510000000000000231,0.439389864831862542
0.511000000000000343,0.443800497409030048
0.512000000000000233,0.448055848251853406
0.513000000000000345,0.452156302043380809
0.514000000000000234,0.456102328187551531
0.515000000000000346,0.459894477947359104
0.516000000000000236,0.463533381618053575
0.517000000000000348,0.467019745736557579
0.518000000000000238,0.470354350328121729
0.519000000000000350,0.473538046191190110
0.520000000000000240,0.476571752221365386
0.521000000000000352,0.479456452775236741
0.522000000000000242,0.482193195074883563
0.523000000000000353,0.484783086653631290
0.524000000000000243,0.487227292843739335
0.525000000000000355,0.489527034306468267
0.526000000000000245,0.491683584605062118
0.527000000000000357,0.493698267821012060
0.528000000000000247,0.495572456213957957
0.529000000000000359,0.497307567925529326
0.530000000000000249,0.498905064727345304
0.531000000000000361,0.500366449813369529
0.532000000000000250,0.501693265636761199
0.533000000000000362,0.502887091791289098
0.534000000000000252,0.503949542937396910
0.535000000000000364,0.504882266772849531
0.536000000000000254,0.505686942047991139
0.537000000000000366,0.506365276625497573
0.538000000000000256,0.506919005584497206
0.539000000000000368,0.507349889368939211
0.540000000000000258,0.507659711979984385
0.541000000000000369,0.507850279212234690
0.542000000000000259,0.507923416933522942
0.543000000000000371,0.507880969407999650
0.544000000000000261,0.507724797662212235
0.545000000000000373,0.507456777893828148
0.546000000000000263,0.507078799922671020
0.547000000000000375,0.506592765683678947
0.548000000000000265,0.506000587761370468
0.549000000000000377,0.505304187965433083
0.550000000000000266,0.504505495946971139
0.551000000000000378,0.503606447854954231
0.552000000000000268,0.502608985032426459
0.553000000000000380,0.501515052751949519
0.554000000000000270,0.500326598989809135
0.555000000000000382,0.499045573238465767
0.556000000000000272,0.497673925356707625
0.557000000000000384,0.496213604457013513
0.558000000000000274,0.494666557829522735
0.559000000000000385,0.493034729902119495
0.560000000000000275,0.491320061236027616
0.561000000000000387,0.489524487556361521
0.562000000000000277,0.487649938817085349
0.563000000000000389,0.485698338299751786
0.564000000000000279,0.483671601745486679
0.565000000000000391,0.481571636519599777
0.566000000000000281,0.479400340808261327
0.567000000000000393,0.477159602846619901
0.568000000000000282,0.474851300177797697
0.569000000000000394,0.472477298942148127
0.570000000000000284,0.470039453196212764
0.571000000000000396,0.467539604260730546
0.572000000000000286,0.464979580097154233
0.573000000000000398,0.462361194712067824
0.574000000000000288,0.459686247588910579
0.575000000000000400,0.456956523146394455
0.576000000000000290,0.454173790223100560
0.577000000000000401,0.451339801587574307
0.578000000000000291,0.448456293473431356
0.579000000000000403,0.445524985138830654
0.580000000000000293,0.442547578449789925
0.581000000000000405,0.439525757486733171
0.582000000000000295,0.436461188173756398
0.583000000000000407,0.433355517929998879
0.584000000000000297,0.430210375342630624
0.585000000000000409,0.427027369860833228
0.586000000000000298,0.423808091510320561
0.587000000000000410,0.420554110627767652
0.588000000000000300,0.417266977614714485
0.589000000000000412,0.413948222710339930
0.590000000000000302,0.410599355782659603
0.591000000000000414,0.407221866137558397
0.592000000000000304,0.403817222345243920
0.593000000000000416,0.400386872083558720
0.594000000000000306,0.396932241997681512
0.595000000000000417,0.393454737575741453
0.596000000000000307,0.389955743039882230
0.597000000000000419,0.386436621252267076
0.598000000000000309,0.382898713635602017
0.599000000000000421,0.379343340107729188
0.600000000000000311,0.375771799029804732
0.601000000000000423,0.372185367167658765
0.602000000000000313,0.368585299665903920
0.603000000000000425,0.364972830034353879
0.604000000000000314,0.361349170146345267
0.605000000000000426,0.357715510248561963
0.606000000000000316,0.354073018981957088
0.607000000000000428,0.350422843413373264
0.608000000000000318,0.346766109077488005
0.609000000000000430,0.343103920028701048
0.610000000000000320,0.339437358902599573
0.611000000000000432,0.335767486986623565
0.612000000000000322,0.332095344299609907
0.613000000000000433,0.328421949679825131
0.614000000000000323,0.324748300881186336
0.615000000000000435,0.321075374677300629
0.616000000000000325,0.317404126973048539
0.617000000000000437,0.313735492923334858
0.618000000000000327,0.310070387058737018
0.619000000000000439,0.306409703417740542
0.620000000000000329,0.302754315685254238
0.621000000000000441,0.299105077337115222
0.622000000000000330,0.295462821790329344
0.623000000000000442,0.291828362558716248
0.624000000000000332,0.288202493413766581
0.625000000000000444,0.284585988550361657
0.626000000000000334,0.280979602757180147
0.627000000000000446,0.277384071591485148
0.628000000000000336,0.273800111558084314
0.629000000000000448,0.270228420292198013
0.630000000000000338,0.266669676746044748
0.631000000000000449,0.263124541378859489
0.632000000000000339,0.259593656350204538
0.633000000000000451,0.256077645716281999
0.634000000000000341,0.252577115629114501
0.635000000000000453,0.249092654538314529
0.636000000000000343,0.245624833395347519
0.637000000000000455,0.242174205859988195
0.638000000000000345,0.238741308508884614
0.639000000000000457,0.235326661045986263
0.640000000000000346,0.231930766514699904
0.641000000000000458,0.228554111511582392
0.642000000000000348,0.225197166401429255
0.643000000000000460,0.221860385533578869
0.644000000000000350,0.218544207459308193
0.645000000000000462,0.215249055150136037
0.646000000000000352,0.211975336216934679
0.647000000000000464,0.208723443129666869
0.648000000000000353,0.205493753437652249
0.649000000000000465,0.202286629990206052
0.650000000000000355,0.199102421157551918
0.651000000000000467,0.195941461051861499
0.652000000000000357,0.192804069748321982
0.653000000000000469,0.189690553506119547
0.654000000000000359,0.186601204989217506
0.655000000000000471,0.183536303486843827
0.656000000000000361,0.180496115133570972
0.657000000000000473,0.177480893128903305
0.658000000000000362,0.174490877956268359
0.659000000000000474,0.171526297601340832
0.660000000000000364,0.168587367769590768
0.661000000000000476,0.165674292102989118
0.662000000000000366,0.162787262395795301
0.663000000000000478,0.159926458809329819
0.664000000000000368,0.157092050085692714
0.665000000000000480,0.154284193760318739
0.666000000000000369,0.151503036373345168
0.667000000000000481,0.148748713679689837
0.668000000000000371,0.146021350857814758
0.669000000000000483,0.143321062717087833
0.670000000000000373,0.140647953903704298
