# TiO2-rut-100_CS-6334-AC
# h[nm],U(h)[kJ/mol]
0.149999999999999994,95.485085084134851741
0.150999999999999995,93.743910244332653292
0.151999999999999996,92.298896767269397401
0.152999999999999997,90.910164438134046350
0.153999999999999998,89.498667423354660855
0.154999999999999999,88.057577318342325157
0.156000000000000000,86.605536534423521289
0.157000000000000001,85.164237528177437753
0.158000000000000002,83.749475931252476357
0.159000000000000002,82.369146034814917812
0.160000000000000003,81.024389190825814921
0.161000000000000004,79.711809358477410115
0.162000000000000005,78.425699565667187585
0.163000000000000006,77.159822145905962998
0.164000000000000007,75.908615511910952023
0.165000000000000008,74.667866304006977884
0.166000000000000009,73.434955775030388736
0.167000000000000010,72.208805977963109513
0.168000000000000010,70.989640967347710898
0.169000000000000011,69.778656386504948728
0.170000000000000012,68.577666264111272199
0.171000000000000013,67.388773132369550467
0.172000000000000014,66.214088707019413960
0.173000000000000015,65.055517877440124153
0.174000000000000016,63.914608403889950239
0.175000000000000017,62.792461906326273890
0.176000000000000018,61.689697734912101623
0.177000000000000018,60.606459432761766948
0.178000000000000019,59.542453116881084441
0.179000000000000020,58.497007703214855212
0.180000000000000021,57.469148087682199844
0.181000000000000022,56.457673870507278480
0.182000000000000023,55.461237766251556991
0.183000000000000024,54.478419337032462977
0.184000000000000025,53.507791036060311285
0.185000000000000026,52.547974707777044046
0.186000000000000026,51.597687643219543929
0.187000000000000027,50.655778037879258591
0.188000000000000028,49.721250259679337091
0.189000000000000029,48.793280729040127142
0.190000000000000030,47.871225466712260754
0.191000000000000031,46.954620503885927008
0.192000000000000032,46.043176397483939866
0.193000000000000033,45.136768073604045526
0.194000000000000034,44.235421153021555085
0.195000000000000034,43.339295810668303943
0.196000000000000035,42.448669099272152039
0.197000000000000036,41.563916536312021321
0.198000000000000037,40.685493621091673333
0.199000000000000038,39.813917820912919865
0.200000000000000039,38.949751446101430474
0.201000000000000040,38.093585725610346060
0.202000000000000041,37.246026299547750682
0.203000000000000042,36.407680262789803294
0.204000000000000042,35.579144824732985342
0.205000000000000043,34.760997593606887790
0.206000000000000044,33.953788448685457979
0.207000000000000045,33.158032929081727502
0.208000000000000046,32.374207042361476283
0.209000000000000047,31.602743378714997391
0.210000000000000048,30.844028405661390480
0.211000000000000049,30.098400813067332393
0.212000000000000050,29.366150777575104058
0.213000000000000050,28.647520018394356356
0.214000000000000051,27.942702521965134821
0.215000000000000052,27.251845820514326135
0.216000000000000053,26.575052718375751226
0.217000000000000054,25.912383369602810745
0.218000000000000055,25.263857620444412078
0.219000000000000056,24.629457540338488997
0.220000000000000057,24.009130074930872922
0.221000000000000058,23.402789764058685051
0.222000000000000058,22.810321476489395565
0.223000000000000059,22.231583121393992286
0.224000000000000060,21.666408303986578687
0.225000000000000061,21.114608899462655955
0.226000000000000062,20.575977525309681937
0.227000000000000063,20.050289897264384820
0.228000000000000064,19.537307058685769334
0.229000000000000065,19.036777476940603293
0.230000000000000066,18.548439003613133025
0.231000000000000066,18.072020698003164796
0.232000000000000067,17.607244515525501072
0.233000000000000068,17.153826864322446966
0.234000000000000069,16.711480034706404751
0.235000000000000070,16.279913507012054197
0.236000000000000071,15.858835144107720438
0.237000000000000072,15.447952275237454955
0.238000000000000073,15.046972678081402819
0.239000000000000073,14.655605465970486634
0.240000000000000074,14.273561887102953705
0.241000000000000075,13.900556042418235947
0.242000000000000076,13.536305528510306218
0.243000000000000077,13.180532011632156042
0.244000000000000078,12.832961738473381175
0.245000000000000079,12.493325989000052090
0.246000000000000080,12.161361476243367719
0.247000000000000081,11.836810697520508739
0.248000000000000081,11.519422241177847965
0.249000000000000082,11.208951052568041362
0.250000000000000111,10.905158662613969156
0.251000000000000112,10.607813381978079548
0.252000000000000113,10.316690463545544532
0.253000000000000114,10.031572235648662073
0.254000000000000115,9.752248208203619484
0.255000000000000115,9.478515153703597207
0.256000000000000116,9.210177164809781658
0.257000000000000117,8.947045690105014160
0.258000000000000118,8.688939549421508701
0.259000000000000119,8.435684930022057770
0.260000000000000120,8.187115364802100004
0.261000000000000121,7.943071693586392534
0.262000000000000122,7.703402008515553234
0.263000000000000123,7.467961584454291035
0.264000000000000123,7.236612795301118339
0.265000000000000124,7.009225017038486882
0.266000000000000125,6.785674518329747329
0.267000000000000126,6.565844339444670830
0.268000000000000127,6.349624160275750384
0.269000000000000128,6.136910158193556342
0.270000000000000129,5.927604856478249751
0.271000000000000130,5.721616964055847632
0.272000000000000131,5.518861207261261725
0.273000000000000131,5.319258154343930123
0.274000000000000132,5.122734033426320721
0.275000000000000133,4.929220544619287381
0.276000000000000134,4.738654666991494402
0.277000000000000135,4.550978461082357818
0.278000000000000136,4.366138867638271748
0.279000000000000137,4.184087503241234351
0.280000000000000138,4.004780453486469050
0.281000000000000139,3.828178064351087873
0.282000000000000139,3.654244732379994254
0.283000000000000140,3.482948694297252068
0.284000000000000141,3.314261816631771662
0.285000000000000142,3.148159385924983233
0.286000000000000143,2.984619900065667686
0.287000000000000144,2.823624861273394515
0.288000000000000145,2.665158571226547313
0.289000000000000146,2.509207928805479604
0.290000000000000147,2.355762230893727605
0.291000000000000147,2.204812976653185430
0.292000000000000148,2.056353675660477442
0.293000000000000149,1.910379660263707535
0.294000000000000150,1.766887902489767681
0.295000000000000151,1.625876835803766296
0.296000000000000152,1.487346181993462357
0.297000000000000153,1.351296783423267422
0.298000000000000154,1.217730440874251752
0.299000000000000155,1.086649757159154017
0.300000000000000155,0.958057986674442419
0.301000000000000156,0.831958891025317393
0.302000000000000157,0.708356600833955019
0.303000000000000158,0.587255483816986557
0.304000000000000159,0.468660019194322597
0.305000000000000160,0.352574678469039338
0.306000000000000161,0.239003812596293164
0.307000000000000162,0.127951545538751488
0.308000000000000163,0.019421674186720583
0.309000000000000163,-0.086582425397228158
0.310000000000000164,-0.190057885466440452
0.311000000000000165,-0.291002427884386461
0.312000000000000166,-0.389414439313052807
0.313000000000000167,-0.485293040397303532
0.314000000000000168,-0.578638149059552132
0.315000000000000169,-0.669450538030576414
0.316000000000000170,-0.757731886752719741
0.317000000000000171,-0.843484827800917714
0.318000000000000171,-0.926712987975296998
0.319000000000000172,-1.007421024226524242
0.320000000000000173,-1.085614654581130045
0.321000000000000174,-1.161300684239588987
0.322000000000000175,-1.234487027024435468
0.323000000000000176,-1.305182722359233827
0.324000000000000177,-1.373397947962187615
0.325000000000000178,-1.439144028440072276
0.326000000000000179,-1.502433439969810269
0.327000000000000179,-1.563279811255349205
0.328000000000000180,-1.621697920947757110
0.329000000000000181,-1.677703691715898060
0.330000000000000182,-1.731314181153723597
0.331000000000000183,-1.782547569708923474
0.332000000000000184,-1.831423145815244569
0.333000000000000185,-1.877961288408492191
0.334000000000000186,-1.922183447003215973
0.335000000000000187,-1.964112119503764742
0.336000000000000187,-2.003770827919939101
0.337000000000000188,-2.041184092153294660
0.338000000000000189,-2.076377402016342355
0.339000000000000190,-2.109377187642293094
0.340000000000000191,-2.140210788438412060
0.341000000000000192,-2.168906420731513407
0.342000000000000193,-2.195493144249005546
0.343000000000000194,-2.220000827574179603
0.344000000000000195,-2.242460112708985598
0.345000000000000195,-2.262902378872916564
0.346000000000000196,-2.281359705660885862
0.347000000000000197,-2.297864835678178785
0.348000000000000198,-2.312451136765142579
0.349000000000000199,-2.325152563919089310
0.350000000000000200,-2.336003621015799059
0.351000000000000201,-2.345039322427702189
0.352000000000000202,-2.352295154630869245
0.353000000000000203,-2.357807037887830859
0.354000000000000203,-2.361611288088373506
0.355000000000000204,-2.363744578825420550
0.356000000000000205,-2.364243903778544098
0.357000000000000206,-2.363146539472928964
0.358000000000000207,-2.360490008476832102
0.359000000000000208,-2.356312043096497444
0.360000000000000209,-2.350650549622872010
0.361000000000000210,-2.343543573180380424
0.362000000000000210,-2.335029263223950657
0.363000000000000211,-2.325145839726471930
0.364000000000000212,-2.313931560095173090
0.365000000000000213,-2.301424686851603063
0.366000000000000214,-2.287663456106455495
0.367000000000000215,-2.272686046857020692
0.368000000000000216,-2.256530551131866069
0.369000000000000217,-2.239234945004084487
0.370000000000000218,-2.220837060491654746
0.371000000000000218,-2.201374558360350786
0.372000000000000219,-2.180884901842202961
0.373000000000000220,-2.159405331279693474
0.374000000000000221,-2.136972839703572546
0.375000000000000222,-2.113624149349675907
0.376000000000000223,-2.089395689118173749
0.377000000000000224,-2.064323572976360488
0.378000000000000225,-2.038443579304264563
0.379000000000000226,-2.011791131180459047
0.380000000000000226,-1.984401277603848657
0.381000000000000227,-1.956308675645333839
0.382000000000000228,-1.927547573522082391
0.383000000000000229,-1.898151794585456686
0.384000000000000230,-1.868154722212433949
0.385000000000000231,-1.837589285589279253
0.386000000000000232,-1.806487946374874198
0.387000000000000233,-1.774882686230326856
0.388000000000000234,-1.742804995200356810
0.389000000000000234,-1.710285860931290758
0.390000000000000235,-1.677355758709554889
0.391000000000000236,-1.644044642304018256
0.392000000000000237,-1.610381935594788816
0.393000000000000238,-1.576396524970664403
0.394000000000000239,-1.542116752476790920
0.395000000000000240,-1.507570409693836710
0.396000000000000241,-1.472784732329546653
0.397000000000000242,-1.437786395503195980
0.398000000000000242,-1.402601509703401916
0.399000000000000243,-1.367255617399358858
0.400000000000000244,-1.331773690285508405
0.401000000000000245,-1.296180127139682003
0.402000000000000246,-1.260498752274448409
0.403000000000000247,-1.224752814561614445
0.404000000000000248,-1.188964987009768270
0.405000000000000249,-1.153157366874822065
0.406000000000000250,-1.117351476283588996
0.407000000000000250,-1.081568263350646708
0.408000000000000251,-1.045828103768769113
0.409000000000000252,-1.010150802853527541
0.410000000000000253,-0.974555598022772473
0.411000000000000254,-0.939061161691993940
0.412000000000000255,-0.903685604566796918
0.413000000000000256,-0.868446479314028408
0.414000000000000257,-0.833360784593293547
0.415000000000000258,-0.798444969431076901
0.416000000000000258,-0.763714937919803494
0.417000000000000259,-0.729186054224672753
0.418000000000000260,-0.694873147881362563
0.419000000000000261,-0.660790519368056217
0.420000000000000262,-0.626951945935653177
0.421000000000000263,-0.593370687680359499
0.422000000000000264,-0.560059493843248934
0.423000000000000265,-0.527030609321707311
0.424000000000000266,-0.494295781378250254
0.425000000000000266,-0.461866266532285352
0.426000000000000267,-0.429752837621106054
0.427000000000000268,-0.397965791016551551
0.428000000000000269,-0.366514953984297620
0.429000000000000270,-0.335409692173141816
0.430000000000000271,-0.304658917221888981
0.431000000000000272,-0.274271094472064048
0.432000000000000273,-0.244254250774866233
0.433000000000000274,-0.214615982381311271
0.434000000000000274,-0.185363462904763132
0.435000000000000275,-0.156503451345568922
0.436000000000000276,-0.128042300167809930
0.437000000000000277,-0.099985963418516260
0.438000000000000278,-0.072340004880178624
0.439000000000000279,-0.045109606247662026
0.440000000000000280,-0.018299575320976390
0.441000000000000281,0.008085645794242114
0.442000000000000282,0.034041972486317171
0.443000000000000282,0.059565669444776967
0.444000000000000283,0.084653342482288327
0.445000000000000284,0.109301930378181186
0.446000000000000285,0.133508696750106043
0.447000000000000286,0.157271221959884522
0.448000000000000287,0.180587395059636474
0.449000000000000288,0.203455405783605270
0.450000000000000289,0.225873736591129193
0.451000000000000290,0.247841154765699290
0.452000000000000290,0.269356704574882422
0.453000000000000291,0.290419699495616079
0.454000000000000292,0.311029714509050037
0.455000000000000293,0.331186578468961657
0.456000000000000294,0.350890366547422894
0.457000000000000295,0.370141392761232146
0.458000000000000296,0.388940202582354011
0.459000000000000297,0.407287565635406246
0.460000000000000298,0.425184468485007128
0.461000000000000298,0.442632107515574247
0.462000000000000299,0.459631881905983863
0.463000000000000300,0.476185386701316937
0.464000000000000301,0.492294405983662198
0.465000000000000302,0.507960906143831048
0.466000000000000303,0.523187029255665292
0.467000000000000304,0.537975086554380533
0.468000000000000305,0.552327552020282608
0.469000000000000306,0.566247056069053567
0.470000000000000306,0.579736379349548026
0.471000000000000307,0.592798446650068867
0.472000000000000308,0.605436320913755766
0.473000000000000309,0.617653197363755013
0.474000000000000310,0.629452397738587632
0.475000000000000311,0.640837364638120355
0.476000000000000312,0.651811655980277127
0.477000000000000313,0.662378939568723402
0.478000000000000314,0.672542987771450274
0.479000000000000314,0.682307672310186741
0.480000000000000315,0.691676959160482996
0.481000000000000316,0.700654903562138776
0.482000000000000317,0.709245645139658154
0.483000000000000318,0.717453403132237266
0.484000000000000319,0.725282471732796807
0.485000000000000320,0.732737215535417930
0.486000000000000321,0.739822065090540271
0.487000000000000322,0.746541512567156618
0.488000000000000322,0.752900107521248252
0.489000000000000323,0.758902452769519842
0.490000000000000324,0.764553200367605323
0.491000000000000325,0.769857047691713037
0.492000000000000326,0.774818733622740341
0.493000000000000327,0.779443034831754922
0.494000000000000328,0.783734762165767873
0.495000000000000329,0.787698757132649363
0.496000000000000330,0.791339888484009490
0.497000000000000330,0.794663048894813207
0.498000000000000331,0.797673151738538033
0.499000000000000332,0.800375127956539756
0.500000000000000333,0.802773923020367541
0.501000000000000334,0.804874493985732187
0.502000000000000335,0.806681806636724175
0.503000000000000336,0.808200832718985573
0.504000000000000337,0.809436547260433459
0.505000000000000338,0.810393925978146301
0.506000000000000338,0.811077942770016769
0.507000000000000339,0.811493567289767959
0.508000000000000340,0.811645762603908416
0.509000000000000341,0.811539482929184430
0.510000000000000342,0.811179671449120399
0.511000000000000343,0.810571258208204304
0.512000000000000344,0.809719158082270574
0.513000000000000345,0.808628268823661900
0.514000000000000346,0.807303469179696309
0.515000000000000346,0.805749617083051151
0.516000000000000347,0.803971547912596507
0.517000000000000348,0.801974072823239181
0.518000000000000349,0.799761977143398362
0.519000000000000350,0.797340018838651909
0.520000000000000351,0.794712927040158168
0.521000000000000352,0.791885400636450187
0.522000000000000353,0.788862106927215700
0.523000000000000353,0.785647680337662080
0.524000000000000354,0.782246721192110583
0.525000000000000355,0.778663794545438104
0.526000000000000356,0.774903429071052474
0.527000000000000357,0.770970116004000339
0.528000000000000358,0.766868308137966914
0.529000000000000359,0.762602418874770649
0.530000000000000360,0.758176821325132755
0.531000000000000361,0.753595847459377244
0.532000000000000361,0.748863787306848216
0.533000000000000362,0.743984888202738115
0.534000000000000363,0.738963354081152213
0.535000000000000364,0.733803344813133251
0.536000000000000365,0.728508975588489482
0.537000000000000366,0.723084316340204203
0.538000000000000367,0.717533391210290916
0.539000000000000368,0.711860178055904291
0.540000000000000369,0.706068607994619457
0.541000000000000369,0.700162564987711900
0.542000000000000370,0.694145885460380918
0.543000000000000371,0.688022357957822517
0.544000000000000372,0.681795722836062712
0.545000000000000373,0.675469671986553277
0.546000000000000374,0.669047848593458339
0.547000000000000375,0.662533846922657044
0.548000000000000376,0.655931212141436681
0.549000000000000377,0.649243440167937003
0.550000000000000377,0.642473977549370523
0.551000000000000378,0.635626221368077893
0.552000000000000379,0.628703519174522940
0.553000000000000380,0.621709168946289581
0.554000000000000381,0.614646419072238492
0.555000000000000382,0.607518468360916830
0.556000000000000383,0.600328466072412303
0.557000000000000384,0.593079511972778306
0.558000000000000385,0.585774656410260830
0.559000000000000385,0.578416900412493162
0.560000000000000386,0.571009195803905634
0.561000000000000387,0.563554445342573374
0.562000000000000388,0.556055502875766550
0.563000000000000389,0.548515173513461241
0.564000000000000390,0.540936213819117273
0.565000000000000391,0.533321332017009486
0.566000000000000392,0.525673188215452392
0.567000000000000393,0.517994394645225453
0.568000000000000393,0.510287515912588252
0.569000000000000394,0.502555069266214405
0.570000000000000395,0.494799524877467978
0.571000000000000396,0.487023306133387013
0.572000000000000397,0.479228789941789135
0.573000000000000398,0.471418307047968999
0.574000000000000399,0.463594142362364070
0.575000000000000400,0.455758535298708189
0.576000000000000401,0.447913680122104974
0.577000000000000401,0.440061726306514078
0.578000000000000402,0.432204778901154274
0.579000000000000403,0.424344898905350765
0.580000000000000404,0.416484103651302839
0.581000000000000405,0.408624367194372007
0.582000000000000406,0.400767620710398398
0.583000000000000407,0.392915752899618664
0.584000000000000408,0.385070610396779089
0.585000000000000409,0.377233998187015418
0.586000000000000409,0.369407680027091456
0.587000000000000410,0.361593378871634230
0.588000000000000411,0.353792777303977346
0.589000000000000412,0.346007517971223699
0.590000000000000413,0.338239204023223827
0.591000000000000414,0.330489399555076280
0.592000000000000415,0.322759630052848523
0.593000000000000416,0.315051382842183980
0.594000000000000417,0.307366107539484901
0.595000000000000417,0.299705216505371907
0.596000000000000418,0.292070085300119686
0.597000000000000419,0.284462053140799309
0.598000000000000420,0.276882423359840313
0.599000000000000421,0.269332463864762228
0.600000000000000422,0.261813407598798897
0.601000000000000423,0.254326453002203634
0.602000000000000424,0.246872764473960254
0.603000000000000425,0.239453472833683984
0.604000000000000425,0.232069675783514118
0.605000000000000426,0.224722438369753974
0.606000000000000427,0.217412793444046265
0.607000000000000428,0.210141742123955366
0.608000000000000429,0.202910254252636424
0.609000000000000430,0.195719268857578649
0.610000000000000431,0.188569694608075350
0.611000000000000432,0.181462410271375496
0.612000000000000433,0.174398265167312161
0.613000000000000433,0.167378079621216702
0.614000000000000434,0.160402645415042538
0.615000000000000435,0.153472726236499296
0.616000000000000436,0.146589058126078309
0.617000000000000437,0.139752349921839464
0.618000000000000438,0.132963283701836577
