# TiO2-rut-100_CS-11787-AC
# h[nm],U(h)[kJ/mol]
0.200000000000000011,71.472840968587618704
0.201000000000000012,70.040397563453879570
0.202000000000000013,68.834945432726584613
0.203000000000000014,67.735717512711318022
0.204000000000000015,66.675090107169779685
0.205000000000000016,65.619072249455584256
0.206000000000000016,64.554020547820783804
0.207000000000000017,63.477797837444505547
0.208000000000000018,62.394062674373607535
0.209000000000000019,61.308729871886363583
0.210000000000000020,60.227906997217516505
0.211000000000000021,59.156808995963544362
0.212000000000000022,58.099299096806781506
0.213000000000000023,57.057811352748032618
0.214000000000000024,56.033488184107945074
0.215000000000000024,55.026422443012322105
0.216000000000000025,54.035933417820515956
0.217000000000000026,53.060834092615891677
0.218000000000000027,52.099666088238087980
0.219000000000000028,51.150891457526952877
0.220000000000000029,50.213038698441387453
0.221000000000000030,49.284805328953197545
0.222000000000000031,48.365122127803708452
0.223000000000000032,47.453185408548655744
0.224000000000000032,46.548463982798317318
0.225000000000000033,45.650687153767975701
0.226000000000000034,44.759819423147177986
0.227000000000000035,43.876026770691524348
0.228000000000000036,42.999638494806653455
0.229000000000000037,42.131107758643530303
0.230000000000000038,41.270973214238566129
0.231000000000000039,40.419823400184569095
0.232000000000000040,39.578265035002139882
0.233000000000000040,38.746895858197390794
0.234000000000000041,37.926282297525489184
0.235000000000000042,37.116941954521166736
0.236000000000000043,36.319330689656510458
0.237000000000000044,35.533833941928591571
0.238000000000000045,34.760761824033828304
0.239000000000000046,34.000347483183475106
0.240000000000000047,33.252748199774309512
0.241000000000000048,32.518048703485945339
0.242000000000000048,31.796266212062203493
0.243000000000000049,31.087356736341916985
0.244000000000000050,30.391222241383900382
0.245000000000000051,29.707718304069821613
0.246000000000000052,29.036661959494448837
0.247000000000000053,28.377839479581957960
0.248000000000000054,27.731013876122915462
0.249000000000000055,27.095931965712907186
0.250000000000000056,26.472330875194778343
0.251000000000000056,25.859943902778546487
0.252000000000000057,25.258505681900540907
0.253000000000000058,24.667756622132756661
0.254000000000000059,24.087446624249206906
0.255000000000000060,23.517338085177669882
0.256000000000000061,22.957208223352669307
0.257000000000000062,22.406850766317251811
0.258000000000000063,21.866077050688183192
0.259000000000000064,21.334716590194489072
0.260000000000000064,20.812617170803399347
0.261000000000000065,20.299644533320872597
0.262000000000000066,19.795681703629860237
0.263000000000000067,19.300628029216312598
0.264000000000000068,18.814397978103315268
0.265000000000000069,18.336919753012459466
0.266000000000000070,17.868133769712891024
0.267000000000000071,17.407991044284255366
0.268000000000000071,16.956451529568436598
0.269000000000000072,16.513482436546006227
0.270000000000000073,16.079056571854756896
0.271000000000000074,15.653150718256828355
0.272000000000000075,15.235744080624385788
0.273000000000000076,14.826816816005523592
0.274000000000000077,14.426348662587376026
0.275000000000000078,14.034317678919743244
0.276000000000000079,13.650699101614378606
0.277000000000000079,13.275464326898083200
0.278000000000000080,12.908580018874157957
0.279000000000000081,12.550007345127358604
0.280000000000000082,12.199701338384139504
0.281000000000000083,11.857610381297300606
0.282000000000000084,11.523675810046588808
0.283000000000000085,11.197831631315228407
0.284000000000000086,10.880004346297635465
0.285000000000000087,10.570112874696828698
0.286000000000000087,10.268068571159144398
0.287000000000000088,9.973775326251296036
0.288000000000000089,9.687129743889929756
0.289000000000000090,9.408021387068515651
0.290000000000000091,9.136333083774065500
0.291000000000000092,8.871941285128521315
0.292000000000000093,8.614716468013828177
0.293000000000000094,8.364523574729460620
0.294000000000000095,8.121222482575401358
0.295000000000000095,7.884668496638857604
0.296000000000000096,7.654712859481056952
0.297000000000000097,7.431203271859525117
0.298000000000000098,7.213984419075235799
0.299000000000000099,7.002898497994117122
0.300000000000000100,6.797785740253300624
0.301000000000000101,6.598484927618315510
0.302000000000000102,6.404833895904199714
0.303000000000000103,6.216670024306377051
0.304000000000000103,6.033830707404660210
0.305000000000000104,5.856153807501836894
0.306000000000000105,5.683478085335952557
0.307000000000000106,5.515643607561356632
0.308000000000000107,5.352492129725963110
0.309000000000000108,5.193867453781715326
0.310000000000000109,5.039615759450177812
0.311000000000000110,4.889585909027434063
0.312000000000000111,4.743629725450004386
0.313000000000000111,4.601602243659426605
0.314000000000000112,4.463361935495738564
0.315000000000000113,4.328770908521987870
0.316000000000000114,4.197695079332762091
0.317000000000000115,4.070004322031538280
0.318000000000000116,3.945572592674587042
0.319000000000000117,3.824278030575123832
0.320000000000000118,3.706003037441016001
0.321000000000000119,3.590634335383747100
0.322000000000000119,3.478063004887215648
0.323000000000000120,3.368184503862777568
0.324000000000000121,3.260898668942926015
0.325000000000000122,3.156109700181774169
0.326000000000000123,3.053726130336448019
0.327000000000000124,2.953660779900799227
0.328000000000000125,2.855830699052585686
0.329000000000000126,2.760157097658309855
0.330000000000000127,2.666565264456875362
0.331000000000000127,2.574984476515162157
0.332000000000000128,2.485347900016212641
0.333000000000000129,2.397592483404458186
0.334000000000000130,2.311658843873425351
0.335000000000000131,2.227491148139298272
0.336000000000000132,2.145036988400632172
0.337000000000000133,2.064247254339000026
0.338000000000000134,1.985076001969511506
0.339000000000000135,1.907480320103670746
0.340000000000000135,1.831420195139819684
0.341000000000000136,1.756858374850043258
0.342000000000000137,1.683760231785758066
0.343000000000000138,1.612093626878722263
0.344000000000000139,1.541828773769044592
0.345000000000000140,1.472938104348190391
0.346000000000000141,1.405396135962195814
0.347000000000000142,1.339179340679141239
0.348000000000000143,1.274266016984950456
0.349000000000000143,1.210636164233469314
0.350000000000000144,1.148271360139979436
0.351000000000000145,1.087154641572436464
0.352000000000000146,1.027270388861285522
0.353000000000000147,0.968604213817344850
0.354000000000000148,0.911142851617241512
0.355000000000000149,0.854874056687953576
0.356000000000000150,0.799786502695614243
0.357000000000000151,0.745869686719059954
0.358000000000000151,0.693113837665707888
0.359000000000000152,0.641509828965981854
0.360000000000000153,0.591049095562681703
0.361000000000000154,0.541723555193752704
0.362000000000000155,0.493525533949939366
0.363000000000000156,0.446447696073770106
0.364000000000000157,0.400482977952467678
0.365000000000000158,0.355624526244648131
0.366000000000000159,0.311865640069802053
0.367000000000000159,0.269199717179118281
0.368000000000000160,0.227620204017636774
0.369000000000000161,0.187120549579738088
0.370000000000000162,0.147694162953277086
0.371000000000000163,0.109334374441863141
0.372000000000000164,0.072034400149890487
0.373000000000000165,0.035787309910885190
0.374000000000000166,0.000585998436397350
0.375000000000000167,-0.033576840439601338
0.376000000000000167,-0.066708736548015901
0.377000000000000168,-0.098817463331761335
0.378000000000000169,-0.129911055081556315
0.379000000000000170,-0.159997821589319689
0.380000000000000171,-0.189086360347666460
0.381000000000000172,-0.217185566423090559
0.382000000000000173,-0.244304640129222983
0.383000000000000174,-0.270453092624922287
0.384000000000000175,-0.295640749559932858
0.385000000000000175,-0.319877752888614530
0.386000000000000176,-0.343174560969863818
0.387000000000000177,-0.365541947068337758
0.388000000000000178,-0.386990996369516616
0.389000000000000179,-0.407533101617683635
0.390000000000000180,-0.427179957482936801
0.391000000000000181,-0.445943553759853117
0.392000000000000182,-0.463836167496947116
0.393000000000000183,-0.480870354152630242
0.394000000000000183,-0.497058937869701900
0.395000000000000184,-0.512415000956836786
0.396000000000000185,-0.526951872661838849
0.397000000000000186,-0.540683117317779072
0.398000000000000187,-0.553622521939569845
0.399000000000000188,-0.565784083344789912
0.400000000000000189,-0.577181994868995352
0.401000000000000190,-0.587830632742318948
0.402000000000000191,-0.597744542190487338
0.403000000000000191,-0.606938423320022791
0.404000000000000192,-0.615427116844059818
0.405000000000000193,-0.623225589701759120
0.406000000000000194,-0.630348920621246256
0.407000000000000195,-0.636812285672698986
0.408000000000000196,-0.642630943855222680
0.409000000000000197,-0.647820222758167752
0.410000000000000198,-0.652395504334683407
0.411000000000000199,-0.656372210822393498
0.412000000000000199,-0.659765790843615307
0.413000000000000200,-0.662591705714683066
0.414000000000000201,-0.664865415991686026
0.415000000000000202,-0.666602368277317003
0.416000000000000203,-0.667817982311405878
0.417000000000000204,-0.668527638365389754
0.418000000000000205,-0.668746664958925430
0.419000000000000206,-0.668490326914832900
0.420000000000000207,-0.667773813766580071
0.421000000000000207,-0.666612228530876427
0.422000000000000208,-0.665020576855906986
0.423000000000000209,-0.663013756554484912
0.424000000000000210,-0.660606547529499766
0.425000000000000211,-0.657813602097772732
0.426000000000000212,-0.654649435717051253
0.427000000000000213,-0.651128418119412689
0.428000000000000214,-0.647264764853367702
0.429000000000000214,-0.643072529235571344
0.430000000000000215,-0.638565594712168005
0.431000000000000216,-0.633757667628705335
0.432000000000000217,-0.628662270406641133
0.433000000000000218,-0.623292735123585406
0.434000000000000219,-0.617662197493714316
0.435000000000000220,-0.611783591243955538
0.436000000000000221,-0.605669642880907300
0.437000000000000222,-0.599332866842851031
0.438000000000000222,-0.592785561030646169
0.439000000000000223,-0.586039802710796365
0.440000000000000224,-0.579107444783465652
0.441000000000000225,-0.572000112407863304
0.442000000000000226,-0.564729199977070051
0.443000000000000227,-0.557305868433916829
0.444000000000000228,-0.549741042919458245
0.445000000000000229,-0.542045410745113365
0.446000000000000230,-0.534229419679477124
0.447000000000000230,-0.526303276540610709
0.448000000000000231,-0.518276946084430312
0.449000000000000232,-0.510160150179689853
0.450000000000000233,-0.501962367260101794
0.451000000000000234,-0.493692832043859664
0.452000000000000235,-0.485360535511032531
0.453000000000000236,-0.476974225129054019
0.454000000000000237,-0.468542405316804800
0.455000000000000238,-0.460073338137534649
0.456000000000000238,-0.451575044211168286
0.457000000000000239,-0.443055303836451142
0.458000000000000240,-0.434521658313562487
0.459000000000000241,-0.425981411457830639
0.460000000000000242,-0.417441631295455751
0.461000000000000243,-0.408909151932057235
0.462000000000000244,-0.400390575585247543
0.463000000000000245,-0.391892274772274951
0.464000000000000246,-0.383420394644315710
0.465000000000000246,-0.374980855458775741
0.466000000000000247,-0.366579355181418876
0.467000000000000248,-0.358221372210156208
0.468000000000000249,-0.349912168212602848
0.469000000000000250,-0.341656791069642807
0.470000000000000251,-0.333460077917466180
0.471000000000000252,-0.325326658280693237
0.472000000000000253,-0.317260957289531464
0.473000000000000254,-0.309267198973879220
0.474000000000000254,-0.301349409627757359
0.475000000000000255,-0.293511421237438841
0.476000000000000256,-0.285756874966988650
0.477000000000000257,-0.278089224695062254
0.478000000000000258,-0.270511740597040085
0.479000000000000259,-0.263027512766764948
0.480000000000000260,-0.255639454872388483
0.481000000000000261,-0.248350307840962042
0.482000000000000262,-0.241162643566693813
0.483000000000000262,-0.234078868637944998
0.484000000000000263,-0.227101228078193940
0.485000000000000264,-0.220231809096502806
0.486000000000000265,-0.213472544843097245
0.487000000000000266,-0.206825218165895774
0.488000000000000267,-0.200291465364057647
0.489000000000000268,-0.193872779934728234
0.490000000000000269,-0.187570516309358448
0.491000000000000270,-0.181385893576201079
0.492000000000000270,-0.175319999185652886
0.493000000000000271,-0.169373792635400783
0.494000000000000272,-0.163548109132387876
0.495000000000000273,-0.157843663228828257
0.496000000000000274,-0.152261052429666088
0.497000000000000275,-0.146800760768954541
0.498000000000000276,-0.141463162352881616
0.499000000000000277,-0.136248524867214282
0.500000000000000222,-0.131157013047128457
0.501000000000000334,-0.126188692107509409
0.502000000000000224,-0.121343531131950760
0.503000000000000336,-0.116621406418768503
0.504000000000000226,-0.112022104782534979
0.505000000000000338,-0.107545326809675407
0.506000000000000227,-0.103190690066873314
0.507000000000000339,-0.098957732261053005
0.508000000000000229,-0.094845914349879962
0.509000000000000341,-0.090854623601785089
0.510000000000000231,-0.086983176604670781
0.511000000000000343,-0.083230822222451956
0.512000000000000233,-0.079596744498785288
0.513000000000000345,-0.076080065507359948
0.514000000000000234,-0.072679848148271733
0.515000000000000346,-0.069395098889953793
0.516000000000000236,-0.066224770456397491
0.517000000000000348,-0.063167764459320527
0.518000000000000238,-0.060222933975089751
0.519000000000000350,-0.057389086066238271
0.520000000000000240,-0.054664984247486760
0.521000000000000352,-0.052049350896295851
0.522000000000000242,-0.049540869607907954
0.523000000000000353,-0.047138187495058978
0.524000000000000243,-0.044839917432419843
0.525000000000000355,-0.042644640246055056
0.526000000000000245,-0.040550906848060023
0.527000000000000357,-0.038557240316730024
0.528000000000000247,-0.036662137922553795
0.529000000000000359,-0.034864073100422874
0.530000000000000249,-0.033161497368465208
0.531000000000000361,-0.031552842193950784
0.532000000000000250,-0.030036520806732935
0.533000000000000362,-0.028610929960771480
0.534000000000000252,-0.027274451644213160
0.535000000000000364,-0.026025454738690355
0.536000000000000254,-0.024862296628336722
0.537000000000000366,-0.023783324759181834
0.538000000000000256,-0.022786878149570634
0.539000000000000368,-0.021871288852227354
0.540000000000000258,-0.021034883368674474
0.541000000000000369,-0.020275984016671612
0.542000000000000259,-0.019592910251394580
0.543000000000000371,-0.018983979941070973
0.544000000000000261,-0.018447510597793194
0.545000000000000373,-0.017981820564277284
0.546000000000000263,-0.017585230157286347
0.547000000000000375,-0.017256062768490454
0.548000000000000265,-0.016992645923558047
0.549000000000000377,-0.016793312300190967
0.550000000000000266,-0.016656400705943875
0.551000000000000378,-0.016580257016565160
0.552000000000000268,-0.016563235075653892
0.553000000000000380,-0.016603697556434649
0.554000000000000270,-0.016700016786414817
0.555000000000000382,-0.016850575535709789
0.556000000000000272,-0.017053767769860340
0.557000000000000384,-0.017307999367844596
0.558000000000000274,-0.017611688806175519
0.559000000000000385,-0.017963267809752815
0.560000000000000275,-0.018361181970327035
0.561000000000000387,-0.018803891333305199
0.562000000000000277,-0.019289870953655842
0.563000000000000389,-0.019817611421720005
0.564000000000000279,-0.020385619359627748
0.565000000000000391,-0.020992417889110705
0.566000000000000281,-0.021636547071418644
0.567000000000000393,-0.022316564320104225
0.568000000000000282,-0.023031044787384557
0.569000000000000394,-0.023778581724804536
0.570000000000000284,-0.024557786818893181
0.571000000000000396,-0.025367290502560348
0.572000000000000286,-0.026205742242885233
0.573000000000000398,-0.027071810805983178
0.574000000000000288,-0.027964184499645928
0.575000000000000400,-0.028881571394422136
0.576000000000000290,-0.029822699523751960
0.577000000000000401,-0.030786317063864921
0.578000000000000291,-0.031771192494011502
0.579000000000000403,-0.032776114737709583
0.580000000000000293,-0.033799893285571335
0.581000000000000405,-0.034841358300361433
0.582000000000000295,-0.035899360704839699
0.583000000000000407,-0.036972772253006811
0.584000000000000297,-0.038060485585279545
0.585000000000000409,-0.039161414268226523
0.586000000000000298,-0.040274492819332576
0.587000000000000410,-0.041398676717415331
0.588000000000000300,-0.042532942399152840
0.589000000000000412,-0.043676287242287413
0.590000000000000302,-0.044827729535983317
0.591000000000000414,-0.045986308438886084
0.592000000000000304,-0.047151083925294004
0.593000000000000416,-0.048321136719979077
0.594000000000000306,-0.049495568222114338
0.595000000000000417,-0.050673500418738804
0.596000000000000307,-0.051854075788213383
0.597000000000000419,-0.053036457194129270
0.598000000000000309,-0.054219827770064399
0.599000000000000421,-0.055403390795590604
0.600000000000000311,-0.056586369563987313
0.601000000000000423,-0.057768007242003414
0.602000000000000313,-0.058947566722076516
0.603000000000000425,-0.060124330467378681
0.604000000000000314,-0.061297600350065019
0.605000000000000426,-0.062466697483055292
0.606000000000000316,-0.063630962045719858
0.607000000000000428,-0.064789753103789663
0.608000000000000318,-0.065942448423837077
0.609000000000000430,-0.067088444282616205
0.610000000000000320,-0.068227155271604639
0.611000000000000432,-0.069358014097026202
0.612000000000000322,-0.070480471375647821
0.613000000000000433,-0.071593995426652166
0.614000000000000323,-0.072698072059835722
0.615000000000000435,-0.073792204360430408
0.616000000000000325,-0.074875912470762931
0.617000000000000437,-0.075948733369054153
0.618000000000000327,-0.077010220645571462
0.619000000000000439,-0.078059944276363064
0.620000000000000329,-0.079097490394827982
0.621000000000000441,-0.080122461061331030
0.622000000000000330,-0.081134474031055892
0.623000000000000442,-0.082133162520351938
0.624000000000000332,-0.083118174971703276
0.625000000000000444,-0.084089174817593967
0.626000000000000334,-0.085045840243382756
0.627000000000000446,-0.085987863949413337
0.628000000000000336,-0.086914952912510363
0.629000000000000448,-0.087826828147045649
0.630000000000000338,-0.088723224465704020
0.631000000000000449,-0.089603890240152098
0.632000000000000339,-0.090468587161700989
0.633000000000000451,-0.091317090002159748
0.634000000000000341,-0.092149186374968495
0.635000000000000453,-0.092964676496801263
0.636000000000000343,-0.093763372949686175
0.637000000000000455,-0.094545100443852101
0.638000000000000345,-0.095309695581347609
0.639000000000000457,-0.096057006620579824
0.640000000000000346,-0.096786893241875352
0.641000000000000458,-0.097499226314151671
0.642000000000000348,-0.098193887662815074
0.643000000000000460,-0.098870769838963118
0.644000000000000350,-0.099529775889983310
0.645000000000000462,-0.100170819131643232
0.646000000000000352,-0.100793822921730197
0.647000000000000464,-0.101398720435339346
0.648000000000000353,-0.101985454441875151
0.649000000000000465,-0.102553977083821121
0.650000000000000355,-0.103104249657364935
0.651000000000000467,-0.103636242394916533
0.652000000000000357,-0.104149934249609721
0.653000000000000469,-0.104645312681793848
0.654000000000000359,-0.105122373447622805
0.655000000000000471,-0.105581120389736133
0.656000000000000361,-0.106021565230118325
0.657000000000000473,-0.106443727365148649
0.658000000000000362,-0.106847633662907907
0.659000000000000474,-0.107233318262745000
0.660000000000000364,-0.107600822377173680
0.661000000000000476,-0.107950194096099100
0.662000000000000366,-0.108281488193418388
0.663000000000000478,-0.108594765936023421
0.664000000000000368,-0.108890094895210801
0.665000000000000480,-0.109167548760552638
