# TiO2-rut-100_CS-10309795-AC
# h[nm],U(h)[kJ/mol]
0.149999999999999994,96.876203026438830079
0.150999999999999995,94.916469890880904359
0.151999999999999996,93.508902689026129451
0.152999999999999997,92.199303928356656002
0.153999999999999998,90.831801149620702063
0.154999999999999999,89.388037821958093332
0.156000000000000000,87.900735473690374988
0.157000000000000001,86.411090848756970217
0.158000000000000002,84.950901042016738529
0.159000000000000002,83.537758597576711850
0.160000000000000003,82.176437805486074240
0.161000000000000004,80.862600292582683892
0.162000000000000005,79.586792719393471884
0.163000000000000006,78.337803538666250347
0.164000000000000007,77.105064228401801074
0.165000000000000008,75.880104646225618126
0.166000000000000009,74.657220259928749329
0.167000000000000010,73.433556496465683949
0.168000000000000010,72.208809503519006512
0.169000000000000011,70.984711833683689974
0.170000000000000012,69.764432542437646134
0.171000000000000013,68.551982951824285806
0.172000000000000014,67.351686220665129667
0.173000000000000015,66.167742466500996557
0.174000000000000016,65.003901550016493616
0.175000000000000017,63.863242025244559841
0.176000000000000018,62.748046124531256851
0.177000000000000018,61.659755877313514816
0.178000000000000019,60.598993533289480240
0.179000000000000020,59.565629500601481539
0.180000000000000021,58.558882314194953267
0.181000000000000022,57.577437177124593859
0.182000000000000023,56.619571970519075421
0.183000000000000024,55.683282028341160697
0.184000000000000025,54.766397238824239935
0.185000000000000026,53.866687056748617124
0.186000000000000026,52.981950734933946023
0.187000000000000027,52.110091493174060417
0.188000000000000028,51.249174447740678318
0.189000000000000029,50.397468949992067166
0.190000000000000030,49.553476562821245466
0.191000000000000031,48.715946276626581835
0.192000000000000032,47.883878770263955005
0.193000000000000033,47.056521592947575527
0.194000000000000034,46.233357112673175493
0.195000000000000034,45.414084973579988969
0.196000000000000035,44.598600652461314553
0.197000000000000036,43.786971522771956700
0.198000000000000037,42.979411638360453196
0.199000000000000038,42.176256250599841735
0.200000000000000039,41.377936880334800662
0.201000000000000040,40.584957586232519589
0.202000000000000041,39.797872907704274326
0.203000000000000042,39.017267815831459643
0.204000000000000042,38.243739880618292659
0.205000000000000043,37.477883757340983095
0.206000000000000044,36.720278007970080125
0.207000000000000045,35.971474204313118150
0.208000000000000046,35.231988206044341894
0.209000000000000047,34.502293467370641622
0.210000000000000048,33.782816198884177084
0.211000000000000049,33.073932194351506553
0.212000000000000050,32.375965124046572896
0.213000000000000050,31.689186095139735500
0.214000000000000051,31.013814284137538380
0.215000000000000052,30.350018455126125616
0.216000000000000053,29.697919189463704015
0.217000000000000054,29.057591666617348380
0.218000000000000055,28.429068851222552894
0.219000000000000056,27.812344957480451768
0.220000000000000057,27.207379078145333295
0.221000000000000058,26.614098881164760968
0.222000000000000058,26.032404292177126592
0.223000000000000059,25.462171095312516655
0.224000000000000060,24.903254397905520534
0.225000000000000061,24.355491916715106271
0.226000000000000062,23.818707053997481893
0.227000000000000063,23.292711741286169058
0.228000000000000064,22.777309037016831184
0.229000000000000065,22.272295471240216358
0.230000000000000066,21.777463136660998089
0.231000000000000066,21.292601530198162152
0.232000000000000067,20.817499153273011814
0.233000000000000068,20.351944882181790319
0.234000000000000069,19.895729122294920188
0.235000000000000070,19.448644761533369518
0.236000000000000071,19.010487939693895498
0.237000000000000072,18.581058650810270194
0.238000000000000073,18.160161195927212674
0.239000000000000073,17.747604503499470496
0.240000000000000074,17.343202334173490442
0.241000000000000075,16.946773386027267350
0.242000000000000076,16.558141315483872802
0.243000000000000077,16.177134688124830575
0.244000000000000078,15.803586872550615894
0.245000000000000079,15.437335889301939673
0.246000000000000080,15.078224225697653083
0.247000000000000081,14.726098626285722304
0.248000000000000081,14.380809867465888630
0.249000000000000082,14.042212523740442265
0.250000000000000111,13.710164731996950849
0.251000000000000112,13.384527959233327721
0.252000000000000113,13.065166778207707665
0.253000000000000114,12.751948654639592817
0.254000000000000115,12.444743748804565797
0.255000000000000115,12.143424733656344117
0.256000000000000116,11.847866630974632329
0.257000000000000117,11.557946666474174791
0.258000000000000118,11.273544144318117688
0.259000000000000119,10.994540341051973087
0.260000000000000120,10.720818418611244738
0.261000000000000121,10.452263355751583163
0.262000000000000122,10.188761896999871226
0.263000000000000123,9.930202518025135205
0.264000000000000123,9.676475406173119964
0.265000000000000124,9.427472454795280399
0.266000000000000125,9.183087269925588103
0.267000000000000126,8.943215187814359979
0.268000000000000127,8.707753301811491653
0.269000000000000128,8.476600497100282183
0.270000000000000129,8.249657491811673182
0.271000000000000130,8.026826883095543153
0.272000000000000131,7.808013196786783183
0.273000000000000131,7.593122939376712566
0.274000000000000132,7.382064651082222539
0.275000000000000133,7.174748958893725437
0.276000000000000134,6.971088628576366020
0.277000000000000135,6.770998614695559858
0.278000000000000136,6.574396107835231540
0.279000000000000137,6.381200578274972557
0.280000000000000138,6.191333815488745174
0.281000000000000139,6.004719962921628351
0.282000000000000139,5.821285547592342624
0.283000000000000140,5.640959504156261239
0.284000000000000141,5.463673193146574292
0.285000000000000142,5.289360413189321264
0.286000000000000143,5.117957407060814035
0.287000000000000144,4.949402861523929609
0.288000000000000145,4.783637900941509535
0.289000000000000146,4.620606074722426015
0.290000000000000147,4.460253338706480442
0.291000000000000147,4.302528030640798917
0.292000000000000148,4.147380839940409736
0.293000000000000149,3.994764771961653249
0.294000000000000150,3.844635107047307709
0.295000000000000151,3.696949354628347173
0.296000000000000152,3.551667202688564284
0.297000000000000153,3.408750462915654200
0.298000000000000154,3.268163011875410806
0.299000000000000155,3.129870728555544268
0.300000000000000155,2.993841428631668578
0.301000000000000156,2.860044795811377050
0.302000000000000157,2.728452310612299314
0.303000000000000158,2.599037176928104209
0.304000000000000159,2.471774246731587965
0.305000000000000160,2.346639943257483374
0.306000000000000161,2.223612182999143982
0.307000000000000162,2.102670296843167197
0.308000000000000163,1.983794950654703682
0.309000000000000163,1.866968065613615835
0.310000000000000164,1.752172738588031020
0.311000000000000165,1.639393162817661009
0.312000000000000166,1.528614549164174052
0.313000000000000167,1.419823048170598456
0.314000000000000168,1.313005673156008246
0.315000000000000169,1.208150224555784025
0.316000000000000170,1.105245215701756045
0.317000000000000171,1.004279800220625463
0.318000000000000171,0.905243701213283680
0.319000000000000172,0.808127142361851014
0.320000000000000173,0.712920781096200606
0.321000000000000174,0.619615643936629823
0.322000000000000175,0.528203064114821652
0.323000000000000176,0.438674621561236044
0.324000000000000177,0.351022085333410838
0.325000000000000178,0.265237358546828506
0.326000000000000179,0.181312425857221099
0.327000000000000179,0.099239303531746176
0.328000000000000180,0.019009992134880083
0.329000000000000181,-0.059383568155612319
0.330000000000000182,-0.135949539597231689
0.331000000000000183,-0.210696226299985551
0.332000000000000184,-0.283632111025025946
0.333000000000000185,-0.354765889385681654
0.334000000000000186,-0.424106501479366016
0.335000000000000187,-0.491663160985767622
0.336000000000000187,-0.557445381773154836
0.337000000000000188,-0.621463002060199776
0.338000000000000189,-0.683726206186249574
0.339000000000000190,-0.744245544047453800
0.340000000000000191,-0.803031948260326978
0.341000000000000192,-0.860096749118153370
0.342000000000000193,-0.915451687408712855
0.343000000000000194,-0.969108925164686275
0.344000000000000195,-1.021081054420174050
0.345000000000000195,-1.071381104049112576
0.346000000000000196,-1.120022544762421246
0.347000000000000197,-1.167019292342236891
0.348000000000000198,-1.212385709192268068
0.349000000000000199,-1.256136604283806468
0.350000000000000200,-1.298287231577236911
0.351000000000000201,-1.338853286998710646
0.352000000000000202,-1.377850904051384884
0.353000000000000203,-1.415296648140081270
0.354000000000000203,-1.451207509687443942
0.355000000000000204,-1.485600896118601799
0.356000000000000205,-1.518494622790310222
0.357000000000000206,-1.549906902939290232
0.358000000000000207,-1.579856336722665677
0.359000000000000208,-1.608361899422269259
0.360000000000000209,-1.635442928882570701
0.361000000000000210,-1.661119112250187158
0.362000000000000210,-1.685410472081190658
0.363000000000000211,-1.708337351880242494
0.364000000000000212,-1.729920401133730135
0.365000000000000213,-1.750180559896825638
0.366000000000000214,-1.769139042992351474
0.367000000000000215,-1.786817323877104569
0.368000000000000216,-1.803237118229188862
0.369000000000000217,-1.818420367307526986
0.370000000000000218,-1.832389221132752821
0.371000000000000218,-1.845166021536185808
0.372000000000000219,-1.856773285121668948
0.373000000000000220,-1.867233686182677932
0.374000000000000221,-1.876570039614995355
0.375000000000000222,-1.884805283863064229
0.376000000000000223,-1.891962463936155192
0.377000000000000224,-1.898064714528223673
0.378000000000000225,-1.903135243273405663
0.379000000000000226,-1.907197314167037749
0.380000000000000226,-1.910274231180281390
0.381000000000000227,-1.912389322094227184
0.382000000000000228,-1.913565922577873168
0.383000000000000229,-1.913827360532247557
0.384000000000000230,-1.913196940721334283
0.385000000000000231,-1.911697929708847665
0.386000000000000232,-1.909353541117997155
0.387000000000000233,-1.906186921230128117
0.388000000000000234,-1.902221134936267433
0.389000000000000234,-1.897479152054408758
0.390000000000000235,-1.891983834023773570
0.391000000000000236,-1.885757920985985603
0.392000000000000237,-1.878824019261817524
0.393000000000000238,-1.871204589230898163
0.394000000000000239,-1.862921933620544923
0.395000000000000240,-1.853998186208837939
0.396000000000000241,-1.844455300945913923
0.397000000000000242,-1.834315041496389798
0.398000000000000242,-1.823598971205006247
0.399000000000000243,-1.812328443486463714
0.400000000000000244,-1.800524592639695332
0.401000000000000245,-1.788208325085999917
0.402000000000000246,-1.775400311029550648
0.403000000000000247,-1.762120976538234629
0.404000000000000248,-1.748390496042012909
0.405000000000000249,-1.734228785245385041
0.406000000000000250,-1.719655494449882527
0.407000000000000250,-1.704690002282117645
0.408000000000000251,-1.689351409822216654
0.409000000000000252,-1.673658535127160008
0.410000000000000253,-1.657629908143012587
0.411000000000000254,-1.641283765999685951
0.412000000000000255,-1.624638048681478208
0.413000000000000256,-1.607710395066371589
0.414000000000000257,-1.590518139326645874
0.415000000000000258,-1.573078307683289712
0.416000000000000258,-1.555407615506245289
0.417000000000000259,-1.537522464752496543
0.418000000000000260,-1.519438941733699089
0.419000000000000261,-1.501172815204979916
0.420000000000000262,-1.482739534766345013
0.421000000000000263,-1.464154229568082277
0.422000000000000264,-1.445431707311382485
0.423000000000000265,-1.426586453535402921
0.424000000000000266,-1.407632631181977567
0.425000000000000266,-1.388584080428985290
0.426000000000000267,-1.369454318783628555
0.427000000000000268,-1.350256541426634094
0.428000000000000269,-1.331003621798573899
0.429000000000000270,-1.311708112419505801
0.430000000000000271,-1.292382245933077378
0.431000000000000272,-1.273037936366477663
0.432000000000000273,-1.253686780597529360
0.433000000000000274,-1.234340060020402863
0.434000000000000274,-1.215008742401466169
0.435000000000000275,-1.195703483916923160
0.436000000000000276,-1.176434631364008832
0.437000000000000277,-1.157212224537562451
0.438000000000000278,-1.138045998764021238
0.439000000000000279,-1.118945387584963091
0.440000000000000280,-1.099919525582419233
0.441000000000000281,-1.080977251338405942
0.442000000000000282,-1.062127110521255302
0.443000000000000282,-1.043377359091368195
0.444000000000000283,-1.024735966619363836
0.445000000000000284,-1.006210619709575926
0.446000000000000285,-0.987808725522070885
0.447000000000000286,-0.969537415386646173
0.448000000000000287,-0.951403548502152141
0.449000000000000288,-0.933413715714997649
0.450000000000000289,-0.915574243370539720
0.451000000000000290,-0.897891197231463600
0.452000000000000290,-0.880370386457325127
0.453000000000000291,-0.863017367639564270
0.454000000000000292,-0.845837448886580079
0.455000000000000293,-0.828835693953500985
0.456000000000000294,-0.812016926411540774
0.457000000000000295,-0.795385733851965981
0.458000000000000296,-0.778946472119832256
0.459000000000000297,-0.762703269572894249
0.460000000000000298,-0.746660031361143783
0.461000000000000298,-0.730820443722716484
0.462000000000000299,-0.715187978291953796
0.463000000000000300,-0.699765896415608046
0.464000000000000301,-0.684557253473383143
0.465000000000000302,-0.669564903199070249
0.466000000000000303,-0.654791501998704062
0.467000000000000304,-0.640239513262389592
0.468000000000000305,-0.625911211666489997
0.469000000000000306,-0.611808687463056389
0.470000000000000306,-0.597933850753572749
0.471000000000000307,-0.584288435744056533
0.472000000000000308,-0.570874004978933258
0.473000000000000309,-0.557691953550996988
0.474000000000000310,-0.544743513285059322
0.475000000000000311,-0.532029756892913874
0.476000000000000312,-0.519551602097467424
0.477000000000000313,-0.507309815723866797
0.478000000000000314,-0.495305017755686527
0.479000000000000314,-0.483537685354343716
0.480000000000000315,-0.472008156839900106
0.481000000000000316,-0.460716635631697013
0.482000000000000317,-0.449663194147197465
0.483000000000000318,-0.438847777657651483
0.484000000000000319,-0.428270208099186422
0.485000000000000320,-0.417930187838112477
0.486000000000000321,-0.407827303389250662
0.487000000000000322,-0.397961029086232543
0.488000000000000322,-0.388330730702735882
0.489000000000000323,-0.378935669023844235
0.490000000000000324,-0.369775003366602850
0.491000000000000325,-0.360847795049100473
0.492000000000000326,-0.352153010807350841
0.493000000000000327,-0.343689526159424275
0.494000000000000328,-0.335456128716257518
0.495000000000000329,-0.327451521438701154
0.496000000000000330,-0.319674325840393680
0.497000000000000330,-0.312123085136153278
0.498000000000000331,-0.304796267335539273
0.499000000000000332,-0.297692268281468442
0.500000000000000333,-0.290809414633639740
0.501000000000000334,-0.284145966796656713
0.502000000000000335,-0.277700121792846422
0.503000000000000336,-0.271470016079699117
0.504000000000000337,-0.265453728311986548
0.505000000000000338,-0.259649282048634078
0.506000000000000338,-0.254054648404461569
0.507000000000000339,-0.248667748646950015
0.508000000000000340,-0.243486456738219559
0.509000000000000341,-0.238508601822490757
0.510000000000000342,-0.233731970659233623
0.511000000000000343,-0.229154310002360612
0.512000000000000344,-0.224773328925754745
0.513000000000000345,-0.220586701095509152
0.514000000000000346,-0.216592066989277215
0.515000000000000346,-0.212787036063114249
0.516000000000000347,-0.209169188866260292
0.517000000000000348,-0.205736079104364838
0.518000000000000349,-0.202485235651553463
0.519000000000000350,-0.199414164511928338
0.520000000000000351,-0.196520350730940652
0.521000000000000352,-0.193801260257262048
0.522000000000000353,-0.191254341755618451
0.523000000000000353,-0.188877028371227496
0.524000000000000354,-0.186666739446392116
0.525000000000000355,-0.184620882189854535
0.526000000000000356,-0.182736853299509200
0.527000000000000357,-0.181012040539125840
0.528000000000000358,-0.179443824269663377
0.529000000000000359,-0.178029578935872124
0.530000000000000360,-0.176766674508767097
0.531000000000000361,-0.175652477884685576
0.532000000000000361,-0.174684354241538997
0.533000000000000362,-0.173859668352970481
0.534000000000000363,-0.173175785861034187
0.535000000000000364,-0.172630074508121900
0.536000000000000365,-0.172219905328776429
0.537000000000000366,-0.171942653802090895
0.538000000000000367,-0.171795700965347409
0.539000000000000368,-0.171776434489629481
0.540000000000000369,-0.171882249718011748
0.541000000000000369,-0.172110550667095630
0.542000000000000370,-0.172458750992489807
0.543000000000000371,-0.172924274918973081
0.544000000000000372,-0.173504558135995135
0.545000000000000373,-0.174197048659188558
0.546000000000000374,-0.174999207658569855
0.547000000000000375,-0.175908510254094763
0.548000000000000376,-0.176922446279251910
0.549000000000000377,-0.178038521013322903
0.550000000000000377,-0.179254255883006863
0.551000000000000378,-0.180567189134029082
0.552000000000000379,-0.181974876473407793
0.553000000000000380,-0.183474891683008068
0.554000000000000381,-0.185064827205022209
0.555000000000000382,-0.186742294700025402
0.556000000000000383,-0.188504925578198590
0.557000000000000384,-0.190350371504392546
0.558000000000000385,-0.192276304877577603
0.559000000000000385,-0.194280419285359135
0.560000000000000386,-0.196360429934102410
0.561000000000000387,-0.198514074055296058
0.562000000000000388,-0.200739111288711858
0.563000000000000389,-0.203033324042978386
0.564000000000000390,-0.205394517834098622
0.565000000000000391,-0.207820521602505609
0.566000000000000392,-0.210309188009192377
0.567000000000000393,-0.212858393711498423
0.568000000000000393,-0.215466039619040206
0.569000000000000394,-0.218130051130377423
0.570000000000000395,-0.220848378350900043
0.571000000000000396,-0.223618996292461680
0.572000000000000397,-0.226439905055301371
0.573000000000000398,-0.229309129992691346
0.574000000000000399,-0.232224721858875410
0.575000000000000400,-0.235184756940728101
0.576000000000000401,-0.238187337173635910
0.577000000000000401,-0.241230590242078741
0.578000000000000402,-0.244312669665356808
0.579000000000000403,-0.247431754868898096
0.580000000000000404,-0.250586051241653673
0.581000000000000405,-0.253773790179940228
0.582000000000000406,-0.256993229118216537
0.583000000000000407,-0.260242651547187287
0.584000000000000408,-0.263520367019652313
0.585000000000000409,-0.266824711144505566
0.586000000000000409,-0.270154045569283574
0.587000000000000410,-0.273506757951658186
0.588000000000000411,-0.276881261920227772
0.589000000000000412,-0.280275997025025814
0.590000000000000413,-0.283689428678064071
0.591000000000000414,-0.287120048084303581
0.592000000000000415,-0.290566372163392095
0.593000000000000416,-0.294026943462503243
0.594000000000000417,-0.297500330060622376
0.595000000000000417,-0.300985125464621528
0.596000000000000418,-0.304479948497401565
0.597000000000000419,-0.307983443178469207
0.598000000000000420,-0.311494278597210850
0.599000000000000421,-0.315011148779194061
0.600000000000000422,-0.318532772545775167
0.601000000000000423,-0.322057893367289294
0.602000000000000424,-0.325585279210132916
0.603000000000000425,-0.329113722377989137
0.604000000000000425,-0.332642039347450902
0.605000000000000426,-0.336169070598328568
0.606000000000000427,-0.339693680438900580
0.607000000000000428,-0.343214756826281164
0.608000000000000429,-0.346731211182287447
0.609000000000000430,-0.350241978204860693
0.610000000000000431,-0.353746015675440340
0.611000000000000432,-0.357242304262400168
0.612000000000000433,-0.360729847320792829
0.613000000000000433,-0.364207670688661611
0.614000000000000434,-0.367674822480045793
