# TiO2-rut-100_THEOBROMINE-AC
# h[nm],U(h)[kJ/mol]
0.200000000000000011,122.867175543416848882
0.201000000000000012,120.722967001838156875
0.202000000000000013,118.811256278571633516
0.203000000000000014,117.026917676955761749
0.204000000000000015,115.306647555419502282
0.205000000000000016,113.614704010993847305
0.206000000000000016,111.932943594443457869
0.207000000000000017,110.253981602361861292
0.208000000000000018,108.576599077561041895
0.209000000000000019,106.902745649237431280
0.210000000000000020,105.235658799695372068
0.211000000000000021,103.578749575731919208
0.212000000000000022,101.935001923534812818
0.213000000000000023,100.306705296766409674
0.214000000000000024,98.695393845786128395
0.215000000000000024,97.101904886127869077
0.216000000000000025,95.526497969520391962
0.217000000000000026,93.968996432297501542
0.218000000000000027,92.428927833900146993
0.219000000000000028,90.905649792308423685
0.220000000000000029,89.398454564493150087
0.221000000000000030,87.906650206701144157
0.222000000000000031,86.429618955072129438
0.223000000000000032,84.966855092981688813
0.224000000000000032,83.517985387522912788
0.225000000000000033,82.082775453908112695
0.226000000000000034,80.661125338298532483
0.227000000000000035,79.253057335258716876
0.228000000000000036,77.858698672307241395
0.229000000000000037,76.478261266567869825
0.230000000000000038,75.112020330382819111
0.231000000000000039,73.760293200731425145
0.232000000000000040,72.423419406662645770
0.233000000000000040,71.101742676960697054
0.234000000000000041,69.795595328777352506
0.235000000000000042,68.505285265353080604
0.236000000000000043,67.231085643447556777
0.237000000000000044,65.973227143793693017
0.238000000000000045,64.731892685374276653
0.239000000000000046,63.507214361158411009
0.240000000000000047,62.299272333937139479
0.241000000000000048,61.108095411315069612
0.242000000000000048,59.933663014500005772
0.243000000000000049,58.775908262604083632
0.244000000000000050,57.634721909592386169
0.245000000000000051,56.509956892166279374
0.246000000000000052,55.401433271617420928
0.247000000000000053,54.308943379315607558
0.248000000000000054,53.232257002663800449
0.249000000000000055,52.171126475048836824
0.250000000000000056,51.125291558788276802
0.251000000000000056,50.094484033799794531
0.252000000000000057,49.078431926361318460
0.253000000000000058,48.076863331696863213
0.254000000000000059,47.089509801136372857
0.255000000000000060,46.116109279272109234
0.256000000000000061,45.156408588948600880
0.257000000000000062,44.210165472201950365
0.258000000000000063,43.277150203566854714
0.259000000000000064,42.357146798674023103
0.260000000000000064,41.449953845951462483
0.261000000000000065,40.555384992714841985
0.262000000000000066,39.673269119163791174
0.263000000000000067,38.803450234978427602
0.264000000000000068,37.945787133494704335
0.265000000000000069,37.100152837986193788
0.266000000000000070,36.266433873535433463
0.267000000000000071,35.444529396462094439
0.268000000000000071,34.634350211407038955
0.269000000000000072,33.835817704042490561
0.270000000000000073,33.048862715078726637
0.271000000000000074,32.273424378838406312
0.272000000000000075,31.509448947230076499
0.273000000000000076,30.756888617527017971
0.274000000000000077,30.015700379983485391
0.275000000000000078,29.285844899033236288
0.276000000000000079,28.567285439639249489
0.277000000000000079,27.859986848316470542
0.278000000000000080,27.163914596446886662
0.279000000000000081,26.479033891753299912
0.280000000000000082,25.805308862202434028
0.281000000000000083,25.142701815167011858
0.282000000000000084,24.491172573391619238
0.283000000000000085,23.850677888172050700
0.284000000000000086,23.221170929166433439
0.285000000000000087,22.602600849404836936
0.286000000000000087,21.994912423339133767
0.287000000000000088,21.398045755172358184
0.288000000000000089,20.811936054215049552
0.289000000000000090,20.236513473625581838
0.290000000000000091,19.671703008595553541
0.291000000000000092,19.117424449826280863
0.292000000000000093,18.573592388003891784
0.293000000000000094,18.040116264907076982
0.294000000000000095,17.516900466765982003
0.295000000000000095,17.003844455524340873
0.296000000000000096,16.500842933735345497
0.297000000000000097,16.007786038933723205
0.298000000000000098,15.524559563471020951
0.299000000000000099,15.051045195967697410
0.300000000000000100,14.587120780723520141
0.301000000000000101,14.132660591628830815
0.302000000000000102,13.687535617332287075
0.303000000000000103,13.251613854639060719
0.304000000000000103,12.824760607337831075
0.305000000000000104,12.406838787877987329
0.306000000000000105,11.997709219541844661
0.307000000000000106,11.597230936975831739
0.308000000000000107,11.205261483158427183
0.309000000000000108,10.821657201090685518
0.310000000000000109,10.446273518693857341
0.311000000000000110,10.078965225590964749
0.312000000000000111,9.719586740628956889
0.313000000000000111,9.367992369171021849
0.314000000000000112,9.024036549348949166
0.315000000000000113,8.687574086616315583
0.316000000000000114,8.358460376083229448
0.317000000000000115,8.036551612242863740
0.318000000000000116,7.721704985818929501
0.319000000000000117,7.413778867572022868
0.320000000000000118,7.112632979001766387
0.321000000000000119,6.818128549970507990
0.322000000000000119,6.530128463354579083
0.323000000000000120,6.248497386900529804
0.324000000000000121,5.973101892525763290
0.325000000000000122,5.703810563358631569
0.326000000000000123,5.440494088860003963
0.327000000000000124,5.183025348408916599
0.328000000000000125,4.931279483768600258
0.329000000000000126,4.685133960877299941
0.330000000000000127,4.444468621430306854
0.331000000000000127,4.209165724736910086
0.332000000000000128,3.979109980348373377
0.333000000000000129,3.754188571961037724
0.334000000000000130,3.534291173103308203
0.335000000000000131,3.319309955115376631
0.336000000000000132,3.109139587929087511
0.337000000000000133,2.903677234149493191
0.338000000000000134,2.702822536932243391
0.339000000000000135,2.506477602141763406
0.340000000000000135,2.314546975262689266
0.341000000000000136,2.126937613524690907
0.342000000000000137,1.943558853685826815
0.343000000000000138,1.764322375904305407
0.344000000000000139,1.589142164111533528
0.345000000000000140,1.417934463282653823
0.346000000000000141,1.250617733982577917
0.347000000000000142,1.087112604547665562
0.348000000000000143,0.927341821244620279
0.349000000000000143,0.771230196729866257
0.350000000000000144,0.618704557114052034
0.351000000000000145,0.469693687918264491
0.352000000000000146,0.324128279190018187
0.353000000000000147,0.181940870029668467
0.354000000000000148,0.043065792760106449
0.355000000000000149,-0.092560883044298853
0.356000000000000150,-0.225001406470140081
0.357000000000000151,-0.354316400935541065
0.358000000000000151,-0.480564919451042072
0.359000000000000152,-0.603804499317948107
0.360000000000000153,-0.724091216125822612
0.361000000000000154,-0.841479736924037325
0.362000000000000155,-0.956023372456008325
0.363000000000000156,-1.067774128356735908
0.364000000000000157,-1.176782755226217336
0.365000000000000158,-1.283098797502802757
0.366000000000000159,-1.386770641070480981
0.367000000000000159,-1.487845559544810792
0.368000000000000160,-1.586369759190845441
0.369000000000000161,-1.682388422435617814
0.370000000000000162,-1.775945749945712748
0.371000000000000163,-1.867085001248008025
0.372000000000000164,-1.955848533878816742
0.373000000000000165,-2.042277841053024456
0.374000000000000166,-2.126413587851138765
0.375000000000000167,-2.208295645926996897
0.376000000000000167,-2.287963126744763542
0.377000000000000168,-2.365454413357761521
0.378000000000000169,-2.440807190746094868
0.379000000000000170,-2.514058474733717130
0.380000000000000171,-2.585244639509045150
0.381000000000000172,-2.654401443775925795
0.382000000000000173,-2.721564055564679840
0.383000000000000174,-2.786767075735139709
0.384000000000000175,-2.850044560205517108
0.385000000000000175,-2.911430040942659225
0.386000000000000176,-2.970956545750945033
0.387000000000000177,-3.028656616897663412
0.388000000000000178,-3.084562328614432580
0.389000000000000179,-3.138705303514160772
0.390000000000000180,-3.191116727964180555
0.391000000000000181,-3.241827366456218495
0.392000000000000182,-3.290867575013999957
0.393000000000000183,-3.338267313679506909
0.394000000000000183,-3.384056158118522895
0.395000000000000184,-3.428263310386037599
0.396000000000000185,-3.470917608891523454
0.397000000000000186,-3.512047537603645075
0.398000000000000187,-3.551681234533509812
0.399000000000000188,-3.589846499534679936
0.400000000000000189,-3.626570801457424498
0.401000000000000190,-3.661881284694147531
0.402000000000000191,-3.695804775151658728
0.403000000000000191,-3.728367785685219982
0.404000000000000192,-3.759596521028440996
0.405000000000000193,-3.789516882251739105
0.406000000000000194,-3.818154470781460752
0.407000000000000195,-3.845534592010358299
0.408000000000000196,-3.871682258529189458
0.409000000000000197,-3.896622193008131951
0.410000000000000198,-3.920378830755591792
0.411000000000000199,-3.942976321980680154
0.412000000000000199,-3.964438533785022312
0.413000000000000200,-3.984789051907784874
0.414000000000000201,-4.004051182247442497
0.415000000000000202,-4.022247952182079089
0.416000000000000203,-4.039402111709418541
0.417000000000000204,-4.055536134426518835
0.418000000000000205,-4.070672218368016182
0.419000000000000206,-4.084832286720978090
0.420000000000000207,-4.098037988433109291
0.421000000000000207,-4.110310698730567758
0.422000000000000208,-4.121671519560107022
0.423000000000000209,-4.132141279969948400
0.424000000000000210,-4.141740536442473086
0.425000000000000211,-4.150489573191059378
0.426000000000000212,-4.158408402432794304
0.427000000000000213,-4.165516764647544612
0.428000000000000214,-4.171834128833536326
0.429000000000000214,-4.177379692768505848
0.430000000000000215,-4.182172383284988193
0.431000000000000216,-4.186230856567481950
0.432000000000000217,-4.189573498478642577
0.433000000000000218,-4.192218424920904241
0.434000000000000219,-4.194183482239510319
0.435000000000000220,-4.195486247672199021
0.436000000000000221,-4.196144029850257695
0.437000000000000222,-4.196173869355168229
0.438000000000000222,-4.195592539334559667
0.439000000000000223,-4.194416546180717020
0.440000000000000224,-4.192662130274394272
0.441000000000000225,-4.190345266796247081
0.442000000000000226,-4.187481666607988373
0.443000000000000227,-4.184086777204593766
0.444000000000000228,-4.180175783739053408
0.445000000000000229,-4.175763610120307945
0.446000000000000230,-4.170864920185033853
0.447000000000000230,-4.165494118943590784
0.448000000000000231,-4.159665353900072304
0.449000000000000232,-4.153392516446118066
0.450000000000000233,-4.146689243328234298
0.451000000000000234,-4.139568918187597646
0.452000000000000235,-4.132044673171715310
0.453000000000000236,-4.124129390616563029
0.454000000000000237,-4.115835704798205263
0.455000000000000238,-4.107176003752224247
0.456000000000000238,-4.098162431159522612
0.457000000000000239,-4.088806888296774744
0.458000000000000240,-4.079121036049698112
0.459000000000000241,-4.069116296987185244
0.460000000000000242,-4.058803857494410749
0.461000000000000243,-4.048194669962636993
0.462000000000000244,-4.037299455033819484
0.463000000000000245,-4.026128703897422945
0.464000000000000246,-4.014692680637606870
0.465000000000000246,-4.003001424628119587
0.466000000000000247,-3.991064752972736329
0.467000000000000248,-3.978892262988824147
0.468000000000000249,-3.966493334731656883
0.469000000000000250,-3.953877133557075041
0.470000000000000251,-3.941052612720076009
0.471000000000000252,-3.928028516006909943
0.472000000000000253,-3.914813380398429299
0.473000000000000254,-3.901415538762061264
0.474000000000000254,-3.887843122570301624
0.475000000000000255,-3.874104064643163703
0.476000000000000256,-3.860206101912427634
0.477000000000000257,-3.846156778205314541
0.478000000000000258,-3.831963447045345639
0.479000000000000259,-3.817633274468189342
0.480000000000000260,-3.803173241850294595
0.481000000000000261,-3.788590148748180120
0.482000000000000262,-3.773890615746255062
0.483000000000000262,-3.759081087311229030
0.484000000000000263,-3.744167834650910187
0.485000000000000264,-3.729156958575680303
0.486000000000000265,-3.714054392360582657
0.487000000000000266,-3.698865904606171817
0.488000000000000267,-3.683597102096456410
0.489000000000000268,-3.668253432652079482
0.490000000000000269,-3.652840187977071107
0.491000000000000270,-3.637362506497602510
0.492000000000000270,-3.621825376191066592
0.493000000000000271,-3.606233637404061110
0.494000000000000272,-3.590591985657755281
0.495000000000000273,-3.574904974439237826
0.496000000000000274,-3.559177017977513735
0.497000000000000275,-3.543412394002827259
0.498000000000000276,-3.527615246488092104
0.499000000000000277,-3.511789588371247106
0.500000000000000222,-3.495939304257345448
0.501000000000000334,-3.480068153099396433
0.502000000000000224,-3.464179770856846030
0.503000000000000336,-3.448277673130760945
0.504000000000000226,-3.432365257774812051
0.505000000000000338,-3.416445807481123698
0.506000000000000227,-3.400522492340253500
0.507000000000000339,-3.384598372374450825
0.508000000000000229,-3.368676400043519870
0.509000000000000341,-3.352759422722544791
0.510000000000000231,-3.336850185150992409
0.511000000000000343,-3.320951331852393107
0.512000000000000233,-3.305065409524235776
0.513000000000000345,-3.289194869397459975
0.514000000000000234,-3.273342069565225554
0.515000000000000346,-3.257509277280321136
0.516000000000000236,-3.241698671221075578
0.517000000000000348,-3.225912343725236830
0.518000000000000238,-3.210152302991675644
0.519000000000000350,-3.194420475249498459
0.520000000000000240,-3.178718706894418489
0.521000000000000352,-3.163048766592232219
0.522000000000000242,-3.147412347349096251
0.523000000000000353,-3.131811068548617349
0.524000000000000243,-3.116246477955529670
0.525000000000000355,-3.100720053685990685
0.526000000000000245,-3.085233206144375906
0.527000000000000357,-3.069787279926569745
0.528000000000000247,-3.054383555689785368
0.529000000000000359,-3.039023251988906882
0.530000000000000249,-3.023707527079457780
0.531000000000000361,-3.008437480687212062
0.532000000000000250,-2.993214155744617244
0.533000000000000362,-2.978038540094110509
0.534000000000000252,-2.962911568158449249
0.535000000000000364,-2.947834122578294913
0.536000000000000254,-2.932807035817166952
0.537000000000000366,-2.917831091733940507
0.538000000000000256,-2.902907027123212469
0.539000000000000368,-2.888035533223618945
0.540000000000000258,-2.873217257194505603
0.541000000000000369,-2.858452803561029931
0.542000000000000259,-2.843742735628162599
0.543000000000000371,-2.829087576863698494
0.544000000000000261,-2.814487812250678456
0.545000000000000373,-2.799943889609500580
0.546000000000000263,-2.785456220890037748
0.547000000000000375,-2.771025183434019823
0.548000000000000265,-2.756651121208205435
0.549000000000000377,-2.742334346008416635
0.550000000000000266,-2.728075138635044805
0.551000000000000378,-2.713873750040201926
0.552000000000000268,-2.699730402446966604
0.553000000000000380,-2.685645290441085464
0.554000000000000270,-2.671618582035512723
0.555000000000000382,-2.657650419708075251
0.556000000000000272,-2.643740921412849776
0.557000000000000384,-2.629890181565354368
0.558000000000000274,-2.616098272002267855
0.559000000000000385,-2.602365242915756660
0.560000000000000275,-2.588691123763058322
0.561000000000000387,-2.575075924151558393
0.562000000000000277,-2.561519634699824799
0.563000000000000389,-2.548022227875003765
0.564000000000000279,-2.534583658806948137
0.565000000000000391,-2.521203866079499090
0.566000000000000281,-2.507882772499320456
0.567000000000000393,-2.494620285842668483
0.568000000000000282,-2.481416299580551321
0.569000000000000394,-2.468270693582585551
0.570000000000000284,-2.455183334800034256
0.571000000000000396,-2.442154077928376577
0.572000000000000286,-2.429182766049852393
0.573000000000000398,-2.416269231256259253
0.574000000000000288,-2.403413295252550874
0.575000000000000400,-2.390614769941513007
0.576000000000000290,-2.377873457989937211
0.577000000000000401,-2.365189153376672682
0.578000000000000291,-2.352561641922946478
0.579000000000000403,-2.339990701805311879
0.580000000000000293,-2.327476104051613426
0.581000000000000405,-2.315017613020311504
0.582000000000000295,-2.302614986863595892
0.583000000000000407,-2.290267977974562719
0.584000000000000297,-2.277976333418870958
0.585000000000000409,-2.265739795351240815
0.586000000000000298,-2.253558101417104442
0.587000000000000410,-2.241430985139778898
0.588000000000000300,-2.229358176293522398
0.589000000000000412,-2.217339401262749199
0.590000000000000302,-2.205374383387796122
0.591000000000000414,-2.193462843297589338
0.592000000000000304,-2.181604499229443217
0.593000000000000416,-2.169799067336368292
0.594000000000000306,-2.158046261982263125
0.595000000000000417,-2.146345796025160180
0.596000000000000307,-2.134697381088957346
0.597000000000000419,-2.123100727823875378
0.598000000000000309,-2.111555546155973850
0.599000000000000421,-2.100061545525933493
0.600000000000000311,-2.088618435117537864
0.601000000000000423,-2.077225924075977392
0.602000000000000313,-2.065883721716383015
0.603000000000000425,-2.054591537722747052
0.604000000000000314,-2.043349082337643452
0.605000000000000426,-2.032156066542824213
0.606000000000000316,-2.021012202231136534
0.607000000000000428,-2.009917202369861933
0.608000000000000318,-1.998870781155861254
0.609000000000000430,-1.987872654162617492
0.610000000000000320,-1.976922538479585656
0.611000000000000432,-1.966020152843920288
0.612000000000000322,-1.955165217764937236
0.613000000000000433,-1.944357455641460675
0.614000000000000323,-1.933596590872309617
0.615000000000000435,-1.922882349960128634
0.616000000000000325,-1.912214461608771288
0.617000000000000437,-1.901592656814441451
0.618000000000000327,-1.891016668950835866
0.619000000000000439,-1.880486233848394750
0.620000000000000329,-1.870001089867960431
0.621000000000000441,-1.859560977968967688
0.622000000000000330,-1.849165641772356095
0.623000000000000442,-1.838814827618419301
0.624000000000000332,-1.828508284619723145
0.625000000000000444,-1.818245764709307100
0.626000000000000334,-1.808027022684318252
0.627000000000000446,-1.797851816245224388
0.628000000000000336,-1.787719906030806882
0.629000000000000448,-1.777631055649068204
0.630000000000000338,-1.767585031704194787
0.631000000000000449,-1.757581603819761584
0.632000000000000339,-1.747620544658274877
0.633000000000000451,-1.737701629937249637
0.634000000000000341,-1.727824638441899596
0.635000000000000453,-1.717989352034655637
0.636000000000000343,-1.708195555661542020
0.637000000000000455,-1.698443037355624297
0.638000000000000345,-1.688731588237634140
0.639000000000000457,-1.679061002513824619
0.640000000000000346,-1.669431077471311031
0.641000000000000458,-1.659841613470839361
0.642000000000000348,-1.650292413937272329
0.643000000000000460,-1.640783285347747533
0.644000000000000350,-1.631314037217720170
0.645000000000000462,-1.621884482084929413
0.646000000000000352,-1.612494435491436118
0.647000000000000464,-1.603143715963759375
0.648000000000000353,-1.593832144991331079
0.649000000000000465,-1.584559547003175473
0.650000000000000355,-1.575325749343109427
0.651000000000000467,-1.566130582243350888
0.652000000000000357,-1.556973878796808153
0.653000000000000469,-1.547855474927942954
0.654000000000000359,-1.538775209362470253
0.655000000000000471,-1.529732923595793048
0.656000000000000361,-1.520728461860415326
0.657000000000000473,-1.511761671092241022
0.658000000000000362,-1.502832400895979692
0.659000000000000474,-1.493940503509599838
0.660000000000000364,-1.485085833767993302
0.661000000000000476,-1.476268249065820992
0.662000000000000366,-1.467487609319690023
0.663000000000000478,-1.458743776929651403
