# TiO2-rut-100_ATRAZINE-AC
# h[nm],U(h)[kJ/mol]
0.200000000000000011,107.132121193722198882
0.201000000000000012,105.146183196079761046
0.202000000000000013,103.330494109297575278
0.203000000000000014,101.624409129150976128
0.204000000000000015,99.986670927456287927
0.205000000000000016,98.390343811886992853
0.206000000000000016,96.818814033649104545
0.207000000000000017,95.262690000950115632
0.208000000000000018,93.717446873653074135
0.209000000000000019,92.181675537526331254
0.210000000000000020,90.655813548905484822
0.211000000000000021,89.141253520112812225
0.212000000000000022,87.639741476537011522
0.213000000000000023,86.152993323507303103
0.214000000000000024,84.682471403132055343
0.215000000000000024,83.229275100729935843
0.216000000000000025,81.794109617127389811
0.217000000000000026,80.377305479341544014
0.218000000000000027,78.978868285141530237
0.219000000000000028,77.598543752930964956
0.220000000000000029,76.235887565770227070
0.221000000000000030,74.890332937257156232
0.222000000000000031,73.561251452973380083
0.223000000000000032,72.248004702207367700
0.224000000000000032,70.949985639892958034
0.225000000000000033,69.666649618934314958
0.226000000000000034,68.397535701733772839
0.227000000000000035,67.142279274426769575
0.228000000000000036,65.900617211621593583
0.229000000000000037,64.672386924700532518
0.230000000000000038,63.457520613837118617
0.231000000000000039,62.256035964875160005
0.232000000000000040,61.068024411794660011
0.233000000000000040,59.893637942323380230
0.234000000000000041,58.733075272101203268
0.235000000000000042,57.586568061524204154
0.236000000000000043,56.454367705733226046
0.237000000000000044,55.336733096530380749
0.238000000000000045,54.233919637819759885
0.239000000000000046,53.146169694629101343
0.240000000000000047,52.073704570023537030
0.241000000000000048,51.016718033724586689
0.242000000000000048,49.975371369974979530
0.243000000000000049,48.949789868832091599
0.244000000000000050,47.940060653173858896
0.245000000000000051,46.946231711736928105
0.246000000000000052,45.968311994994408565
0.247000000000000053,45.006272424188743742
0.248000000000000054,44.060047663051449263
0.249000000000000055,43.129538505467721166
0.250000000000000056,42.214614739523227627
0.251000000000000056,41.315118358073412708
0.252000000000000057,40.430866997412962860
0.253000000000000058,39.561657498125477161
0.254000000000000059,38.707269495208819876
0.255000000000000060,37.867468957654878636
0.256000000000000061,37.042011610459290694
0.257000000000000062,36.230646184278093358
0.258000000000000063,35.433117449433517265
0.259000000000000064,34.649169001562981407
0.260000000000000064,33.878545775814785657
0.261000000000000065,33.120996275077665416
0.262000000000000066,32.376274505273052284
0.263000000000000067,31.644141617260970634
0.264000000000000068,30.924367260441755434
0.265000000000000069,30.216730657733780419
0.266000000000000070,29.521021415332931781
0.267000000000000071,28.837040083581900518
0.268000000000000071,28.164598487474005850
0.269000000000000072,27.503519846860985609
0.270000000000000073,26.853638707402904373
0.271000000000000074,26.214800703768212031
0.272000000000000075,25.586862176628144994
0.273000000000000076,24.969689664665519757
0.274000000000000077,24.363159292189486393
0.275000000000000078,23.767156072077003870
0.276000000000000079,23.181573142697697421
0.277000000000000079,22.606310956268231394
0.278000000000000080,22.041276434769322634
0.279000000000000081,21.486382108175643424
0.280000000000000082,20.941545248331010498
0.281000000000000083,20.406687010373790514
0.282000000000000084,19.881731592204054948
0.283000000000000085,19.366605421103681550
0.284000000000000086,18.861236375287898426
0.285000000000000087,18.365553046896188505
0.286000000000000087,17.879484051729043870
0.287000000000000088,17.402957389913730424
0.288000000000000089,16.935899860640578396
0.289000000000000090,16.478236533154856147
0.290000000000000091,16.029890275319484516
0.291000000000000092,15.590781340278876854
0.292000000000000093,15.160827011055408420
0.293000000000000094,14.739941302292717040
0.294000000000000095,14.328034717822461630
0.295000000000000095,13.925014062268974868
0.296000000000000096,13.530782304515991399
0.297000000000000097,13.145238490536147680
0.298000000000000098,12.768277702822974362
0.299000000000000099,12.399791063461679030
0.300000000000000100,12.039665777724449569
0.301000000000000101,11.687785214972979730
0.302000000000000102,11.344029023592083760
0.303000000000000103,11.008273276656250772
0.304000000000000103,10.680390645045564568
0.305000000000000104,10.360250594769736310
0.306000000000000105,10.047719605328792269
0.307000000000000106,9.742661406030347138
0.308000000000000107,9.444937227293655368
0.309000000000000108,9.154406064096706430
0.310000000000000109,8.870924948860134052
0.311000000000000110,8.594349231211179330
0.312000000000000111,8.324532862224511831
0.313000000000000111,8.061328680898643739
0.314000000000000112,7.804588700789001798
0.315000000000000113,7.554164394883872369
0.316000000000000114,7.309906976973152837
0.317000000000000115,7.071667677922791384
0.318000000000000116,6.839298015426739319
0.319000000000000117,6.612650055964159890
0.320000000000000118,6.391576667840020320
0.321000000000000119,6.175931764332152518
0.322000000000000119,5.965570536106975297
0.323000000000000120,5.760349672198349147
0.324000000000000121,5.560127568968949774
0.325000000000000122,5.364764526592070482
0.326000000000000123,5.174122932702220012
0.327000000000000124,4.988067432966282411
0.328000000000000125,4.806465088422500642
0.329000000000000126,4.629185519523388415
0.330000000000000127,4.456101036899278611
0.331000000000000127,4.287086758933493336
0.332000000000000128,4.122020716306946220
0.333000000000000129,3.960783943730164847
0.334000000000000130,3.803260559134764129
0.335000000000000131,3.649337830643415881
0.336000000000000132,3.498906231679666856
0.337000000000000133,3.351859484614396312
0.338000000000000134,3.208094593376519921
0.339000000000000135,3.067511865481583389
0.340000000000000135,2.930014923952202643
0.341000000000000136,2.795510709621595424
0.342000000000000137,2.663909474323486126
0.343000000000000138,2.535124765480880615
0.344000000000000139,2.409073402611082493
0.345000000000000140,2.285675446266858479
0.346000000000000141,2.164854159932704469
0.347000000000000142,2.046535965391961032
0.348000000000000143,1.930650392074612087
0.349000000000000143,1.817130020888013231
0.350000000000000144,1.705910423022853006
0.351000000000000145,1.596930094215573082
0.352000000000000146,1.490130384935342889
0.353000000000000147,1.385455426950010116
0.354000000000000148,1.282852056710025224
0.355000000000000149,1.182269735973574765
0.356000000000000150,1.083660470079383487
0.357000000000000151,0.986978724256364237
0.358000000000000151,0.892181338341623720
0.359000000000000152,0.799227440260355415
0.360000000000000153,0.708078358602736491
0.361000000000000154,0.618697534615091471
0.362000000000000155,0.531050433903838881
0.363000000000000156,0.445104458132886183
0.364000000000000157,0.360828856977162715
0.365000000000000158,0.278194640576857277
0.366000000000000159,0.197174492720173011
0.367000000000000159,0.117742684964607228
0.368000000000000160,0.039874991890730183
0.369000000000000161,-0.036451392334135281
0.370000000000000162,-0.111257935920481360
0.371000000000000163,-0.184564849802781539
0.372000000000000164,-0.256391166235271306
0.373000000000000165,-0.326754815519399167
0.374000000000000166,-0.395672700758711915
0.375000000000000167,-0.463160770549404688
0.376000000000000167,-0.529234089527682583
0.377000000000000168,-0.593906906706401450
0.378000000000000169,-0.657192721544698322
0.379000000000000170,-0.719104347704949021
0.380000000000000171,-0.779653974461326449
0.381000000000000172,-0.838853225733483421
0.382000000000000173,-0.896713216727856866
0.383000000000000174,-0.953244608177296948
0.384000000000000175,-1.008457658177343230
0.385000000000000175,-1.062362271624637922
0.386000000000000176,-1.114968047269850659
0.387000000000000177,-1.166284322403149387
0.388000000000000178,-1.216320215196479593
0.389000000000000179,-1.265084664731551900
0.390000000000000180,-1.312586468747575674
0.391000000000000181,-1.358834319146879022
0.392000000000000182,-1.403836835300366737
0.393000000000000183,-1.447602595198468345
0.394000000000000183,-1.490140164496076780
0.395000000000000184,-1.531458123502915880
0.396000000000000185,-1.571565092173015987
0.397000000000000186,-1.610469753149076144
0.398000000000000187,-1.648180872919347451
0.399000000000000188,-1.684707321146020176
0.400000000000000189,-1.720058088225216553
0.401000000000000190,-1.754242301139926852
0.402000000000000191,-1.787269237667552080
0.403000000000000191,-1.819148339004386772
0.404000000000000192,-1.849889220869657125
0.405000000000000193,-1.879501683151602265
0.406000000000000194,-1.907995718158207676
0.407000000000000195,-1.935381517534706886
0.408000000000000196,-1.961669477909628867
0.409000000000000197,-1.986870205330559358
0.410000000000000198,-2.010994518550135446
0.411000000000000199,-2.034053451221740527
0.412000000000000199,-2.056058253063812735
0.413000000000000200,-2.077020390050205556
0.414000000000000201,-2.096951543683331476
0.415000000000000202,-2.115863609405272072
0.416000000000000203,-2.133768694201049421
0.417000000000000204,-2.150679113446770430
0.418000000000000205,-2.166607387054032330
0.419000000000000206,-2.181566234960616413
0.420000000000000207,-2.195568572015881958
0.421000000000000207,-2.208627502308087909
0.422000000000000208,-2.220756312978955815
0.423000000000000209,-2.231968467569713788
0.424000000000000210,-2.242277598940989769
0.425000000000000211,-2.251697501807489399
0.426000000000000212,-2.260242124927008156
0.427000000000000213,-2.267925562981469856
0.428000000000000214,-2.274762048186488084
0.429000000000000214,-2.280765941664169905
0.430000000000000215,-2.285951724612524938
0.431000000000000216,-2.290333989303298345
0.432000000000000217,-2.293927429938563911
0.433000000000000218,-2.296746833394928800
0.434000000000000219,-2.298807069882910170
0.435000000000000220,-2.300123083547486846
0.436000000000000221,-2.300709883034532499
0.437000000000000222,-2.300582532046453910
0.438000000000000222,-2.299756139909121533
0.439000000000000223,-2.298245852170807346
0.440000000000000224,-2.296066841252648594
0.441000000000000225,-2.293234297168874392
0.442000000000000226,-2.289763418334024525
0.443000000000000227,-2.285669402472942480
0.444000000000000228,-2.280967437648584895
0.445000000000000229,-2.275672693421288528
0.446000000000000230,-2.269800312152244981
0.447000000000000230,-2.263365400462999499
0.448000000000000231,-2.256383020861677302
0.449000000000000232,-2.248868183545724708
0.450000000000000233,-2.240835838390260015
0.451000000000000234,-2.232300867129908717
0.452000000000000235,-2.223278075741603743
0.453000000000000236,-2.213782187034550653
0.454000000000000237,-2.203827833453359197
0.455000000000000238,-2.193429550099056602
0.456000000000000238,-2.182601767972443874
0.457000000000000239,-2.171358807443369177
0.458000000000000240,-2.159714871948945625
0.459000000000000241,-2.147684041923054288
0.460000000000000242,-2.135280268959133920
0.461000000000000243,-2.122517370207371190
0.462000000000000244,-2.109409023007325690
0.463000000000000245,-2.095968759756023037
0.464000000000000246,-2.082209963011724785
0.465000000000000246,-2.068145860832558469
0.466000000000000247,-2.053789522349185770
0.467000000000000248,-2.039153853570166763
0.468000000000000249,-2.024251593418334050
0.469000000000000250,-2.009095309996194345
0.470000000000000251,-1.993697397078033173
0.471000000000000252,-1.978070070826106530
0.472000000000000253,-1.962225366728215237
0.473000000000000254,-1.946175136753333090
0.474000000000000254,-1.929931046722223487
0.475000000000000255,-1.913504573889334592
0.476000000000000256,-1.896907004732387048
0.477000000000000257,-1.880149432945755095
0.478000000000000258,-1.863242757633579938
0.479000000000000259,-1.846197681698515058
0.480000000000000260,-1.829024710421792932
0.481000000000000261,-1.811734150230200013
0.482000000000000262,-1.794336107645525757
0.483000000000000262,-1.776840488411916441
0.484000000000000263,-1.759256996796435102
0.485000000000000264,-1.741595135058249255
0.486000000000000265,-1.723864203081628244
0.487000000000000266,-1.706073298167990915
0.488000000000000267,-1.688231314982252540
0.489000000000000268,-1.670346945648625736
0.490000000000000269,-1.652428679991052807
0.491000000000000270,-1.634484805913495098
0.492000000000000270,-1.616523409915203047
0.493000000000000271,-1.598552377736259356
0.494000000000000272,-1.580579395128566933
0.495000000000000273,-1.562611948747560708
0.496000000000000274,-1.544657327159967064
0.497000000000000275,-1.526722621962899540
0.498000000000000276,-1.508814729009742228
0.499000000000000277,-1.490940349738222315
0.500000000000000222,-1.473105992596138947
0.501000000000000334,-1.455317974560374816
0.502000000000000224,-1.437582422744760446
0.503000000000000336,-1.419905276092454205
0.504000000000000226,-1.402292287148684924
0.505000000000000338,-1.384749023909557675
0.506000000000000227,-1.367280871742959203
0.507000000000000339,-1.349893035377440764
0.508000000000000229,-1.332590540955205682
0.509000000000000341,-1.315378238145282319
0.510000000000000231,-1.298260802313234041
0.511000000000000343,-1.281242736743535726
0.512000000000000233,-1.264328374911177111
0.513000000000000345,-1.247521882798861448
0.514000000000000234,-1.230827261256502547
0.515000000000000346,-1.214248348399484589
0.516000000000000236,-1.197788822042631152
0.517000000000000348,-1.181452202166577647
0.518000000000000238,-1.165241853413571782
0.519000000000000350,-1.149160987609610274
0.520000000000000240,-1.133212666310079442
0.521000000000000352,-1.117399803366114996
0.522000000000000242,-1.101725167508847303
0.523000000000000353,-1.086191384949010130
0.524000000000000243,-1.070800941989261679
0.525000000000000355,-1.055556187646840893
0.526000000000000245,-1.040459336284108804
0.527000000000000357,-1.025512470244680951
0.528000000000000247,-1.010717542492991727
0.529000000000000359,-0.996076379255063538
0.530000000000000249,-0.981590682658519897
0.531000000000000361,-0.967262033369785335
0.532000000000000250,-0.953091893226638343
0.533000000000000362,-0.939081607864250545
0.534000000000000252,-0.925232409332975236
0.535000000000000364,-0.911545418706243282
0.536000000000000254,-0.898021648676947670
0.537000000000000366,-0.884662006140733759
0.538000000000000256,-0.871467294764866951
0.539000000000000368,-0.858438217541137361
0.540000000000000258,-0.845575379321622078
0.541000000000000369,-0.832879289335900053
0.542000000000000259,-0.820350363688680972
0.543000000000000371,-0.807988927836582826
0.544000000000000261,-0.795795219043066826
0.545000000000000373,-0.783769388810508616
0.546000000000000263,-0.771911505288439437
0.547000000000000375,-0.760221555657018766
0.548000000000000265,-0.748699448485043106
0.549000000000000377,-0.737345016061489167
0.550000000000000266,-0.726158016700066189
0.551000000000000378,-0.715138137015939312
0.552000000000000268,-0.704284994174065204
0.553000000000000380,-0.693598138108528661
0.554000000000000270,-0.683077053712362159
0.555000000000000382,-0.672721162997274247
0.556000000000000272,-0.662529827222977930
0.557000000000000384,-0.652502348995502968
0.558000000000000274,-0.642637974334355877
0.559000000000000385,-0.632935894707961189
0.560000000000000275,-0.623395249037286492
0.561000000000000387,-0.614015125667259798
0.562000000000000277,-0.604794564305812243
0.563000000000000389,-0.595732557930356399
0.564000000000000279,-0.586828054661532428
0.565000000000000391,-0.578079959604093641
0.566000000000000281,-0.569487136654843740
0.567000000000000393,-0.561048410277557030
0.568000000000000282,-0.552762567244865277
0.569000000000000394,-0.544628358347044150
0.570000000000000284,-0.536644500067770647
0.571000000000000396,-0.528809676226862591
0.572000000000000286,-0.521122539590100464
0.573000000000000398,-0.513581713446116916
0.574000000000000288,-0.506185793150589758
0.575000000000000400,-0.498933347637791513
0.576000000000000290,-0.491822920899631366
0.577000000000000401,-0.484853033432409375
0.578000000000000291,-0.478022183651413246
0.579000000000000403,-0.471328849273587092
0.580000000000000293,-0.464771488668484889
0.581000000000000405,-0.458348542177714702
0.582000000000000295,-0.452058433403165760
0.583000000000000407,-0.445899570464230233
0.584000000000000297,-0.439870347224298019
0.585000000000000409,-0.433969144486850478
0.586000000000000298,-0.428194331161384611
0.587000000000000410,-0.422544265399522501
0.588000000000000300,-0.417017295701598734
0.589000000000000412,-0.411611761994034542
0.590000000000000302,-0.406325996677854129
0.591000000000000414,-0.401158325648710012
0.592000000000000304,-0.396107069288684888
0.593000000000000416,-0.391170543430282847
0.594000000000000306,-0.386347060292988265
0.595000000000000417,-0.381634929392691724
0.596000000000000307,-0.377032458424398587
0.597000000000000419,-0.372537954118604575
0.598000000000000309,-0.368149723071693746
0.599000000000000421,-0.363866072550723285
0.600000000000000311,-0.359685311273053032
0.601000000000000423,-0.355605750161125278
0.602000000000000313,-0.351625703072853679
0.603000000000000425,-0.347743487507947702
0.604000000000000314,-0.343957425290667917
0.605000000000000426,-0.340265843229276388
0.606000000000000316,-0.336667073752702051
0.607000000000000428,-0.333159455524734305
0.608000000000000318,-0.329741334036207034
0.609000000000000430,-0.326411062175498978
0.610000000000000320,-0.323167000777826896
0.611000000000000432,-0.320007519153659270
0.612000000000000322,-0.316930995596690246
0.613000000000000433,-0.313935817871750511
0.614000000000000323,-0.311020383683052515
0.615000000000000435,-0.308183101123167991
0.616000000000000325,-0.305422389103097103
0.617000000000000437,-0.302736677763861706
0.618000000000000327,-0.300124408869987203
0.619000000000000439,-0.297584036185224610
0.620000000000000329,-0.295114025830949256
0.621000000000000441,-0.292712856627584339
0.622000000000000330,-0.290379020419399336
0.623000000000000442,-0.288111022383113813
0.624000000000000332,-0.285907381320601228
0.625000000000000444,-0.283766629936129611
0.626000000000000334,-0.281687315098443358
0.627000000000000446,-0.279667998088068026
0.628000000000000336,-0.277707254830186545
0.629000000000000448,-0.275803676113446916
0.630000000000000338,-0.273955867795016850
0.631000000000000449,-0.272162450992272098
0.632000000000000339,-0.270422062261397533
0.633000000000000451,-0.268733353763297100
0.634000000000000341,-0.267094993417076432
0.635000000000000453,-0.265505665041502303
0.636000000000000343,-0.263964068484651815
0.637000000000000455,-0.262468919742178675
0.638000000000000345,-0.261018951064434956
0.639000000000000457,-0.259612911052763018
0.640000000000000346,-0.258249564745302862
0.641000000000000458,-0.256927693692546866
0.642000000000000348,-0.255646096023001423
0.643000000000000460,-0.254403586499188983
0.644000000000000350,-0.253198996564305112
0.645000000000000462,-0.252031174379803768
0.646000000000000352,-0.250898984854178553
0.647000000000000464,-0.249801309663206794
0.648000000000000353,-0.248737047261952421
0.649000000000000465,-0.247705112888734508
0.650000000000000355,-0.246704438561369865
0.651000000000000467,-0.245733973065896283
0.652000000000000357,-0.244792681938078349
0.653000000000000469,-0.243879547437860472
0.654000000000000359,-0.242993568517095915
0.655000000000000471,-0.242133760780694374
0.656000000000000361,-0.241299156441498658
0.657000000000000473,-0.240488804269038875
0.658000000000000362,-0.239701769532459169
0.659000000000000474,-0.238937133937759422
0.660000000000000364,-0.238193995559626087
0.661000000000000476,-0.237471468768010119
0.662000000000000366,-0.236768684149678499
0.663000000000000478,-0.236084788424947511
0.664000000000000368,-0.235418944359749277
