# TiO2-rut-100_SERINEZWITTER
# h[nm],U(h)[kJ/mol]
0.149999999999999994,121.649484691068323627
0.150999999999999995,119.044988412066601313
0.151999999999999996,117.056805968601182144
0.152999999999999997,115.175338975584992340
0.153999999999999998,113.227144166408535852
0.154999999999999999,111.192458098172210157
0.156000000000000000,109.107933376248112722
0.157000000000000001,107.019213736439468221
0.158000000000000002,104.961362433126211613
0.159000000000000002,102.953833991649389645
0.160000000000000003,101.002209811817465379
0.161000000000000004,99.102371660297350786
0.162000000000000005,97.244887000009470057
0.163000000000000006,95.418611760666948385
0.164000000000000007,93.613201972277309437
0.165000000000000008,91.820577187909051986
0.166000000000000009,90.035532495123248964
0.167000000000000010,88.255738808904297343
0.168000000000000010,86.481356645302383868
0.169000000000000011,84.714448748458579530
0.170000000000000012,82.958330051549708628
0.171000000000000013,81.216949135733642606
0.172000000000000014,79.494358017313601295
0.173000000000000015,77.794298108186836771
0.174000000000000016,76.119909273359425583
0.175000000000000017,74.473554973024178594
0.176000000000000018,72.856748161126375862
0.177000000000000018,71.270158552859584233
0.178000000000000019,69.713680850148961099
0.179000000000000020,68.186544511484868281
0.180000000000000021,66.687447870438390396
0.181000000000000022,65.214702245556011917
0.182000000000000023,63.766374714765504450
0.183000000000000024,62.340421161863901034
0.184000000000000025,60.934803862561679466
0.185000000000000026,59.547590166492568642
0.186000000000000026,58.177030712116824418
0.187000000000000027,56.821617086411244202
0.188000000000000028,55.480119939274132435
0.189000000000000029,54.151609327129925475
0.190000000000000030,52.835459541617673551
0.191000000000000031,51.531340929180331045
0.192000000000000032,50.239201275234208310
0.193000000000000033,48.959239257287848091
0.194000000000000034,47.691872304130747295
0.195000000000000034,46.437700966146095993
0.196000000000000035,45.197471632019258436
0.197000000000000036,43.972039141078667512
0.198000000000000037,42.762330554618657175
0.199000000000000038,41.569311075826760771
0.200000000000000039,40.393952854681302256
0.201000000000000040,39.237207186658807245
0.202000000000000041,38.099980415136442957
0.203000000000000042,36.983113677944459141
0.204000000000000042,35.887366498159067874
0.205000000000000043,34.813404106461447896
0.206000000000000044,33.761788295066523347
0.207000000000000045,32.732971538781640675
0.208000000000000046,31.727294074406074742
0.209000000000000047,30.744983602599667449
0.210000000000000048,29.786157263769858616
0.211000000000000049,28.850825538838556383
0.212000000000000050,27.938897734544628548
0.213000000000000050,27.050188729049562397
0.214000000000000051,26.184426675123081196
0.215000000000000052,25.341261383435714549
0.216000000000000053,24.520273136066570885
0.217000000000000054,23.720981709069430821
0.218000000000000055,22.942855411872397298
0.219000000000000056,22.185319979653122857
0.220000000000000057,21.447767182040660572
0.221000000000000058,20.729563037117610946
0.222000000000000058,20.030055543414267305
0.223000000000000059,19.348581864215447013
0.224000000000000060,18.684474917925914639
0.225000000000000061,18.037069345436197665
0.226000000000000062,17.405706840423523118
0.227000000000000063,16.789740841386382897
0.228000000000000064,16.188540595056000626
0.229000000000000065,15.601494609783429723
0.230000000000000066,15.028013524720389427
0.231000000000000066,14.467532426249229971
0.232000000000000067,13.919512647338734723
0.233000000000000068,13.383443088465762472
0.234000000000000069,12.858841100607914854
0.235000000000000070,12.345252971728115199
0.236000000000000071,11.842254058281348250
0.237000000000000072,11.349448602706541323
0.238000000000000073,10.866469276745846173
0.239000000000000073,10.392976488868113094
0.240000000000000074,9.928657492159919329
0.241000000000000075,9.473225326876926644
0.242000000000000076,9.026417629494446260
0.243000000000000077,8.587995337626093573
0.244000000000000078,8.157741317651524326
0.245000000000000079,7.735458939354958652
0.246000000000000080,7.320970619367844101
0.247000000000000081,6.914116352761570106
0.248000000000000081,6.514752249779334647
0.249000000000000082,6.122749092448205310
0.250000000000000111,5.737990923688862210
0.251000000000000112,5.360373679553811499
0.252000000000000113,4.989803873379154098
0.253000000000000114,4.626197338938351500
0.254000000000000115,4.269478038134463027
0.255000000000000115,3.919576937363783209
0.256000000000000116,3.576430955421655344
0.257000000000000117,3.239981984697590800
0.258000000000000118,2.910175986415945992
0.259000000000000119,2.586962159811907025
0.260000000000000120,2.270292184384120393
0.261000000000000121,1.960119533727649799
0.262000000000000122,1.656398858913740169
0.263000000000000123,1.359085438940817792
0.264000000000000123,1.068134695423125891
0.265000000000000124,0.783501768404213705
0.266000000000000125,0.505141149971921832
0.267000000000000126,0.233006372204207224
0.268000000000000127,-0.032950254117989887
0.269000000000000128,-0.292777853638054530
0.270000000000000129,-0.546527157000560648
0.271000000000000130,-0.794250631452493527
0.272000000000000131,-1.036002574977846535
0.273000000000000131,-1.271839177383135011
0.274000000000000132,-1.501818551638112398
0.275000000000000133,-1.726000738645642185
0.276000000000000134,-1.944447688470502644
0.277000000000000135,-2.157223220902063421
0.278000000000000136,-2.364392968064370493
0.279000000000000137,-2.566024301620247527
0.280000000000000138,-2.762186246946716217
0.281000000000000139,-2.952949386489792882
0.282000000000000139,-3.138385754337908562
0.283000000000000140,-3.318568723887743488
0.284000000000000141,-3.493572890314216917
0.285000000000000142,-3.663473949399649321
0.286000000000000143,-3.828348574125808312
0.287000000000000144,-3.988274290287738832
0.288000000000000145,-4.143329352250715303
0.289000000000000146,-4.293592619840433500
0.290000000000000147,-4.439143437234129408
0.291000000000000147,-4.580061514604127026
0.292000000000000148,-4.716426813158174802
0.293000000000000149,-4.848319434120134552
0.294000000000000150,-4.975819512102406250
0.295000000000000151,-5.099007113236051048
0.296000000000000152,-5.217962138346531553
0.297000000000000153,-5.332764231391978527
0.298000000000000154,-5.443492693316373199
0.299000000000000155,-5.550226401412091448
0.300000000000000155,-5.653043734234254103
0.301000000000000156,-5.752022502062979825
0.302000000000000157,-5.847239882869137872
0.303000000000000158,-5.938772363703078483
0.304000000000000159,-6.026695687395198675
0.305000000000000160,-6.111084804430278794
0.306000000000000161,-6.192013829835337546
0.307000000000000162,-6.269556004901833290
0.308000000000000163,-6.343783663547838181
0.309000000000000163,-6.414768203113704104
0.310000000000000164,-6.482580059375514736
0.311000000000000165,-6.547288685553961152
0.312000000000000166,-6.608962535092065771
0.313000000000000167,-6.667669047972919927
0.314000000000000168,-6.723474640348323206
0.315000000000000169,-6.776444697250516569
0.316000000000000170,-6.826643568162127806
0.317000000000000171,-6.874134565223276816
0.318000000000000171,-6.918979963860027560
0.319000000000000172,-6.961241005624570377
0.320000000000000173,-7.000977903044090844
0.321000000000000174,-7.038249846282877975
0.322000000000000175,-7.073115011430294530
0.323000000000000176,-7.105630570235442534
0.324000000000000177,-7.135852701118141184
0.325000000000000178,-7.163836601294663708
0.326000000000000179,-7.189636499865796004
0.327000000000000179,-7.213305671723610146
0.328000000000000180,-7.234896452142544732
0.329000000000000181,-7.254460251929415904
0.330000000000000182,-7.272047573015430366
0.331000000000000183,-7.287708024382437699
0.332000000000000184,-7.301490338223674215
0.333000000000000185,-7.313442386247636762
0.334000000000000186,-7.323611196041722948
0.335000000000000187,-7.332042967419710067
0.336000000000000187,-7.338783088684758482
0.337000000000000188,-7.343876152746299901
0.338000000000000189,-7.347365973036237285
0.339000000000000190,-7.349295599175990290
0.340000000000000191,-7.349707332351860245
0.341000000000000192,-7.348642740362246961
0.342000000000000193,-7.346142672305053800
0.343000000000000194,-7.342247272879187214
0.344000000000000195,-7.336995996278043108
0.345000000000000195,-7.330427619657998939
0.346000000000000196,-7.322580256168221169
0.347000000000000197,-7.313491367532293452
0.348000000000000198,-7.303197776175395006
0.349000000000000199,-7.291735676893855711
0.350000000000000200,-7.279140648066932506
0.351000000000000201,-7.265447662412995555
0.352000000000000202,-7.250691097294845733
0.353000000000000203,-7.234904744580868297
0.354000000000000203,-7.218121820070665606
0.355000000000000204,-7.200374972495237280
0.356000000000000205,-7.181696292103568524
0.357000000000000206,-7.162117318848416403
0.358000000000000207,-7.141669050185247336
0.359000000000000208,-7.120381948499205471
0.360000000000000209,-7.098285948175737659
0.361000000000000210,-7.075410462330952832
0.362000000000000210,-7.051784389218407334
0.363000000000000211,-7.027436118329196901
0.364000000000000212,-7.002393536202577096
0.365000000000000213,-6.976684031964279775
0.366000000000000214,-6.950334502609824661
0.367000000000000215,-6.923371358049948299
0.368000000000000216,-6.895820525935266510
0.369000000000000217,-6.867707456276737510
0.370000000000000218,-6.839057125878635013
0.371000000000000218,-6.809894042599935915
0.372000000000000219,-6.780242249459933923
0.373000000000000220,-6.750125328603362895
0.374000000000000221,-6.719566405139737242
0.375000000000000222,-6.688588150871122018
0.376000000000000223,-6.657212787922200725
0.377000000000000224,-6.625462092285614446
0.378000000000000225,-6.593357397295209310
0.379000000000000226,-6.560919597039086781
0.380000000000000226,-6.528169149723948017
0.381000000000000227,-6.495126081001211915
0.382000000000000228,-6.461809987265306532
0.383000000000000229,-6.428240038933441092
0.384000000000000230,-6.394434983715777676
0.385000000000000231,-6.360413149884385220
0.386000000000000232,-6.326192449548518226
0.387000000000000233,-6.291790381943426880
0.388000000000000234,-6.257224036739082784
0.389000000000000234,-6.222510097374930993
0.390000000000000235,-6.187664844425883715
0.391000000000000236,-6.152704159004560580
0.392000000000000237,-6.117643526203986326
0.393000000000000238,-6.082498038584713385
0.394000000000000239,-6.047282399709548173
0.395000000000000240,-6.012010927728931087
0.396000000000000241,-5.976697559019306105
0.397000000000000242,-5.941355851876459759
0.398000000000000242,-5.905998990265548976
0.399000000000000243,-5.870639787628881834
0.400000000000000244,-5.835290690752344744
0.401000000000000245,-5.799963783691031161
0.402000000000000246,-5.764670791754094026
0.403000000000000247,-5.729423085548751793
0.404000000000000248,-5.694231685082992378
0.405000000000000249,-5.659107263926231646
0.406000000000000250,-5.624060153426946762
0.407000000000000250,-5.589100346986090706
0.408000000000000251,-5.554237504384820667
0.409000000000000252,-5.519480956164941610
0.410000000000000253,-5.484839708060199825
0.411000000000000254,-5.450322445476476041
0.412000000000000255,-5.415937538018662067
0.413000000000000256,-5.381693044062054732
0.414000000000000257,-5.347596715365680708
0.415000000000000258,-5.313656001725226119
0.416000000000000258,-5.279878055662775793
0.417000000000000259,-5.246269737150798917
0.418000000000000260,-5.212837618367494485
0.419000000000000261,-5.179587988480754746
0.420000000000000262,-5.146526858457770359
0.421000000000000263,-5.113659965897484838
0.422000000000000264,-5.080992779882770982
0.423000000000000265,-5.048530505849502248
0.424000000000000266,-5.016278090469530326
0.425000000000000266,-4.984240226544480734
0.426000000000000267,-4.952421357907504706
0.427000000000000268,-4.920825684329992455
0.428000000000000269,-4.889457166430274171
0.429000000000000270,-4.858319530581473700
0.430000000000000271,-4.827416273815534176
0.431000000000000272,-4.796750668720695998
0.432000000000000273,-4.766325768329522816
0.433000000000000274,-4.736144410994828746
0.434000000000000274,-4.706209225250732153
0.435000000000000275,-4.676522634656253175
0.436000000000000276,-4.647086862618894365
0.437000000000000277,-4.617903937195630526
0.438000000000000278,-4.588975695868923843
0.439000000000000279,-4.560303790295408888
0.440000000000000280,-4.531889691024869826
0.441000000000000281,-4.503734692187342681
0.442000000000000282,-4.475839916146225228
0.443000000000000282,-4.448206318115196289
0.444000000000000283,-4.420834690737111217
0.445000000000000284,-4.393725668622837865
0.446000000000000285,-4.366879732848195417
0.447000000000000286,-4.340297215407380449
0.448000000000000287,-4.313978303620984889
0.449000000000000288,-4.287923044497222058
0.450000000000000289,-4.262131349044689266
0.451000000000000290,-4.236602996535309806
0.452000000000000290,-4.211337638716091014
0.453000000000000291,-4.186334803968387419
0.454000000000000292,-4.161593901413510821
0.455000000000000293,-4.137114224963523768
0.456000000000000294,-4.112894957316211908
0.457000000000000295,-4.088935173893241348
0.458000000000000296,-4.065233846720586186
0.459000000000000297,-4.041789848250471273
0.460000000000000298,-4.018601955123977554
0.461000000000000298,-3.995668851873724670
0.462000000000000299,-3.972989134565973579
0.463000000000000300,-3.950561314381570099
0.464000000000000301,-3.928383821135335019
0.465000000000000302,-3.906455006733406954
0.466000000000000303,-3.884773148568228862
0.467000000000000304,-3.863336452850850922
0.468000000000000305,-3.842143057880360146
0.469000000000000306,-3.821191037250211142
0.470000000000000306,-3.800478402991395832
0.471000000000000307,-3.780003108652309152
0.472000000000000308,-3.759763052315369780
0.473000000000000309,-3.739756079550392798
0.474000000000000310,-3.719979986304787101
0.475000000000000311,-3.700432521730727675
0.476000000000000312,-3.681111390949512785
0.477000000000000313,-3.662014257753232194
0.478000000000000314,-3.643138747244077713
0.479000000000000314,-3.624482448411609603
0.480000000000000315,-3.606042916648219965
0.481000000000000316,-3.587817676203312711
0.482000000000000317,-3.569804222576443031
0.483000000000000318,-3.552000024850006099
0.484000000000000319,-3.534402527961837848
0.485000000000000320,-3.517009154918305569
0.486000000000000321,-3.499817308948374173
0.487000000000000322,-3.482824375599233857
0.488000000000000322,-3.466027724774014551
0.489000000000000323,-3.449424712712291896
0.490000000000000324,-3.433012683913923890
0.491000000000000325,-3.416788973006917196
0.492000000000000326,-3.400750906559942166
0.493000000000000327,-3.384895804840267974
0.494000000000000328,-3.369220983517718260
0.495000000000000329,-3.353723755315461741
0.496000000000000330,-3.338401431608281289
0.497000000000000330,-3.323251323969173221
0.498000000000000331,-3.308270745664906087
0.499000000000000332,-3.293457013101432462
0.500000000000000333,-3.278807447219869609
0.501000000000000334,-3.264319374843813737
0.502000000000000335,-3.249990129978846731
0.503000000000000336,-3.235817055065000059
0.504000000000000337,-3.221797502182976558
0.505000000000000338,-3.207928834214968106
0.506000000000000338,-3.194208425960862741
0.507000000000000339,-3.180633665210674810
0.508000000000000340,-3.167201953774002821
0.509000000000000341,-3.153910708467376978
0.510000000000000342,-3.140757362060261570
0.511000000000000343,-3.127739364180586623
0.512000000000000344,-3.114854182180598396
0.513000000000000345,-3.102099301963861411
0.514000000000000346,-3.089472228774259310
0.515000000000000346,-3.076970487947747301
0.516000000000000347,-3.064591625627718141
0.517000000000000348,-3.052333209444804574
0.518000000000000349,-3.040192829161848742
0.519000000000000350,-3.028168097284936966
0.520000000000000351,-3.016256649641201104
0.521000000000000352,-3.004456145924264909
0.522000000000000353,-2.992764270208030375
0.523000000000000353,-2.981178731429639406
0.524000000000000354,-2.969697263842385748
0.525000000000000355,-2.958317627439279729
0.526000000000000356,-2.947037608348073157
0.527000000000000357,-2.935855019198496230
0.528000000000000358,-2.924767699462381021
0.529000000000000359,-2.913773515767496214
0.530000000000000360,-2.902870362185705488
0.531000000000000361,-2.892056160496275119
0.532000000000000361,-2.881328860424928084
0.533000000000000362,-2.870686439859426731
0.534000000000000363,-2.860126905042299050
0.535000000000000364,-2.849648290741435996
0.536000000000000365,-2.839248660399179780
0.537000000000000366,-2.828926106260603479
0.538000000000000367,-2.818678749481559720
0.539000000000000368,-2.808504740217241835
0.540000000000000369,-2.798402257691734896
0.541000000000000369,-2.788369510249322669
0.542000000000000370,-2.778404735388030122
0.543000000000000371,-2.768506199776065380
0.544000000000000372,-2.758672199251724244
0.545000000000000373,-2.748901058807324382
0.546000000000000374,-2.739191132557733166
0.547000000000000375,-2.729540803694029627
0.548000000000000376,-2.719948484422884061
0.549000000000000377,-2.710412615892114907
0.550000000000000377,-2.700931668103005112
0.551000000000000378,-2.691504139809840268
0.552000000000000379,-2.682128558407212982
0.553000000000000380,-2.672803479805534455
0.554000000000000381,-2.663527488295248880
0.555000000000000382,-2.654299196400258687
0.556000000000000383,-2.645117244720915473
0.557000000000000384,-2.635980301767158362
0.558000000000000385,-2.626887063782105791
0.559000000000000385,-2.617836254556629605
0.560000000000000386,-2.608826625235259211
0.561000000000000387,-2.599856954113870522
0.562000000000000388,-2.590926046429508300
0.563000000000000389,-2.582032734142795327
0.564000000000000390,-2.573175875713231697
0.565000000000000391,-2.564354355867810131
0.566000000000000392,-2.555567085363277258
0.567000000000000393,-2.546813000742413458
0.568000000000000393,-2.538091064084638582
0.569000000000000394,-2.529400262751303696
0.570000000000000395,-2.520739609126001479
0.571000000000000396,-2.512108140350151508
0.572000000000000397,-2.503504918054263229
0.573000000000000398,-2.494929028085059564
0.574000000000000399,-2.486379580228859520
0.575000000000000400,-2.477855707931415630
0.576000000000000401,-2.469356568014514863
0.577000000000000401,-2.460881340389642347
0.578000000000000402,-2.452429227768886832
0.579000000000000403,-2.443999455373387697
0.580000000000000404,-2.435591270639583250
0.581000000000000405,-2.427203942923431779
0.582000000000000406,-2.418836763202901530
0.583000000000000407,-2.410489043778885065
0.584000000000000408,-2.402160117974811548
0.585000000000000409,-2.393849339835108392
0.586000000000000409,-2.385556083822751638
0.587000000000000410,-2.377279744516086701
0.588000000000000411,-2.369019736305071344
0.589000000000000412,-2.360775493087195809
0.590000000000000413,-2.352546467963166243
0.591000000000000414,-2.344332132932573920
0.592000000000000415,-2.336131978589718106
0.593000000000000416,-2.327945513819678069
0.594000000000000417,-2.319772265494842056
0.595000000000000417,-2.311611778172049103
0.596000000000000418,-2.303463613790370346
0.597000000000000419,-2.295327351369845115
0.598000000000000420,-2.287202586711103880
0.599000000000000421,-2.279088932096161813
0.600000000000000422,-2.270986015990399842
0.601000000000000423,-2.262893482745880647
0.602000000000000424,-2.254810992306122586
0.603000000000000425,-2.246738219912407963
0.604000000000000425,-2.238674855811733977
0.605000000000000426,-2.230620604966493836
0.606000000000000427,-2.222575186766032829
0.607000000000000428,-2.214538334740018044
0.608000000000000429,-2.206509796273942392
0.609000000000000430,-2.198489332326560408
0.610000000000000431,-2.190476717149583141
0.611000000000000432,-2.182471738009521989
0.612000000000000433,-2.174474194911838687
0.613000000000000433,-2.166483900327450751
