# TiO2-rut-100_BSAI20
# h[nm],U(h)[kJ/mol]
0.149999999999999994,102.596221322226824668
0.150999999999999995,100.645461792359668607
0.151999999999999996,99.122769640705683969
0.152999999999999997,97.626004413875278942
0.153999999999999998,96.038559359734037457
0.154999999999999999,94.367641223258345917
0.156000000000000000,92.660223358784733705
0.157000000000000001,90.963750946499573047
0.158000000000000002,89.311345339920706010
0.159000000000000002,87.719401743997579501
0.160000000000000003,86.190621657481059970
0.161000000000000004,84.718701217108005608
0.162000000000000005,83.292803916694552413
0.163000000000000006,81.901044870692345512
0.164000000000000007,80.532809775187075729
0.165000000000000008,79.180024116638833220
0.166000000000000009,77.837604467326940494
0.167000000000000010,76.503343794169197167
0.168000000000000010,75.177455314723374613
0.169000000000000011,73.861953149327376877
0.170000000000000012,72.559998687370381276
0.171000000000000013,71.275297193363613246
0.172000000000000014,70.011593027786176435
0.173000000000000015,68.772284603750819088
0.174000000000000016,67.560161121913978377
0.175000000000000017,66.377250894681765203
0.176000000000000018,65.224764197688443801
0.177000000000000018,64.103110662231443939
0.178000000000000019,63.011971030403273630
0.179000000000000020,61.950404650291844177
0.180000000000000021,60.916976635257682915
0.181000000000000022,59.909891595868714376
0.182000000000000023,58.927123892660439708
0.183000000000000024,57.966537204999369237
0.184000000000000025,57.025988721750991317
0.185000000000000026,56.103415364494765072
0.186000000000000026,55.196901137672043092
0.187000000000000027,54.304725980942507135
0.188000000000000028,53.425397416729786926
0.189000000000000029,52.557666890867928089
0.190000000000000030,51.700533050550077974
0.191000000000000031,50.853234344502958209
0.192000000000000032,50.015233314493059424
0.193000000000000033,49.186194818200206669
0.194000000000000034,48.365960218017086447
0.195000000000000034,47.554519318732310751
0.196000000000000035,46.751981563421125543
0.197000000000000036,45.958547719663741304
0.198000000000000037,45.174483020991928583
0.199000000000000038,44.400092480636921266
0.200000000000000039,43.635698872208529053
0.201000000000000040,42.881623678146993939
0.202000000000000041,42.138171142817782311
0.203000000000000042,41.405615432555272548
0.204000000000000042,40.684190798269149525
0.205000000000000043,39.974084555126523810
0.206000000000000044,39.275432635572947504
0.207000000000000045,38.588317433604963469
0.208000000000000046,37.912767636755198453
0.209000000000000047,37.248759734788372100
0.210000000000000048,36.596220897900970215
0.211000000000000049,35.955032929770013084
0.212000000000000050,35.325037019881207812
0.213000000000000050,34.706039043239272246
0.214000000000000051,34.097815182162726444
0.215000000000000052,33.500117673002861807
0.216000000000000053,32.912680509170755272
0.217000000000000054,32.335224959901594843
0.218000000000000055,31.767464791042112182
0.219000000000000056,31.209111099300656633
0.220000000000000057,30.659876694491877913
0.221000000000000058,30.119479985121017762
0.222000000000000058,29.587648341063061963
0.223000000000000059,29.064120923081169678
0.224000000000000060,28.548650982533747111
0.225000000000000061,28.041007645940823068
0.226000000000000062,27.540977208253025310
0.227000000000000063,27.048363965854214541
0.228000000000000064,26.562990625713808868
0.229000000000000065,26.084698330874893202
0.230000000000000066,25.613346344815568045
0.231000000000000066,25.148811438338952939
0.232000000000000067,24.690987022718296373
0.233000000000000068,24.239782072017202808
0.234000000000000069,23.795119875984124036
0.235000000000000070,23.356936662830143803
0.236000000000000071,22.925180128674174540
0.237000000000000072,22.499807907597130452
0.238000000000000073,22.080786013191676886
0.239000000000000073,21.668087279317898464
0.240000000000000074,21.261689824552028938
0.241000000000000075,20.861575561614834839
0.242000000000000076,20.467728769938094757
0.243000000000000077,20.080134746517071420
0.244000000000000078,19.698778547338182676
0.245000000000000079,19.323643828988476656
0.246000000000000080,18.954711797567629361
0.247000000000000081,18.591960269743026402
0.248000000000000081,18.235362848723884355
0.249000000000000082,17.884888216080657486
0.250000000000000111,17.540499538700313309
0.251000000000000112,17.202153988741528678
0.252000000000000113,16.869802373227365422
0.253000000000000114,16.543388868879258524
0.254000000000000115,16.222850856941260389
0.255000000000000115,15.908118852057409498
0.256000000000000116,15.599116518733529446
0.257000000000000117,15.295760768525203943
0.258000000000000118,14.997961930832749644
0.259000000000000119,14.705623990037485882
0.260000000000000120,14.418644881669848701
0.261000000000000121,14.136916840345785218
0.262000000000000122,13.860326792330988965
0.263000000000000123,13.588756785782885927
0.264000000000000123,13.322084451965739760
0.265000000000000124,13.060183491026378988
0.266000000000000125,12.802924176246779808
0.267000000000000126,12.550173871047629603
0.268000000000000127,12.301797553395505957
0.269000000000000128,12.057658342660104722
0.270000000000000129,11.817618024369744845
0.271000000000000130,11.581537568718223596
0.272000000000000131,11.349277639080121105
0.273000000000000131,11.120699087189560572
0.274000000000000132,10.895663432026839956
0.275000000000000133,10.674033319834787648
0.276000000000000134,10.455672963049897461
0.277000000000000135,10.240448556280970394
0.278000000000000136,10.028228667796987850
0.279000000000000137,9.818884605297176549
0.280000000000000138,9.612290755027590450
0.281000000000000139,9.408324893579479209
0.282000000000000139,9.206868471955932165
0.283000000000000140,9.007806871723705200
0.284000000000000141,8.811029633277852824
0.285000000000000142,8.616430656437234603
0.286000000000000143,8.423908373760616186
0.287000000000000144,8.233365897125830557
0.288000000000000145,8.044711138249022397
0.289000000000000146,7.857856903939189230
0.290000000000000147,7.672720966983985313
0.291000000000000147,7.489226113649239736
0.292000000000000148,7.307300168845616284
0.293000000000000149,7.126876000074213735
0.294000000000000150,6.947891501307847939
0.295000000000000151,6.770289557998582453
0.296000000000000152,6.594017994424913987
0.297000000000000153,6.419029504605231473
0.298000000000000154,6.245281568008119066
0.299000000000000155,6.072736351286378564
0.300000000000000155,5.901360597250310036
0.301000000000000156,5.731125502278382911
0.302000000000000157,5.562006583339785593
0.303000000000000158,5.393983535775364047
0.304000000000000159,5.227040082950548339
0.305000000000000160,5.061163818857677299
0.306000000000000161,4.896346044705587097
0.307000000000000162,4.732581600492350660
0.308000000000000163,4.569868692512946140
0.309000000000000163,4.408208717708081537
0.310000000000000164,4.247606085713414359
0.311000000000000165,4.088068039420926780
0.312000000000000166,3.929604474816184023
0.313000000000000167,3.772227760807076891
0.314000000000000168,3.615952559711791192
0.315000000000000169,3.460795649026222609
0.316000000000000170,3.306775745044292059
0.317000000000000171,3.153913328858747533
0.318000000000000171,3.002230475225206252
0.319000000000000172,2.851750684728340701
0.320000000000000173,2.702498719647122183
0.321000000000000174,2.554500443874838211
0.322000000000000175,2.407782667210416339
0.323000000000000176,2.262372994299754581
0.324000000000000177,2.118299678469599989
0.325000000000000178,1.975591480662214350
0.326000000000000179,1.834277533646069047
0.327000000000000179,1.694387211647162328
0.328000000000000180,1.555950005515921664
0.329000000000000181,1.418995403517353981
0.330000000000000182,1.283552777806126866
0.331000000000000183,1.149651276624054752
0.332000000000000184,1.017319722235060730
0.333000000000000185,0.886586514591680919
0.334000000000000186,0.757479540707833521
0.335000000000000187,0.630026089694855185
0.336000000000000187,0.504252773401249188
0.337000000000000188,0.380185452582091077
0.338000000000000189,0.257849168510032867
0.339000000000000190,0.137268079927923947
0.340000000000000191,0.018465405232136866
0.341000000000000192,-0.098536630234253478
0.342000000000000193,-0.213716841907748728
0.343000000000000194,-0.327055128887060509
0.344000000000000195,-0.438532512115294815
0.345000000000000195,-0.548131168010798420
0.346000000000000196,-0.655834457699856821
0.347000000000000197,-0.761626952008618852
0.348000000000000198,-0.865494452374254153
0.349000000000000199,-0.967424007837667355
0.350000000000000200,-1.067403928281552838
0.351000000000000201,-1.165423794078377373
0.352000000000000202,-1.261474462313068701
0.353000000000000203,-1.355548069744934470
0.354000000000000203,-1.447638032672501351
0.355000000000000204,-1.537739043863473487
0.356000000000000205,-1.625847066710515820
0.357000000000000206,-1.711959326771421486
0.358000000000000207,-1.796074300849445748
0.359000000000000208,-1.878191703767255971
0.360000000000000209,-1.958312472984640396
0.361000000000000210,-2.036438751206717690
0.362000000000000210,-2.112573867126179561
0.363000000000000211,-2.186722314439071724
0.364000000000000212,-2.258889729269987434
0.365000000000000213,-2.329082866138382890
0.366000000000000214,-2.397309572593706140
0.367000000000000215,-2.463578762642760100
0.368000000000000216,-2.527900389088565181
0.369000000000000217,-2.590285414895431959
0.370000000000000218,-2.650745783690916735
0.371000000000000218,-2.709294389510617851
0.372000000000000219,-2.765945045887677090
0.373000000000000220,-2.820712454384376233
0.374000000000000221,-2.873612172658821518
0.375000000000000222,-2.924660582155459210
0.376000000000000223,-2.973874855504059944
0.377000000000000224,-3.021272923707323699
0.378000000000000225,-3.066873443193359972
0.379000000000000226,-3.110695762805109066
0.380000000000000226,-3.152759890794938791
0.381000000000000227,-3.193086461888493321
0.382000000000000228,-3.231696704478395077
0.383000000000000229,-3.268612408004396563
0.384000000000000230,-3.303855890573131227
0.385000000000000231,-3.337449966867109818
0.386000000000000232,-3.369417916389015666
0.387000000000000233,-3.399783452084367497
0.388000000000000234,-3.428570689382022696
0.389000000000000234,-3.455804115689320888
0.390000000000000235,-3.481508560375362826
0.391000000000000236,-3.505709165273200423
0.392000000000000237,-3.528431355728974150
0.393000000000000238,-3.549700812223318458
0.394000000000000239,-3.569543442587784998
0.395000000000000240,-3.587985354836747298
0.396000000000000241,-3.605052830632753391
0.397000000000000242,-3.620772299401130656
0.398000000000000242,-3.635170313107617623
0.399000000000000243,-3.648273521710572176
0.400000000000000244,-3.660108649297608707
0.401000000000000245,-3.670702470914572135
0.402000000000000246,-3.680081790092956773
0.403000000000000247,-3.688273417080476069
0.404000000000000248,-3.695304147777680903
0.405000000000000249,-3.701200743382261571
0.406000000000000250,-3.705989910741163129
0.407000000000000250,-3.709698283409457620
0.408000000000000251,-3.712352403413639479
0.409000000000000252,-3.713978703715913987
0.410000000000000253,-3.714603491374968147
0.411000000000000254,-3.714252931397768354
0.412000000000000255,-3.712953031275941562
0.413000000000000256,-3.710729626199596787
0.414000000000000257,-3.707608364940415235
0.415000000000000258,-3.703614696395453709
0.416000000000000258,-3.698773856782092473
0.417000000000000259,-3.693110857474243058
0.418000000000000260,-3.686650473469204492
0.419000000000000261,-3.679417232474166077
0.420000000000000262,-3.671435404600818408
0.421000000000000263,-3.662728992656262506
0.422000000000000264,-3.653321723017879830
0.423000000000000265,-3.643237037079695817
0.424000000000000266,-3.632498083257419186
0.425000000000000266,-3.621127709539042172
0.426000000000000267,-3.609148456567857099
0.427000000000000268,-3.596582551244432491
0.428000000000000269,-3.583451900834043080
0.429000000000000270,-3.569778087566008118
0.430000000000000271,-3.555582363711125904
0.431000000000000272,-3.540885647123661606
0.432000000000000273,-3.525708517234027450
0.433000000000000274,-3.510071211478542175
0.434000000000000274,-3.493993622152544276
0.435000000000000275,-3.477495293673275256
0.436000000000000276,-3.460595420239003239
0.437000000000000277,-3.443312843870906192
0.438000000000000278,-3.425666052824436925
0.439000000000000279,-3.407673180356973752
0.440000000000000280,-3.389352003838639771
0.441000000000000281,-3.370719944193459661
0.442000000000000282,-3.351794065658118882
0.443000000000000282,-3.332591075845717565
0.444000000000000283,-3.313127326102233816
0.445000000000000284,-3.293418812143502183
0.446000000000000285,-3.273481174960701789
0.447000000000000286,-3.253329701982759392
0.448000000000000287,-3.232979328483955861
0.449000000000000288,-3.212444639225637388
0.450000000000000289,-3.191739870320818628
0.451000000000000290,-3.170878911310926362
0.452000000000000290,-3.149875307444136574
0.453000000000000291,-3.128742262144852848
0.454000000000000292,-3.107492639664349632
0.455000000000000293,-3.086138967902637198
0.456000000000000294,-3.064693441392010165
0.457000000000000295,-3.043167924432897742
0.458000000000000296,-3.021573954372900772
0.459000000000000297,-2.999922745020211057
0.460000000000000298,-2.978225190182723026
0.461000000000000298,-2.956491867324579026
0.462000000000000299,-2.934733041331955228
0.463000000000000300,-2.912958668380238869
0.464000000000000301,-2.891178399895012241
0.465000000000000302,-2.869401586599415133
0.466000000000000303,-2.847637282640729239
0.467000000000000304,-2.825894249789338009
0.468000000000000305,-2.804180961703302444
0.469000000000000306,-2.782505608252144658
0.470000000000000306,-2.760876099893666336
0.471000000000000307,-2.739300072097660799
0.472000000000000308,-2.717784889810899607
0.473000000000000309,-2.696337651957720905
0.474000000000000310,-2.674965195970910425
0.475000000000000311,-2.653674102347690411
0.476000000000000312,-2.632470699225958999
0.477000000000000313,-2.611361066975931067
0.478000000000000314,-2.590351042802692128
0.479000000000000314,-2.569446225355333180
0.480000000000000315,-2.548651979338422358
0.481000000000000316,-2.527973440121917825
0.482000000000000317,-2.507415518345632144
0.483000000000000318,-2.486982904514689174
0.484000000000000319,-2.466680073582449673
0.485000000000000320,-2.446511289517654397
0.486000000000000321,-2.426480609852627701
0.487000000000000322,-2.406591890209582196
0.488000000000000322,-2.386848788802137911
0.489000000000000323,-2.367254770909496209
0.490000000000000324,-2.347813113320616818
0.491000000000000325,-2.328526908746087365
0.492000000000000326,-2.309399070195362391
0.493000000000000327,-2.290432335317333035
0.494000000000000328,-2.271629270702138381
0.495000000000000329,-2.252992276142431027
0.496000000000000330,-2.234523588852253884
0.497000000000000330,-2.216225287642016983
0.498000000000000331,-2.198099297047878764
0.499000000000000332,-2.180147391414307467
0.500000000000000333,-2.162371198928370486
0.501000000000000334,-2.144772205604577042
0.502000000000000335,-2.127351759219211491
0.503000000000000336,-2.110111073193078113
0.504000000000000337,-2.093051230421759890
0.505000000000000338,-2.076173187052545277
0.506000000000000338,-2.059477776207269351
0.507000000000000339,-2.042965711650383209
0.508000000000000340,-2.026637591401653005
0.509000000000000341,-2.010493901293009422
0.510000000000000342,-1.994535018469005605
0.511000000000000343,-1.978761214830604187
0.512000000000000344,-1.963172660421879545
0.513000000000000345,-1.947769426759448308
0.514000000000000346,-1.932551490104413627
0.515000000000000346,-1.917518734676666892
0.516000000000000347,-1.902670955811469611
0.517000000000000348,-1.888007863058335456
0.518000000000000349,-1.873529083222132297
0.519000000000000350,-1.859234163346585422
0.520000000000000351,-1.845122573640185504
0.521000000000000352,-1.831193710344769743
0.522000000000000353,-1.817446898546852818
0.523000000000000353,-1.803881394932042692
0.524000000000000354,-1.790496390482765987
0.525000000000000355,-1.777291013119609575
0.526000000000000356,-1.764264330286621885
0.527000000000000357,-1.751415351480977822
0.528000000000000358,-1.738743030727327055
0.529000000000000359,-1.726246268997371214
0.530000000000000360,-1.713923916574981332
0.531000000000000361,-1.701774775367474124
0.532000000000000361,-1.689797601163432805
0.533000000000000362,-1.677991105837671082
0.534000000000000363,-1.666353959503836579
0.535000000000000364,-1.654884792615233691
0.536000000000000365,-1.643582198014426510
0.537000000000000366,-1.632444732932249121
0.538000000000000367,-1.621470920936754379
0.539000000000000368,-1.610659253832829929
0.540000000000000369,-1.600008193512997057
0.541000000000000369,-1.589516173760136653
0.542000000000000370,-1.579181602002705853
0.543000000000000371,-1.569002861023172768
0.544000000000000372,-1.558978310620307450
0.545000000000000373,-1.549106289226013233
0.546000000000000374,-1.539385115477368782
0.547000000000000375,-1.529813089744576526
0.548000000000000376,-1.520388495615521141
0.549000000000000377,-1.511109601337605302
0.550000000000000377,-1.501974661217588380
0.551000000000000378,-1.492981916980088863
0.552000000000000379,-1.484129599085516116
0.553000000000000380,-1.475415928008056987
0.554000000000000381,-1.466839115474461774
0.555000000000000382,-1.458397365664358958
0.556000000000000383,-1.450088876372704894
0.557000000000000384,-1.441911840135189360
0.558000000000000385,-1.433864445317180936
0.559000000000000385,-1.425944877166980040
0.560000000000000386,-1.418151318834051544
0.561000000000000387,-1.410481952352904855
0.562000000000000388,-1.402934959593320041
0.563000000000000389,-1.395508523177618088
0.564000000000000390,-1.388200827365609902
0.565000000000000391,-1.381010058907926830
0.566000000000000392,-1.373934407868375729
0.567000000000000393,-1.366972068416012487
0.568000000000000393,-1.360121239587529285
0.569000000000000394,-1.353380126020653718
0.570000000000000395,-1.346746938659197257
0.571000000000000396,-1.340219895430331709
0.572000000000000397,-1.333797221894816420
0.573000000000000398,-1.327477151870692706
0.574000000000000399,-1.321257928031152717
0.575000000000000400,-1.315137802477112983
0.576000000000000401,-1.309115037285130123
0.577000000000000401,-1.303187905031274463
0.578000000000000402,-1.297354689291474239
0.579000000000000403,-1.291613685118955690
0.580000000000000404,-1.285963199499372545
0.581000000000000405,-1.280401551784094760
0.582000000000000406,-1.274927074102311320
0.583000000000000407,-1.269538111752415821
0.584000000000000408,-1.264233023573242853
0.585000000000000409,-1.259010182295691616
0.586000000000000409,-1.253867974875210622
0.587000000000000410,-1.248804802805727920
0.588000000000000411,-1.243819082415438704
0.589000000000000412,-1.238909245145039861
0.590000000000000413,-1.234073737808807802
0.591000000000000414,-1.229311022839067347
0.592000000000000415,-1.224619578514486218
0.593000000000000416,-1.219997899172651667
0.594000000000000417,-1.215444495407393966
0.595000000000000417,-1.210957894251340594
0.596000000000000418,-1.206536639344016448
0.597000000000000419,-1.202179291086090229
0.598000000000000420,-1.197884426780017275
0.599000000000000421,-1.193650640757624171
0.600000000000000422,-1.189476544494959986
0.601000000000000423,-1.185360766714823821
0.602000000000000424,-1.181301953477397859
0.603000000000000425,-1.177298768259315676
0.604000000000000425,-1.173349892021547713
0.605000000000000426,-1.169454023266500498
0.606000000000000427,-1.165609878084675533
0.607000000000000428,-1.161816190191161224
0.608000000000000429,-1.158071710952472300
0.609000000000000430,-1.154375209403856406
0.610000000000000431,-1.150725472257585702
0.611000000000000432,-1.147121303902431944
0.612000000000000433,-1.143561526394677230
0.613000000000000433,-1.140044979440993034
0.614000000000000434,-1.136570520373439974
