# TiO2-rut-100_BSAI22
# h[nm],U(h)[kJ/mol]
0.149999999999999994,106.033950810798700104
0.150999999999999995,104.338520843399393812
0.151999999999999996,102.669937105625450613
0.152999999999999997,100.989224025144750385
0.153999999999999998,99.290410193014878359
0.154999999999999999,97.582906084780034917
0.156000000000000000,95.881011837015421406
0.157000000000000001,94.198238477783860390
0.158000000000000002,92.544731761976663620
0.159000000000000002,90.926577023168803748
0.160000000000000003,89.346143847792134807
0.161000000000000004,87.802915430139364616
0.162000000000000005,86.294455822559058333
0.163000000000000006,84.817315101113692322
0.164000000000000007,83.367772086716911417
0.165000000000000008,81.942378783310090284
0.166000000000000009,80.538309886383473213
0.167000000000000010,79.153542216014756150
0.168000000000000010,77.786898541436514165
0.169000000000000011,76.437992276343493359
0.170000000000000012,75.107107013831452491
0.171000000000000013,73.795039977378678486
0.172000000000000014,72.502932621505664201
0.173000000000000015,71.232105732821167976
0.174000000000000016,69.983910995315554260
0.175000000000000017,68.759606369337575416
0.176000000000000018,67.560258894080433834
0.177000000000000018,66.386675650261452120
0.178000000000000019,65.239361539315410710
0.179000000000000020,64.118501140380047332
0.180000000000000021,63.023961076719409391
0.181000000000000022,61.955308940240662707
0.182000000000000023,60.911844776963256720
0.183000000000000024,59.892641331860204446
0.184000000000000025,58.896589607877174899
0.185000000000000026,57.922446745932518297
0.186000000000000026,56.968883729373899882
0.187000000000000027,56.034530919476218003
0.188000000000000028,55.118019910726061994
0.189000000000000029,54.218020637454323207
0.190000000000000030,53.333273055667994811
0.191000000000000031,52.462613060126592757
0.192000000000000032,51.604992575463640492
0.193000000000000033,50.759493983162990105
0.194000000000000034,49.925339217247284296
0.195000000000000034,49.101893985700556300
0.196000000000000035,48.288667657722143645
0.197000000000000036,47.485309404931626887
0.198000000000000037,46.691601203572965062
0.199000000000000038,45.907448300244126926
0.200000000000000039,45.132867720887702490
0.201000000000000040,44.367975366348581190
0.202000000000000041,43.612972191775469355
0.203000000000000042,42.868129914960690030
0.204000000000000042,42.133776643246463323
0.205000000000000043,41.410282752214854440
0.206000000000000044,40.698047293866679297
0.207000000000000045,39.997485158802888350
0.208000000000000046,39.309015167082151265
0.209000000000000047,38.633049216660722891
0.210000000000000048,37.969982577066268448
0.211000000000000049,37.320185379441824125
0.212000000000000050,36.683995322362534353
0.213000000000000050,36.061711585783193357
0.214000000000000051,35.453589922917565502
0.215000000000000052,34.859838881506057362
0.216000000000000053,34.280617091467355806
0.217000000000000054,33.716031544991153623
0.218000000000000055,33.166136787339738135
0.219000000000000056,32.630934931605430904
0.220000000000000057,32.110376408049788211
0.221000000000000058,31.604361358076335620
0.222000000000000058,31.112741584022806762
0.223000000000000059,30.635322968499821172
0.224000000000000060,30.171868280661506390
0.225000000000000061,29.722100291322050225
0.226000000000000062,29.285705124000607213
0.227000000000000063,28.862335774590839321
0.228000000000000064,28.451615738237695297
0.229000000000000065,28.053142688016254880
0.230000000000000066,27.666492156024901305
0.231000000000000066,27.291221173423384272
0.232000000000000067,26.926871831685911474
0.233000000000000068,26.572974732833351652
0.234000000000000069,26.229052301609261377
0.235000000000000070,25.894621937434340708
0.236000000000000071,25.569198988490271063
0.237000000000000072,25.252299534430679984
0.238000000000000073,24.943442967989600589
0.239000000000000073,24.642154369157534433
0.240000000000000074,24.347966668626959574
0.241000000000000075,24.060422599887385076
0.242000000000000076,23.779076441686960663
0.243000000000000077,23.503495554592859662
0.244000000000000078,23.233261717095132326
0.245000000000000079,22.967972268129550173
0.246000000000000080,22.707241064066078451
0.247000000000000081,22.450699259142439246
0.248000000000000081,22.197995919039719581
0.249000000000000082,21.948798477819451591
0.250000000000000111,21.702793048790471886
0.251000000000000112,21.459684600069188321
0.252000000000000113,21.219197005656575072
0.253000000000000114,20.981072982798814053
0.254000000000000115,20.745073926240600315
0.255000000000000115,20.510979649737539177
0.256000000000000116,20.278588044880294206
0.257000000000000117,20.047714666911229386
0.258000000000000118,19.818192256796049122
0.259000000000000119,19.589870208358817649
0.260000000000000120,19.362613988807730436
0.261000000000000121,19.136304520480873492
0.262000000000000122,18.910837531131093670
0.263000000000000123,18.686122879556087639
0.264000000000000123,18.462083862866819572
0.265000000000000124,18.238656511181183362
0.266000000000000125,18.015788875033784677
0.267000000000000126,17.793440310309545538
0.268000000000000127,17.571580765042117633
0.269000000000000128,17.350190071970288841
0.270000000000000129,17.129257250316932470
0.271000000000000130,16.908779819848337667
0.272000000000000131,16.688763129887576042
0.273000000000000131,16.469219705593371117
0.274000000000000132,16.250168613477804058
0.275000000000000133,16.031634847820349421
0.276000000000000134,15.813648739343099336
0.277000000000000135,15.596245387242266389
0.278000000000000136,15.379464115422251780
0.279000000000000137,15.163347953551937763
0.280000000000000138,14.947943143356477336
0.281000000000000139,14.733298670370700734
0.282000000000000139,14.519465821212330425
0.283000000000000140,14.306497766282888051
0.284000000000000141,14.094449167670413559
0.285000000000000142,13.883375811910642739
0.286000000000000143,13.673334267159933830
0.287000000000000144,13.464381564244572331
0.288000000000000145,13.256574900974097631
0.289000000000000146,13.049971369042633995
0.290000000000000147,12.844627702787812851
0.291000000000000147,12.640600049034274477
0.292000000000000148,12.437943757213627549
0.293000000000000149,12.236713188927549112
0.294000000000000150,12.036961546101869303
0.295000000000000151,11.838740716868198177
0.296000000000000152,11.642101138304170149
0.297000000000000153,11.447091675163633795
0.298000000000000154,11.253759513732797259
0.299000000000000155,11.062150069957784382
0.300000000000000155,10.872306911001805574
0.301000000000000156,10.684271689406557471
0.302000000000000157,10.498084089051081591
0.303000000000000158,10.313781782122934061
0.304000000000000159,10.131400396339547143
0.305000000000000160,9.950973491682640670
0.306000000000000161,9.772532545934620174
0.307000000000000162,9.596106948333002151
0.308000000000000163,9.421724000686790390
0.309000000000000163,9.249408925327045949
0.310000000000000164,9.079184879292450105
0.311000000000000165,8.911072974179260697
0.312000000000000166,8.745092301113858824
0.313000000000000167,8.581259960334048031
0.314000000000000168,8.419591094893650762
0.315000000000000169,8.260098928032075349
0.316000000000000170,8.102794803777621624
0.317000000000000171,7.947688230379489127
0.318000000000000171,7.794786926189010146
0.319000000000000172,7.644096867635219894
0.320000000000000173,7.495622338964018638
0.321000000000000174,7.349365983433036043
0.322000000000000175,7.205328855676514266
0.323000000000000176,7.063510474975844389
0.324000000000000177,6.923908879191567500
0.325000000000000178,6.786520679132314271
0.326000000000000179,6.651341113154269458
0.327000000000000179,6.518364101802748500
0.328000000000000180,6.387582302323776773
0.329000000000000181,6.258987162889527056
0.330000000000000182,6.132568976396372662
0.331000000000000183,6.008316933708227836
0.332000000000000184,5.886219176231204386
0.333000000000000185,5.766262847717998241
0.334000000000000186,5.648434145211950863
0.335000000000000187,5.532718369051747409
0.336000000000000187,5.419099971867685106
0.337000000000000188,5.307562606510158432
0.338000000000000189,5.198089172859514662
0.339000000000000190,5.090661863474696958
0.340000000000000191,4.985262208045725174
0.341000000000000192,4.881871116621850248
0.342000000000000193,4.780468921593695519
0.343000000000000194,4.681035418413543425
0.344000000000000195,4.583549905043482475
0.345000000000000195,4.487991220125658209
0.346000000000000196,4.394337779873792371
0.347000000000000197,4.302567613688849768
0.348000000000000198,4.212658398505558566
0.349000000000000199,4.124587491879759149
0.350000000000000200,4.038331963829446813
0.351000000000000201,3.953868627445075390
0.352000000000000202,3.871174068286999947
0.353000000000000203,3.790224672589929789
0.354000000000000203,3.710996654296095265
0.355000000000000204,3.633466080940429777
0.356000000000000205,3.557608898412300213
0.357000000000000206,3.483400954619381817
0.358000000000000207,3.410818022080463585
0.359000000000000208,3.339835819474409107
0.360000000000000209,3.270430032173217150
0.361000000000000210,3.202576331787677866
0.362000000000000210,3.136250394754193316
0.363000000000000211,3.071427919991751132
0.364000000000000212,3.008084645657901568
0.365000000000000213,2.946196365032762721
0.366000000000000214,2.885738941559806481
0.367000000000000215,2.826688323072072517
0.368000000000000216,2.769020555232073466
0.369000000000000217,2.712711794213537253
0.370000000000000218,2.657738318652445919
0.371000000000000218,2.604076540894673997
0.372000000000000219,2.551703017566820275
0.373000000000000220,2.500594459496433775
0.374000000000000221,2.450727741007219684
0.375000000000000222,2.402079908614341619
0.376000000000000223,2.354628189144063022
0.377000000000000224,2.308349997301696099
0.378000000000000225,2.263222942710923391
0.379000000000000226,2.219224836447074800
0.380000000000000226,2.176333697086106245
0.381000000000000227,2.134527756290636624
0.382000000000000228,2.093785463953443227
0.383000000000000229,2.054085492918370726
0.384000000000000230,2.015406743297889935
0.385000000000000231,1.977728346405792426
0.386000000000000232,1.941029668323079438
0.387000000000000233,1.905290313114181178
0.388000000000000234,1.870490125710325247
0.389000000000000234,1.836609194475971929
0.390000000000000235,1.803627853473819043
0.391000000000000236,1.771526684443222477
0.392000000000000237,1.740286518506271252
0.393000000000000238,1.709888437615225909
0.394000000000000239,1.680313775754492367
0.395000000000000240,1.651544119909705843
0.396000000000000241,1.623561310816021841
0.397000000000000242,1.596347443497242891
0.398000000000000242,1.569884867606762269
0.399000000000000243,1.544156187581076090
0.400000000000000244,1.519144262615915952
0.401000000000000245,1.494832206474712821
0.402000000000000246,1.471203387138759311
0.403000000000000247,1.448241426307826263
0.404000000000000248,1.425930198759750578
0.405000000000000249,1.404253831577063849
0.406000000000000250,1.383196703248388948
0.407000000000000250,1.362743442651905612
0.408000000000000251,1.342878927927943167
0.409000000000000252,1.323588285247366603
0.410000000000000253,1.304856887482098937
0.411000000000000254,1.286670352783884086
0.412000000000000255,1.269014543077038093
0.413000000000000256,1.251875562470669889
0.414000000000000257,1.235239755595671785
0.415000000000000258,1.219093705871347355
0.416000000000000258,1.203424233706538393
0.417000000000000259,1.188218394639644071
0.418000000000000260,1.173463477421900603
0.419000000000000261,1.159147002047920427
0.420000000000000262,1.145256717737441532
0.421000000000000263,1.131780600871868936
0.422000000000000264,1.118706852889205239
0.423000000000000265,1.106023898140628070
0.424000000000000266,1.093720381711853484
0.425000000000000266,1.081785167212365506
0.426000000000000267,1.070207334535265842
0.427000000000000268,1.058976177590502221
0.428000000000000269,1.048081202014039537
0.429000000000000270,1.037512122855366092
0.430000000000000271,1.027258862245731041
0.431000000000000272,1.017311547049216447
0.432000000000000273,1.007660506498814224
0.433000000000000274,0.998296269819428539
0.434000000000000274,0.989209563839712813
0.435000000000000275,0.980391310594539656
0.436000000000000276,0.971832624919743537
0.437000000000000277,0.963524812040823186
0.438000000000000278,0.955459365157064311
0.439000000000000279,0.947627963022560693
0.440000000000000280,0.940022467525514549
0.441000000000000281,0.932634921267127992
0.442000000000000282,0.925457545141273208
0.443000000000000282,0.918482735916210324
0.444000000000000283,0.911703063819380377
0.445000000000000284,0.905111270126388368
0.446000000000000285,0.898700264755194267
0.447000000000000286,0.892463123866378050
0.448000000000000287,0.886393087470526586
0.449000000000000288,0.880483557043461373
0.450000000000000289,0.874728093150238806
0.451000000000000290,0.869120413078625531
0.452000000000000290,0.863654388482795077
0.453000000000000291,0.858324043037998918
0.454000000000000292,0.853123550106778650
0.455000000000000293,0.848047230417440567
0.456000000000000294,0.843089549755329015
0.457000000000000295,0.838245116667468815
0.458000000000000296,0.833508680181140660
0.459000000000000297,0.828875127536861100
0.460000000000000298,0.824339481936264051
0.461000000000000298,0.819896900305333021
0.462000000000000299,0.815542671073400838
0.463000000000000300,0.811272211968356638
0.464000000000000301,0.807081067828382737
0.465000000000000302,0.802964908430642943
0.466000000000000303,0.798919526337230734
0.467000000000000304,0.794940834758683601
0.468000000000000305,0.791024865435405955
0.469000000000000306,0.787167766537260838
0.470000000000000306,0.783365800581555360
0.471000000000000307,0.779615342369764597
0.472000000000000308,0.775912876943133378
0.473000000000000309,0.772254997557410672
0.474000000000000310,0.768638403676933590
0.475000000000000311,0.765059898988218690
0.476000000000000312,0.761516389433248619
0.477000000000000313,0.758004881262610342
0.478000000000000314,0.754522479108650890
0.479000000000000314,0.751066384078738603
0.480000000000000315,0.747633891868819900
0.481000000000000316,0.744222390897311570
0.482000000000000317,0.740829360459492214
0.483000000000000318,0.737452368902431710
0.484000000000000319,0.734089071820570704
0.485000000000000320,0.730737210272006110
0.486000000000000321,0.727394609015538096
0.487000000000000322,0.724059174768520109
0.488000000000000322,0.720728894485604288
0.489000000000000323,0.717401833658318333
0.490000000000000324,0.714076134635591053
0.491000000000000325,0.710750014965175647
0.492000000000000326,0.707421765756026666
0.493000000000000327,0.704089750061572484
0.494000000000000328,0.700752401283931459
0.495000000000000329,0.697408221599003619
0.496000000000000330,0.694055780402473177
0.497000000000000330,0.690693712776596302
0.498000000000000331,0.687320717977874751
0.499000000000000332,0.683935557945422934
0.500000000000000333,0.680537055830070181
0.501000000000000334,0.677124094544142907
0.502000000000000335,0.673695615331796449
0.503000000000000336,0.670250616359903906
0.504000000000000337,0.666788151329375967
0.505000000000000338,0.663307328106860217
0.506000000000000338,0.659807307376721996
0.507000000000000339,0.656287301313217997
0.508000000000000340,0.652746572272792980
0.509000000000000341,0.649184431506336201
0.510000000000000342,0.645600237891385653
0.511000000000000343,0.641993396684079176
0.512000000000000344,0.638363358290815253
0.513000000000000345,0.634709617059465714
0.514000000000000346,0.631031710090010578
0.515000000000000346,0.627329216064521189
0.516000000000000347,0.623601754096316241
0.517000000000000348,0.619848982598165343
0.518000000000000349,0.616070598169440542
0.519000000000000350,0.612266334502026166
0.520000000000000351,0.608435961304905626
0.521000000000000352,0.604579283247201560
0.522000000000000353,0.600696138919629030
0.523000000000000353,0.596786399814097646
0.524000000000000354,0.592849969321405657
0.525000000000000355,0.588886781746804977
0.526000000000000356,0.584896801343336326
0.527000000000000357,0.580880021362714216
0.528000000000000358,0.576836463123665988
0.529000000000000359,0.572766175097498054
0.530000000000000360,0.568669232010792114
0.531000000000000361,0.564545733964994967
0.532000000000000361,0.560395805572794448
0.533000000000000362,0.556219595111064891
0.534000000000000363,0.552017273690257548
0.535000000000000364,0.547789034440003597
0.536000000000000365,0.543535091710830254
0.537000000000000366,0.539255680291737205
0.538000000000000367,0.534951054643539536
0.539000000000000368,0.530621488147711595
0.540000000000000369,0.526267272370644745
0.541000000000000369,0.521888716343053449
0.542000000000000370,0.517486145854441970
0.543000000000000371,0.513059902762369346
0.544000000000000372,0.508610344316384411
0.545000000000000373,0.504137842496433786
0.546000000000000374,0.499642783365559784
0.547000000000000375,0.495125566436727282
0.548000000000000376,0.490586604053561637
0.549000000000000377,0.486026320784863852
0.550000000000000377,0.481445152832672030
0.551000000000000378,0.476843547453743355
0.552000000000000379,0.472221962394221262
0.553000000000000380,0.467580865337349383
0.554000000000000381,0.462920733364038717
0.555000000000000382,0.458242052426085955
0.556000000000000383,0.453545316831920620
0.557000000000000384,0.448831028744617666
0.558000000000000385,0.444099697692097006
0.559000000000000385,0.439351840089246326
0.560000000000000386,0.434587978771834027
0.561000000000000387,0.429808642542034658
0.562000000000000388,0.425014365725380538
0.563000000000000389,0.420205687738962219
0.564000000000000390,0.415383152670716960
0.565000000000000391,0.410547308869622873
0.566000000000000392,0.405698708546641917
0.567000000000000393,0.400837907386195957
0.568000000000000393,0.395965464168079595
0.569000000000000394,0.391081940399567340
0.570000000000000395,0.386187899957595948
0.571000000000000396,0.381283908740841393
0.572000000000000397,0.376370534331499473
0.573000000000000398,0.371448345666662016
0.574000000000000399,0.366517912719062866
0.575000000000000400,0.361579806187075581
0.576000000000000401,0.356634597193797920
0.577000000000000401,0.351682856995023330
0.578000000000000402,0.346725156695994574
0.579000000000000403,0.341762066976773471
0.580000000000000404,0.336794157826012186
0.581000000000000405,0.331821998283074737
0.582000000000000406,0.326846156188257908
0.583000000000000407,0.321867197941020255
0.584000000000000408,0.316885688266058951
0.585000000000000409,0.311902189987062983
0.586000000000000409,0.306917263808038965
0.587000000000000410,0.301931468102001055
0.588000000000000411,0.296945358706971529
0.589000000000000412,0.291959488729047534
0.590000000000000413,0.286974408352483890
0.591000000000000414,0.281990664656589174
0.592000000000000415,0.277008801439341257
0.593000000000000416,0.272029359047555208
0.594000000000000417,0.267052874213497216
0.595000000000000417,0.262079879897778700
0.596000000000000418,0.257110905138441648
0.597000000000000419,0.252146474906063178
0.598000000000000420,0.247187109964796869
0.599000000000000421,0.242233326739171334
0.600000000000000422,0.237285637186569087
0.601000000000000423,0.232344548675254892
0.602000000000000424,0.227410563867796733
0.603000000000000425,0.222484180609793997
0.604000000000000425,0.217565891823807783
0.605000000000000426,0.212656185408331255
0.606000000000000427,0.207755544141707688
0.607000000000000428,0.202864445590928977
0.608000000000000429,0.197983362025083959
0.609000000000000430,0.193112760333510519
0.610000000000000431,0.188253101948383295
0.611000000000000432,0.183404842771741572
0.612000000000000433,0.178568433106810143
0.613000000000000433,0.173744317593491904
0.614000000000000434,0.168932935147977914
0.615000000000000435,0.164134718906325999
0.616000000000000436,0.159350096171958305
0.617000000000000437,0.154579488366916457
0.618000000000000438,0.149823310986841984
0.619000000000000439,0.145081973559563343
0.620000000000000440,0.140355879607176465
