# TiO2-rut-100_PHE-AC
# h[nm],U(h)[kJ/mol]
0.149999999999999994,117.375872370787618593
0.150999999999999995,112.920903487852072544
0.151999999999999996,111.229045704245365300
0.152999999999999997,110.132179537583894557
0.153999999999999998,108.840914255927572185
0.154999999999999999,107.208754241154707643
0.156000000000000000,105.337605174737788616
0.157000000000000001,103.383046694259220999
0.158000000000000002,101.471502900811032077
0.159000000000000002,99.676171414834129791
0.160000000000000003,98.020662666919477601
0.161000000000000004,96.493066657981074741
0.162000000000000005,95.061517596699857791
0.163000000000000006,93.687217808657649698
0.164000000000000007,92.333603033554396688
0.165000000000000008,90.971726786547108645
0.166000000000000009,89.582556185207494082
0.167000000000000010,88.157049389553336027
0.168000000000000010,86.694837379500569341
0.169000000000000011,85.202186293340503198
0.170000000000000012,83.689742420367139175
0.171000000000000013,82.170397603323891644
0.172000000000000014,80.657475157966175061
0.173000000000000015,79.163330518191770580
0.174000000000000016,77.698385368238220394
0.175000000000000017,76.270564727896655199
0.176000000000000018,74.885077983749198438
0.177000000000000018,73.544471945313802053
0.178000000000000019,72.248881995628408959
0.179000000000000020,70.996412471824783097
0.180000000000000021,69.783586574292058913
0.181000000000000022,68.605817163149112048
0.182000000000000023,67.457861219540873776
0.183000000000000024,66.334231521250515584
0.184000000000000025,65.229548612104963468
0.185000000000000026,64.138824139959325521
0.186000000000000026,63.057673018807591347
0.187000000000000027,61.982456698162692987
0.188000000000000028,60.910363245015766154
0.189000000000000029,59.839432153877361031
0.190000000000000030,58.768533008913628635
0.191000000000000031,57.697307536608136047
0.192000000000000032,56.626084400220136672
0.193000000000000033,55.555775468974744058
0.194000000000000034,54.487761390532668315
0.195000000000000034,53.423773224132467874
0.196000000000000035,52.365775748551939728
0.197000000000000036,51.315856916003554034
0.198000000000000037,50.276126833000454042
0.199000000000000038,49.248628648272706698
0.200000000000000039,48.235262838530580609
0.201000000000000040,47.237725616939506779
0.202000000000000041,46.257461549884496321
0.203000000000000042,45.295629952012561148
0.204000000000000042,44.353084230275911182
0.205000000000000043,43.430363054466589290
0.206000000000000044,42.527692032523901844
0.207000000000000045,41.644994450923405793
0.208000000000000046,40.781909590870107252
0.209000000000000047,39.937817137427778391
0.210000000000000048,39.111866249544071650
0.211000000000000049,38.303007943654606038
0.212000000000000050,37.510029552814415865
0.213000000000000050,36.731590148997128153
0.214000000000000051,35.966255951413522496
0.215000000000000052,35.212534882699159766
0.216000000000000053,34.468909572958693843
0.217000000000000054,33.733868245272603303
0.218000000000000055,33.005933042595323457
0.219000000000000056,32.283685472996893395
0.220000000000000057,31.565788756574370666
0.221000000000000058,30.851006952303343667
0.222000000000000058,30.138220826274324082
0.223000000000000059,29.426440494214155308
0.224000000000000060,28.714814931252867325
0.225000000000000061,28.002638491118055697
0.226000000000000062,27.289354616033062229
0.227000000000000063,26.574556948385332333
0.228000000000000064,25.857988076604556227
0.229000000000000065,25.139536161565324335
0.230000000000000066,24.419229697129470225
0.231000000000000066,23.697230660065613961
0.232000000000000067,22.973826301396080396
0.233000000000000068,22.249419824033235926
0.234000000000000069,21.524520181136075792
0.235000000000000070,20.799731216632586950
0.236000000000000071,20.075740354438124768
0.237000000000000072,19.353307026608536745
0.238000000000000073,18.633251013490191639
0.239000000000000073,17.916440851290367675
0.240000000000000074,17.203782444750789438
0.241000000000000075,16.496208005075100544
0.242000000000000076,15.794665416184567874
0.243000000000000077,15.100108115961868194
0.244000000000000078,14.413485563550063162
0.245000000000000079,13.735734349122669329
0.246000000000000080,13.067769988919726742
0.247000000000000081,12.410479435807051374
0.248000000000000081,11.764714324195782780
0.249000000000000082,11.131284957862870755
0.250000000000000111,10.510955040030683705
0.251000000000000112,9.904437136971408151
0.252000000000000113,9.312388859359412407
0.253000000000000114,8.735409739559312214
0.254000000000000115,8.174038777948544165
0.255000000000000115,7.628752627177060042
0.256000000000000116,7.099964379895209454
0.257000000000000117,6.588022922870758968
0.258000000000000118,6.093212818501470451
0.259000000000000119,5.615754673442520328
0.260000000000000120,5.155805953345780956
0.261000000000000121,4.713462202487476382
0.262000000000000122,4.288758627280171432
0.263000000000000123,3.881672003269728499
0.264000000000000123,3.492122866150984439
0.265000000000000124,3.119977948549267133
0.266000000000000125,2.765052825759785726
0.267000000000000126,2.427114735271607593
0.268000000000000127,2.105885536685824011
0.269000000000000128,1.801044780535460132
0.270000000000000129,1.512232856492431221
0.271000000000000130,1.239054193476843535
0.272000000000000131,0.981080486240838878
0.273000000000000131,0.737853925058849391
0.274000000000000132,0.508890407200383921
0.275000000000000133,0.293682710871980224
0.276000000000000134,0.091703614278102738
0.277000000000000135,-0.097591055645551178
0.278000000000000136,-0.274759458439894466
0.279000000000000137,-0.440370871129187491
0.280000000000000138,-0.595002925212857692
0.281000000000000139,-0.739238958246563826
0.282000000000000139,-0.873665487126040419
0.283000000000000140,-0.998869808791642000
0.284000000000000141,-1.115437732770574897
0.285000000000000142,-1.223951448768288541
0.286000000000000143,-1.324987531409272279
0.287000000000000144,-1.419115083208729367
0.288000000000000145,-1.506894015928820441
0.289000000000000146,-1.588873469632342106
0.290000000000000147,-1.665590367991651277
0.291000000000000147,-1.737568107735533163
0.292000000000000148,-1.805315379520381125
0.293000000000000149,-1.869325116988098445
0.294000000000000150,-1.930073570319667198
0.295000000000000151,-1.988019500204968093
0.296000000000000152,-2.043603487822029940
0.297000000000000153,-2.097247356149476438
0.298000000000000154,-2.149353697718674017
0.299000000000000155,-2.200305503744650615
0.300000000000000155,-2.250465889452057944
0.301000000000000156,-2.300177910331016484
0.302000000000000157,-2.349764464014225673
0.303000000000000158,-2.399528272456792344
0.304000000000000159,-2.449751939121554756
0.305000000000000160,-2.500698075920965380
0.306000000000000161,-2.552609494739734863
0.307000000000000162,-2.605709458456923588
0.308000000000000163,-2.660201986499393101
0.309000000000000163,-2.716272210088221506
0.310000000000000164,-2.774086772483210783
0.311000000000000165,-2.833794269685886213
0.312000000000000166,-2.895525727226252677
0.313000000000000167,-2.959395108831292642
0.314000000000000168,-3.025499852951988533
0.315000000000000169,-3.093921433308830071
0.316000000000000170,-3.164725939802170096
0.317000000000000171,-3.237964676321603896
0.318000000000000171,-3.313674772177196637
0.319000000000000172,-3.391879804063483217
0.320000000000000173,-3.472590425653545143
0.321000000000000174,-3.555805002104904133
0.322000000000000175,-3.641510246940113493
0.323000000000000176,-3.729681858942481831
0.324000000000000177,-3.820285156880816491
0.325000000000000178,-3.913275710045377220
0.326000000000000179,-4.008599962741127953
0.327000000000000179,-4.106195851042040879
0.328000000000000180,-4.205993410262808041
0.329000000000000181,-4.307915371750577371
0.330000000000000182,-4.411877747739743505
0.331000000000000183,-4.517790403147006195
0.332000000000000184,-4.625557613311626959
0.333000000000000185,-4.735078606807676671
0.334000000000000186,-4.846248092570158761
0.335000000000000187,-4.958956770686216764
0.336000000000000187,-5.073091826305486052
0.337000000000000188,-5.188537406220364190
0.338000000000000189,-5.305175077758219615
0.339000000000000190,-5.422884269712374916
0.340000000000000191,-5.541542695118029549
0.341000000000000192,-5.661026755753484352
0.342000000000000193,-5.781211928315144633
0.343000000000000194,-5.901973132278482304
0.344000000000000195,-6.023185079515017470
0.345000000000000195,-6.144722605789567638
0.346000000000000196,-6.266460984310194604
0.347000000000000197,-6.388276221548585099
0.348000000000000198,-6.510045335588263704
0.349000000000000199,-6.631646617294866708
0.350000000000000200,-6.752959874634910875
0.351000000000000201,-6.873866660498649139
0.352000000000000202,-6.994250484407800172
0.353000000000000203,-7.113997008511529607
0.354000000000000203,-7.232994228293156525
0.355000000000000204,-7.351132638426237875
0.356000000000000205,-7.468305384232698074
0.357000000000000206,-7.584408399206853169
0.358000000000000207,-7.699340529077511874
0.359000000000000208,-7.813003642887740519
0.360000000000000209,-7.925302731576067572
0.361000000000000210,-8.036145994545643489
0.362000000000000210,-8.145444914709276674
0.363000000000000211,-8.253114322497323130
0.364000000000000212,-8.359072449313673658
0.365000000000000213,-8.463240970921622974
0.366000000000000214,-8.565545041236889645
0.367000000000000215,-8.665913316999301230
0.368000000000000216,-8.764277973788290765
0.369000000000000217,-8.860574713839389105
0.370000000000000218,-8.954742766110982188
0.371000000000000218,-9.046724879041239120
0.372000000000000219,-9.136467306425629431
0.373000000000000220,-9.223919786835327983
0.374000000000000221,-9.309035516985876058
0.375000000000000222,-9.391771119454546124
0.376000000000000223,-9.472086605133755555
0.377000000000000224,-9.549945330795697629
0.378000000000000225,-9.625313952131936190
0.379000000000000226,-9.698162372619457017
0.380000000000000226,-9.768463688552806445
0.381000000000000227,-9.836194130569316130
0.382000000000000228,-9.901333001982832727
0.383000000000000229,-9.963862614228606418
0.384000000000000230,-10.023768219710140315
0.385000000000000231,-10.081037942326931400
0.386000000000000232,-10.135662705949531670
0.387000000000000233,-10.187636161097319842
0.388000000000000234,-10.236954610061948401
0.389000000000000234,-10.283616930708726400
0.390000000000000235,-10.327624499176312867
0.391000000000000236,-10.368981111684526297
0.392000000000000237,-10.407692905648946891
0.393000000000000238,-10.443768280290768757
0.394000000000000239,-10.477217816919614179
0.395000000000000240,-10.508054199057465183
0.396000000000000241,-10.536292132561802859
0.397000000000000242,-10.561948265896550225
0.398000000000000242,-10.585041110690482924
0.399000000000000243,-10.605590962713444370
0.400000000000000244,-10.623619823392559169
0.401000000000000245,-10.639151321981845655
0.402000000000000246,-10.652210638490860362
0.403000000000000247,-10.662824427470198430
0.404000000000000248,-10.671020742744165233
0.405000000000000249,-10.676828963173800702
0.406000000000000250,-10.680279719526433624
0.407000000000000250,-10.681404822521539444
0.408000000000000251,-10.680237192116162959
0.409000000000000252,-10.676810788087109927
0.410000000000000253,-10.671160541961430823
0.411000000000000254,-10.663322290341110232
0.412000000000000255,-10.653332709662555189
0.413000000000000256,-10.641229252426647633
0.414000000000000257,-10.627050084929994256
0.415000000000000258,-10.610834026523967566
0.416000000000000258,-10.592620490423362511
0.417000000000000259,-10.572449426082673796
0.418000000000000260,-10.550361263154126590
0.419000000000000261,-10.526396857037932264
0.420000000000000262,-10.500597436031682719
0.421000000000000263,-10.473004550082954722
0.422000000000000264,-10.443660021145570127
0.423000000000000265,-10.412605895137719614
0.424000000000000266,-10.379884395497132488
0.425000000000000266,-10.345537878325997028
0.426000000000000267,-10.309608789116273542
0.427000000000000268,-10.272139621043550051
0.428000000000000269,-10.233172874815824827
0.429000000000000270,-10.192751020061738387
0.430000000000000271,-10.150916458240834217
0.431000000000000272,-10.107711487057260413
0.432000000000000273,-10.063178266356382906
0.433000000000000274,-10.017358785483043704
0.434000000000000274,-9.970294832078391067
0.435000000000000275,-9.922027962291661396
0.436000000000000276,-9.872599472381988761
0.437000000000000277,-9.822050371684520442
0.438000000000000278,-9.770421356914486211
0.439000000000000279,-9.717752787782005797
0.440000000000000280,-9.664084663889878968
0.441000000000000281,-9.609456602886236709
0.442000000000000282,-9.553907819843320937
0.443000000000000282,-9.497477107833367072
0.444000000000000283,-9.440202819672416368
0.445000000000000284,-9.382122850802428360
0.446000000000000285,-9.323274623282118867
0.447000000000000286,-9.263695070856861946
0.448000000000000287,-9.203420625077672668
0.449000000000000288,-9.142487202439809835
0.450000000000000289,-9.080930192511006638
0.451000000000000290,-9.018784447020010475
0.452000000000000290,-8.956084269875860926
0.453000000000000291,-8.892863408088695465
0.454000000000000292,-8.829155043563144289
0.455000000000000293,-8.764991785735473329
0.456000000000000294,-8.700405665026114121
0.457000000000000295,-8.635428127079428862
0.458000000000000296,-8.570090027762852003
0.459000000000000297,-8.504421628898189311
0.460000000000000298,-8.438452594697777087
0.461000000000000298,-8.372211988879207922
0.462000000000000299,-8.305728272432206793
0.463000000000000300,-8.239029302012038869
0.464000000000000301,-8.172142328934153710
0.465000000000000302,-8.105093998745342532
0.466000000000000303,-8.037910351346924998
0.467000000000000304,-7.970616821646340000
0.468000000000000305,-7.903238240713700513
0.469000000000000306,-7.835798837420488105
0.470000000000000306,-7.768322240538269696
0.471000000000000307,-7.700831481275306700
0.472000000000000308,-7.633348996230196803
0.473000000000000309,-7.565896630741474560
0.474000000000000310,-7.498495642613152157
0.475000000000000311,-7.431166706196355776
0.476000000000000312,-7.363929916808103826
0.477000000000000313,-7.296804795468252891
0.478000000000000314,-7.229810293936751009
0.479000000000000314,-7.162964800033469359
0.480000000000000315,-7.096286143223440313
0.481000000000000316,-7.029791600451052780
0.482000000000000317,-6.963497902206936985
0.483000000000000318,-6.897421238812057709
0.484000000000000319,-6.831577266903825496
0.485000000000000320,-6.765981116109673899
0.486000000000000321,-6.700647395893904346
0.487000000000000322,-6.635590202564140228
0.488000000000000322,-6.570823126424125249
0.489000000000000323,-6.506359259060277900
0.490000000000000324,-6.442211200749528466
0.491000000000000325,-6.378391067976660445
0.492000000000000326,-6.314910501049687319
0.493000000000000327,-6.251780671802396050
0.494000000000000328,-6.189012291373271246
0.495000000000000329,-6.126615618050852419
0.496000000000000330,-6.064600465175537636
0.497000000000000330,-6.002976209088688009
0.498000000000000331,-5.941751797119767531
0.499000000000000332,-5.880935755603212911
0.500000000000000333,-5.820536197916515775
0.501000000000000334,-5.760560832531714581
0.502000000000000335,-5.701016971072808914
0.503000000000000336,-5.641911536371811309
0.504000000000000337,-5.583251070516579873
0.505000000000000338,-5.525041742883861851
0.506000000000000338,-5.467289358151361967
0.507000000000000339,-5.409999364282816359
0.508000000000000340,-5.353176860480443722
0.509000000000000341,-5.296826605099554719
0.510000000000000342,-5.240953023520003029
0.511000000000000343,-5.185560215969904796
0.512000000000000344,-5.130651965296911143
0.513000000000000345,-5.076231744682865532
0.514000000000000346,-5.022302725297767445
0.515000000000000346,-4.968867783889223233
0.516000000000000347,-4.915929510303796768
0.517000000000000348,-4.863490214937053580
0.518000000000000349,-4.811551936108918071
0.519000000000000350,-4.760116447361714798
0.520000000000000351,-4.709185264677927307
0.521000000000000352,-4.658759653615332397
0.522000000000000353,-4.608840636357072640
0.523000000000000353,-4.559428998674507127
0.524000000000000354,-4.510525296801009887
0.525000000000000355,-4.462129864214665176
0.526000000000000356,-4.414242818328434126
0.527000000000000357,-4.366864067086209111
0.528000000000000358,-4.319993315463331207
0.529000000000000359,-4.273630071870585745
0.530000000000000360,-4.227773654460376562
0.531000000000000361,-4.182423197334331100
0.532000000000000361,-4.137577656651435731
0.533000000000000362,-4.093235816636070723
0.534000000000000363,-4.049396295485367503
0.535000000000000364,-4.006057551175428166
0.536000000000000365,-3.963217887166083475
0.537000000000000366,-3.920875458003953096
0.538000000000000367,-3.879028274823591804
0.539000000000000368,-3.837674210746818915
0.540000000000000369,-3.796811006180083048
0.541000000000000369,-3.756436274010150900
0.542000000000000370,-3.716547504698198168
0.543000000000000371,-3.677142071272648138
0.544000000000000372,-3.638217234221075902
0.545000000000000373,-3.599770146281647154
0.546000000000000374,-3.561797857134467726
0.547000000000000375,-3.524297317993497103
0.548000000000000376,-3.487265386099587694
0.549000000000000377,-3.450698829115298683
0.550000000000000377,-3.414594329422174557
0.551000000000000378,-3.378948488321285026
0.552000000000000379,-3.343757830137834564
0.553000000000000380,-3.309018806230616061
0.554000000000000381,-3.274727798907250964
0.555000000000000382,-3.240881125246174665
0.556000000000000383,-3.207475040826181178
0.557000000000000384,-3.174505743364705257
0.558000000000000385,-3.141969376265684843
0.559000000000000385,-3.109862032078167804
0.560000000000000386,-3.078179755866682576
0.561000000000000387,-3.046918548494482071
0.562000000000000388,-3.016074369820744838
0.563000000000000389,-2.985643141812932999
0.564000000000000390,-2.955620751575379401
0.565000000000000391,-2.926003054295339911
0.566000000000000392,-2.896785876107629498
0.567000000000000393,-2.867965016879120643
0.568000000000000393,-2.839536252914190317
0.569000000000000394,-2.811495339582418040
0.570000000000000395,-2.783838013869770478
0.571000000000000396,-2.756559996854369032
0.572000000000000397,-2.729656996108260625
0.573000000000000398,-2.703124708026231726
0.574000000000000399,-2.676958820083087165
0.575000000000000400,-2.651155013020467521
0.576000000000000401,-2.625708962964552473
0.577000000000000401,-2.600616343475880221
0.578000000000000402,-2.575872827532449172
0.579000000000000403,-2.551474089447383964
0.580000000000000404,-2.527415806722450142
0.581000000000000405,-2.503693661838512163
0.582000000000000406,-2.480303343984273212
0.583000000000000407,-2.457240550724448358
0.584000000000000408,-2.434500989608603838
0.585000000000000409,-2.412080379721862844
0.586000000000000409,-2.389974453178629776
0.587000000000000410,-2.368178956560595960
0.588000000000000411,-2.346689652300109064
0.589000000000000412,-2.325502320010159440
0.590000000000000413,-2.304612757762048325
0.591000000000000414,-2.284016783311961341
0.592000000000000415,-2.263710235277545557
0.593000000000000416,-2.243688974265589664
0.594000000000000417,-2.223948883951930799
0.595000000000000417,-2.204485872114784861
0.596000000000000418,-2.185295871622334296
0.597000000000000419,-2.166374841375971361
0.598000000000000420,-2.147718767209963353
0.599000000000000421,-2.129323662748789037
0.600000000000000422,-2.111185570223068186
0.601000000000000423,-2.093300561245136304
0.602000000000000424,-2.075664737545291239
0.603000000000000425,-2.058274231669650955
0.604000000000000425,-2.041125207640654526
0.605000000000000426,-2.024213861581120266
0.606000000000000427,-2.007536422302886425
0.607000000000000428,-1.991089151860797601
0.608000000000000429,-1.974868346073235470
0.609000000000000430,-1.958870335009773811
0.610000000000000431,-1.943091483447139556
0.611000000000000432,-1.927528191294148652
0.612000000000000433,-1.912176893986573090
