# TiO2-rut-100_FLUORANE-AC
# h[nm],U(h)[kJ/mol]
0.149999999999999994,42.022998463566203498
0.150999999999999995,40.516387634512319948
0.151999999999999996,39.878546228388884742
0.152999999999999997,39.401485180543730280
0.153999999999999998,38.841477349595130875
0.154999999999999999,38.165173944653986382
0.156000000000000000,37.416001596682434638
0.157000000000000001,36.649981682642376768
0.158000000000000002,35.909758389942133761
0.159000000000000002,35.218205764410242864
0.160000000000000003,34.580903502037600106
0.161000000000000004,33.991645859895072590
0.162000000000000005,33.438062943153440187
0.163000000000000006,32.906109071560777579
0.164000000000000007,32.383081654874402489
0.165000000000000008,31.859282016902284340
0.166000000000000009,31.328611662550780892
0.167000000000000010,30.788434905245196660
0.168000000000000010,30.239005034605224154
0.169000000000000011,29.682689093005429015
0.170000000000000012,29.123159351254322758
0.171000000000000013,28.564659439345302161
0.172000000000000014,28.011404553333061784
0.173000000000000015,27.467139093733152322
0.174000000000000016,26.934850379993541480
0.175000000000000017,26.416621769097069716
0.176000000000000018,25.913600426981268754
0.177000000000000018,25.426052147666201364
0.178000000000000019,24.953476276686878066
0.179000000000000020,24.494756610814953035
0.180000000000000021,24.048328088808265335
0.181000000000000022,23.612343425491694404
0.182000000000000023,23.184828082652828130
0.183000000000000024,22.763815812414275541
0.184000000000000025,22.347460290124594451
0.185000000000000026,21.934121012940853035
0.186000000000000026,21.522423683409741102
0.187000000000000027,21.111296773154112572
0.188000000000000028,20.699986942475543827
0.189000000000000029,20.288056559616457264
0.190000000000000030,19.875366801796928939
0.191000000000000031,19.462049807151458936
0.192000000000000032,19.048473152095436234
0.193000000000000033,18.635199612116856827
0.194000000000000034,18.222944774676125945
0.195000000000000034,17.812534649846487156
0.196000000000000035,17.404864997353246991
0.197000000000000036,17.000863679493221525
0.198000000000000037,16.601456972916558641
0.199000000000000038,16.207540437698888525
0.200000000000000039,15.819954654331620958
0.201000000000000040,15.439465899598008747
0.202000000000000041,15.066751639640296290
0.203000000000000042,14.702390569945615439
0.204000000000000042,14.346856823415995663
0.205000000000000043,14.000517894414880260
0.206000000000000044,13.663635783688173220
0.207000000000000045,13.336370851344033994
0.208000000000000046,13.018787867851637330
0.209000000000000047,12.710863771848359249
0.210000000000000048,12.412496674426231280
0.211000000000000049,12.123515688984861427
0.212000000000000050,11.843691210664690772
0.213000000000000050,11.572745317276975641
0.214000000000000051,11.310362012444731050
0.215000000000000052,11.056197079710271325
0.216000000000000053,10.809887362374634989
0.217000000000000054,10.571059326872459749
0.218000000000000055,10.339336806902247545
0.219000000000000056,10.114347860918229571
0.220000000000000057,9.895730706739662708
0.221000000000000058,9.683138723904848533
0.222000000000000058,9.476244537072737728
0.223000000000000059,9.274743212440952789
0.224000000000000060,9.078354614056628691
0.225000000000000061,8.886824978351080873
0.226000000000000062,8.699927773563047140
0.227000000000000063,8.517463916276593494
0.228000000000000064,8.339261420439523675
0.229000000000000065,8.165174555288780667
0.230000000000000066,7.995082587920370187
0.231000000000000066,7.828888184110835979
0.232000000000000067,7.666515537711021011
0.233000000000000068,7.507908294749546130
0.234000000000000069,7.353027333536397592
0.235000000000000070,7.201848456750902017
0.236000000000000071,7.054360045912820176
0.237000000000000072,6.910560722922754806
0.238000000000000073,6.770457057648817667
0.239000000000000073,6.634061354936998001
0.240000000000000074,6.501389549018966818
0.241000000000000075,6.372459228152496102
0.242000000000000076,6.247287807506192614
0.243000000000000077,6.125890863830184330
0.244000000000000078,6.008280641361210428
0.245000000000000079,5.894464734708170006
0.246000000000000080,5.784444951156972436
0.247000000000000081,5.678216351917596327
0.248000000000000081,5.575766469302732453
0.249000000000000082,5.477074694661291154
0.250000000000000111,5.382111830072775049
0.251000000000000112,5.290839795319375760
0.252000000000000113,5.203211480467425432
0.253000000000000114,5.119170733484994074
0.254000000000000115,5.038652471671617228
0.255000000000000115,4.961582905254900311
0.256000000000000116,4.887879861291575700
0.257000000000000117,4.817453195973119939
0.258000000000000118,4.750205283555275493
0.259000000000000119,4.686031570383925704
0.260000000000000120,4.624821182856259760
0.261000000000000121,4.566457578616502033
0.262000000000000122,4.510819230821434545
0.263000000000000123,4.457780335906351254
0.264000000000000123,4.407211535921847556
0.265000000000000124,4.358980647182586488
0.266000000000000125,4.312953387658963855
0.267000000000000126,4.268994096240917635
0.268000000000000127,4.226966437700630408
0.269000000000000128,4.186734087869915300
0.270000000000000129,4.148161394221543397
0.271000000000000130,4.111114007696334838
0.272000000000000131,4.075459482244629505
0.273000000000000131,4.041067839148153595
0.274000000000000132,4.007812093753372551
0.275000000000000133,3.975568742777994657
0.276000000000000134,3.944218210846943240
0.277000000000000135,3.913645255371934528
0.278000000000000136,3.883739329309317867
0.279000000000000137,3.854394901714306432
0.280000000000000138,3.825511736356436820
0.281000000000000139,3.796995128971964562
0.282000000000000139,3.768756104004840957
0.283000000000000140,3.740711571930398271
0.284000000000000141,3.712784448466183385
0.285000000000000142,3.684903737154185954
0.286000000000000143,3.657004576949739683
0.287000000000000144,3.629028256576434242
0.288000000000000145,3.600922197505033839
0.289000000000000146,3.572639907489976174
0.290000000000000147,3.544140906650731004
0.291000000000000147,3.515390628119633654
0.292000000000000148,3.486360295293786216
0.293000000000000149,3.457026777728790190
0.294000000000000150,3.427372427697404245
0.295000000000000151,3.397384899408678827
0.296000000000000152,3.367056952844270423
0.297000000000000153,3.336386244119641908
0.298000000000000154,3.305375104220424021
0.299000000000000155,3.274030307899385317
0.300000000000000155,3.242362834448512476
0.301000000000000156,3.210387621984870155
0.302000000000000157,3.178123316808926901
0.303000000000000158,3.145592019311282961
0.304000000000000159,3.112819027818549245
0.305000000000000160,3.079832581682880654
0.306000000000000161,3.046663604832535288
0.307000000000000162,3.013345450913806900
0.308000000000000163,2.979913651068257785
0.309000000000000163,2.946405665303698296
0.310000000000000164,2.912860638333574226
0.311000000000000165,2.879319160677370260
0.312000000000000166,2.845823035734996953
0.313000000000000167,2.812415053470830095
0.314000000000000168,2.779138771268751640
0.315000000000000169,2.746038302447941781
0.316000000000000170,2.713158112860878823
0.317000000000000171,2.680542825929792539
0.318000000000000171,2.648237036416060342
0.319000000000000172,2.616285133158447351
0.320000000000000173,2.584731130961123391
0.321000000000000174,2.553618511760654464
0.322000000000000175,2.522990075152848455
0.323000000000000176,2.492887798315432502
0.324000000000000177,2.463352705320824843
0.325000000000000178,2.434424745794863121
0.326000000000000179,2.406142682841978075
0.327000000000000179,2.378543990125172147
0.328000000000000180,2.351664757959777141
0.329000000000000181,2.325539608253522683
0.330000000000000182,2.300201618101834100
0.331000000000000183,2.275682251826053548
0.332000000000000184,2.252011301223821427
0.333000000000000185,2.229216833784522400
0.334000000000000186,2.207325148608854093
0.335000000000000187,2.186360739759637628
0.336000000000000187,2.166346266761256523
0.337000000000000188,2.147302531957123950
0.338000000000000189,2.129248464428393994
0.339000000000000190,2.112201110172633456
0.340000000000000191,2.096175628238167388
0.341000000000000192,2.081185292508169304
0.342000000000000193,2.067241498828385815
0.343000000000000194,2.054353777173189677
0.344000000000000195,2.042529808546819758
0.345000000000000195,2.031775446319530776
0.346000000000000196,2.022094741702426202
0.347000000000000197,2.013489973069477301
0.348000000000000198,2.005961678840629148
0.349000000000000199,1.999508693646145474
0.350000000000000200,1.994128187498946714
0.351000000000000201,1.989815707708973092
0.352000000000000202,1.986565223281206327
0.353000000000000203,1.984369171546995547
0.354000000000000203,1.983218506786657898
0.355000000000000204,1.983102750609901266
0.356000000000000205,1.984010043869359752
0.357000000000000206,1.985927199891432071
0.358000000000000207,1.988839758817739778
0.359000000000000208,1.992732042859445940
0.360000000000000209,1.997587212275916402
0.361000000000000210,2.003387321898253859
0.362000000000000210,2.010113378027294395
0.363000000000000211,2.017745395544642051
0.364000000000000212,2.026262455084197889
0.365000000000000213,2.035642760120436101
0.366000000000000214,2.045863693838248398
0.367000000000000215,2.056901875657691559
0.368000000000000216,2.068733217295195992
0.369000000000000217,2.081332978250938659
0.370000000000000218,2.094675820619877449
0.371000000000000218,2.108735863131739219
0.372000000000000219,2.123486734332497683
0.373000000000000220,2.138901624827274084
0.374000000000000221,2.154953338511380601
0.375000000000000222,2.171614342723077407
0.376000000000000223,2.188856817257973209
0.377000000000000224,2.206652702191253201
0.378000000000000225,2.224973744459901148
0.379000000000000226,2.243791543162751978
0.380000000000000226,2.263077593541649168
0.381000000000000227,2.282803329612269838
0.382000000000000228,2.302940165418034812
0.383000000000000229,2.323459534885274902
0.384000000000000230,2.344332930262363668
0.385000000000000231,2.365531939129572159
0.386000000000000232,2.387028279970635047
0.387000000000000233,2.408793836300572089
0.388000000000000234,2.430800689348029842
0.389000000000000234,2.453021149293582948
0.390000000000000235,2.475427785068682773
0.391000000000000236,2.497993452722744312
0.392000000000000237,2.520691322368673770
0.393000000000000238,2.543494903719547118
0.394000000000000239,2.566378070231592368
0.395000000000000240,2.589315081870695145
0.396000000000000241,2.612280606521658832
0.397000000000000242,2.635249740061282431
0.398000000000000242,2.658198025117912699
0.399000000000000243,2.681101468541672528
0.400000000000000244,2.703936557610939317
0.401000000000000245,2.726680275001753806
0.402000000000000246,2.749310112548024598
0.403000000000000247,2.771804083821323150
0.404000000000000248,2.794140735559799360
0.405000000000000249,2.816299157976591694
0.406000000000000250,2.838258993978611588
0.407000000000000250,2.860000447327095241
0.408000000000000251,2.881504289771783967
0.409000000000000252,2.902751867190780821
0.410000000000000253,2.923725104768478467
0.411000000000000254,2.944406511243982116
0.412000000000000255,2.964779182262612611
0.413000000000000256,2.984826802862957429
0.414000000000000257,3.004533649131992945
0.415000000000000258,3.023884589060504613
0.416000000000000258,3.042865082630988649
0.417000000000000259,3.061461181169845780
0.418000000000000260,3.079659525995452451
0.419000000000000261,3.097447346393316980
0.420000000000000262,3.114812456949129782
0.421000000000000263,3.131743254270138443
0.422000000000000264,3.148228713124710421
0.423000000000000265,3.164258382029624617
0.424000000000000266,3.179822378313897691
0.425000000000000266,3.194911382687587675
0.426000000000000267,3.209516633343329595
0.427000000000000268,3.223629919617826634
0.428000000000000269,3.237243575239877380
0.429000000000000270,3.250350471190884605
0.430000000000000271,3.262944008203228385
0.431000000000000272,3.275018108921131876
0.432000000000000273,3.286567209748059604
0.433000000000000274,3.297586252404003826
0.434000000000000274,3.308070675215363021
0.435000000000000275,3.318016404159394916
0.436000000000000276,3.327419843684594980
0.437000000000000277,3.336277867327697155
0.438000000000000278,3.344587808147213792
0.439000000000000279,3.352347448992912149
0.440000000000000280,3.359555012629803716
0.441000000000000281,3.366209151734691041
0.442000000000000282,3.372308938782544008
0.443000000000000282,3.377853855839417552
0.444000000000000283,3.382843784277904664
0.445000000000000284,3.387278994430537260
0.446000000000000285,3.391160135195907088
0.447000000000000286,3.394488223611587863
0.448000000000000287,3.397264634407496153
0.449000000000000288,3.399491089552512335
0.450000000000000289,3.401169647806803198
0.451000000000000290,3.402302694291563512
0.452000000000000290,3.402892930087418222
0.453000000000000291,3.402943361872112327
0.454000000000000292,3.402457291607650092
0.455000000000000293,3.401438306286416857
0.456000000000000294,3.399890267745423245
0.457000000000000295,3.397817302557205377
0.458000000000000296,3.395223792005473307
0.459000000000000297,3.392114362153159313
0.460000000000000298,3.388493874009962159
0.461000000000000298,3.384367413806137925
0.462000000000000299,3.379740283378778631
0.463000000000000300,3.374617990676444634
0.464000000000000301,3.369006240387572682
0.465000000000000302,3.362910924697706694
0.466000000000000303,3.356338114180216881
0.467000000000000304,3.349294048824801528
0.468000000000000305,3.341785129207671901
0.469000000000000306,3.333817907807053338
0.470000000000000306,3.325399080467221324
0.471000000000000307,3.316535478014022154
0.472000000000000308,3.307234058024509871
0.473000000000000309,3.297501896753021189
0.474000000000000310,3.287346181215735186
0.475000000000000311,3.276774201435499467
0.476000000000000312,3.265793342848424263
0.477000000000000313,3.254411078873509666
0.478000000000000314,3.242634963646339408
0.479000000000000314,3.230472624917595681
0.480000000000000315,3.217931757117018954
0.481000000000000316,3.205020114583123192
0.482000000000000317,3.191745504958880986
0.483000000000000318,3.178115782753297314
0.484000000000000319,3.164138843068722728
0.485000000000000320,3.149822615493484967
0.486000000000000321,3.135175058159317629
0.487000000000000322,3.120204151962892691
0.488000000000000322,3.104917894950605994
0.489000000000000323,3.089324296865652020
0.490000000000000324,3.073431373856280402
0.491000000000000325,3.057247143343988505
0.492000000000000326,3.040779619050327121
0.493000000000000327,3.024036806180865344
0.494000000000000328,3.007026696764744322
0.495000000000000329,2.989757265148214493
0.496000000000000330,2.972236463640367532
0.497000000000000330,2.954472218309317277
0.498000000000000331,2.936472424926862779
0.499000000000000332,2.918244945059766948
0.500000000000000333,2.899797602305534294
0.501000000000000334,2.881138178670681782
0.502000000000000335,2.862274411089310799
0.503000000000000336,2.843213988079865029
0.504000000000000337,2.823964546537768960
0.505000000000000338,2.804533668661749246
0.506000000000000338,2.784928879011502101
0.507000000000000339,2.765157641694384161
0.508000000000000340,2.745227357678764690
0.509000000000000341,2.725145362231697010
0.510000000000000342,2.704918922478441790
0.511000000000000343,2.684555235081492075
0.512000000000000344,2.664061424036636261
0.513000000000000345,2.643444538583641812
0.514000000000000346,2.622711551229104820
0.515000000000000346,2.601869355879040224
0.516000000000000347,2.580924766078738664
0.517000000000000348,2.559884513357489233
0.518000000000000349,2.538755245675672345
0.519000000000000350,2.517543525971864593
0.520000000000000351,2.496255830807458498
0.521000000000000352,2.474898549106447465
0.522000000000000353,2.453477980987951668
0.523000000000000353,2.432000336689081443
0.524000000000000354,2.410471735575847596
0.525000000000000355,2.388898205239662342
0.526000000000000356,2.367285680677215787
0.527000000000000357,2.345640003551343611
0.528000000000000358,2.323966921530626006
0.529000000000000359,2.302272087705497849
0.530000000000000360,2.280561060078563518
0.531000000000000361,2.258839301126980725
0.532000000000000361,2.237112177434688931
0.533000000000000362,2.215384959392339148
0.534000000000000363,2.193662820962827276
0.535000000000000364,2.171950839510292219
0.536000000000000365,2.150253995690566633
0.537000000000000366,2.128577173401005940
0.538000000000000367,2.106925159787721658
0.539000000000000368,2.085302645308243719
0.540000000000000369,2.063714223847664009
0.541000000000000369,2.042164392886381297
0.542000000000000370,2.020657553717560173
0.543000000000000371,1.999198011712468581
0.544000000000000372,1.977789976631895597
0.545000000000000373,1.956437562981892864
0.546000000000000374,1.935144790412067994
0.547000000000000375,1.913915584154769034
0.548000000000000376,1.892753775503475122
0.549000000000000377,1.871663102328759321
0.550000000000000377,1.850647209630219781
0.551000000000000378,1.829709650122829601
0.552000000000000379,1.808853884856177263
0.553000000000000380,1.788083283865063766
0.554000000000000381,1.767401126850039805
0.555000000000000382,1.746810603886434832
0.556000000000000383,1.726314816160459786
0.557000000000000384,1.705916776731062345
0.558000000000000385,1.685619411316167326
0.559000000000000385,1.665425559102020170
0.560000000000000386,1.645337973574372725
0.561000000000000387,1.625359323370263454
0.562000000000000388,1.605492193149205660
0.563000000000000389,1.585739084482590489
0.564000000000000390,1.566102416760195792
0.565000000000000391,1.546584528112659118
0.566000000000000392,1.527187676348865875
0.567000000000000393,1.507914039907179982
0.568000000000000393,1.488765718819515360
0.569000000000000394,1.469744735687227077
0.570000000000000395,1.450853036667921092
0.571000000000000396,1.432092492472173406
0.572000000000000397,1.413464899369307304
0.573000000000000398,1.394971980201330286
0.574000000000000399,1.376615385404183600
0.575000000000000400,1.358396694035466368
0.576000000000000401,1.340317414807856711
0.577000000000000401,1.322378987127449168
0.578000000000000402,1.304582782136235242
0.579000000000000403,1.286930103758049393
0.580000000000000404,1.269422189747242635
0.581000000000000405,1.252060212739424028
0.582000000000000406,1.234845281303621922
0.583000000000000407,1.217778440995211264
0.584000000000000408,1.200860675409041844
0.585000000000000409,1.184092907232143110
0.586000000000000409,1.167475999295456646
0.587000000000000410,1.151010755624060966
0.588000000000000411,1.134697922485357946
0.589000000000000412,1.118538189434716168
0.590000000000000413,1.102532190358098019
0.591000000000000414,1.086680504511201573
0.592000000000000415,1.070983657554682722
0.593000000000000416,1.055442122585011244
0.594000000000000417,1.040056321160566899
0.595000000000000417,1.024826624322611179
0.596000000000000418,1.009753353610687299
0.597000000000000419,0.994836782072190173
0.598000000000000420,0.980077135265678856
0.599000000000000421,0.965474592257666409
0.600000000000000422,0.951029286612542046
0.601000000000000423,0.936741307375362320
0.602000000000000424,0.922610700047205912
0.603000000000000425,0.908637467552831035
0.604000000000000425,0.894821571200412280
0.605000000000000426,0.881162931633085789
0.606000000000000427,0.867661429772093151
0.607000000000000428,0.854316907751315968
0.608000000000000429,0.841129169842993130
0.609000000000000430,0.828097983374449065
0.610000000000000431,0.815223079635638337
0.611000000000000432,0.802504154777359924
0.612000000000000433,0.789940870699983311
0.613000000000000433,0.777532855932531186
0.614000000000000434,0.765279706502025370
0.615000000000000435,0.753180986792922336
0.616000000000000436,0.741236230396568607
0.617000000000000437,0.729444940950562115
0.618000000000000438,0.717806592967922485
0.619000000000000439,0.706320632655977776
0.620000000000000440,0.694986478724922585
0.621000000000000441,0.683803523185946838
0.622000000000000441,0.672771132138896499
