# TiO2-rut-100_ACETALDEHYDE-AC
# h[nm],U(h)[kJ/mol]
0.149999999999999994,61.737207900172542452
0.150999999999999995,59.738995956766700601
0.151999999999999996,58.813008305311186064
0.152999999999999997,58.114097146539030803
0.153999999999999998,57.336621344082402629
0.154999999999999999,56.425865641842200660
0.156000000000000000,55.423686163598333110
0.157000000000000001,54.392501656125411102
0.158000000000000002,53.383051039961607387
0.159000000000000002,52.425068848484592365
0.160000000000000003,51.528735721825228211
0.161000000000000004,50.690167408243510749
0.162000000000000005,49.897474641312157928
0.163000000000000006,49.135832944705967407
0.164000000000000007,48.391057492257424144
0.165000000000000008,47.651717014968710373
0.166000000000000009,46.910056267953997633
0.167000000000000010,46.162063261498751388
0.168000000000000010,45.406997781186973384
0.169000000000000011,44.646640490362287323
0.170000000000000012,43.884454600029613403
0.171000000000000013,43.124788965386173345
0.172000000000000014,42.372198859792476355
0.173000000000000015,41.630920388675690447
0.174000000000000016,40.904505931647584305
0.175000000000000017,40.195609418778261102
0.176000000000000018,39.505899571797804981
0.177000000000000018,38.836074438249227114
0.178000000000000019,38.185949832899090950
0.179000000000000020,37.554596219738606067
0.180000000000000021,36.940501995310015104
0.181000000000000022,36.341745245665649122
0.182000000000000023,35.756160273590111842
0.183000000000000024,35.181489160275418726
0.184000000000000025,34.615512121073479079
0.185000000000000026,34.056153335524612658
0.186000000000000026,33.501561253249249717
0.187000000000000027,32.950164126541913845
0.188000000000000028,32.400702755482619466
0.189000000000000029,31.852243225699055529
0.190000000000000030,31.304172851368065267
0.191000000000000031,30.756182683554065704
0.192000000000000032,30.208239877214435154
0.193000000000000033,29.660552991173840809
0.194000000000000034,29.113532976455502421
0.195000000000000034,28.567752232238820653
0.196000000000000035,28.023903708953543656
0.197000000000000036,27.482761639986343027
0.198000000000000037,26.945145105436910882
0.199000000000000038,26.411885285635566589
0.200000000000000039,25.883796956203401152
0.201000000000000040,25.361654513959681623
0.202000000000000041,24.846172604711004084
0.203000000000000042,24.337991248512093279
0.204000000000000042,23.837665222508281460
0.205000000000000043,23.345657362147480995
0.206000000000000044,22.862335374045237302
0.207000000000000045,22.387971713562954790
0.208000000000000046,21.922746062711382820
0.209000000000000047,21.466749945028762880
0.210000000000000048,21.019993029637703330
0.211000000000000049,20.582410703189673029
0.212000000000000050,20.153872522721034244
0.213000000000000050,19.734191201878100941
0.214000000000000051,19.323131825251643079
0.215000000000000052,18.920421028839538025
0.216000000000000053,18.525755927443519511
0.217000000000000054,18.138812610954818894
0.218000000000000055,17.759254070141643922
0.219000000000000056,17.386737448120811678
0.220000000000000057,17.020920545793384093
0.221000000000000058,16.661467537949324225
0.222000000000000058,16.308053881436279653
0.223000000000000059,15.960370417804139009
0.224000000000000060,15.618126690319801497
0.225000000000000061,15.281053509408048185
0.226000000000000062,14.948904811666803738
0.227000000000000063,14.621458865912112302
0.228000000000000064,14.298518885527006006
0.229000000000000065,13.979913110020589784
0.230000000000000066,13.665494420446412605
0.231000000000000066,13.355139553467529012
0.232000000000000067,13.048747977659775898
0.233000000000000068,12.746240493364158652
0.234000000000000069,12.447557614262738213
0.235000000000000070,12.152657785065823504
0.236000000000000071,11.861515485444444451
0.237000000000000072,11.574119265780250743
0.238000000000000073,11.290469755574756405
0.239000000000000073,11.010577680577643633
0.240000000000000074,10.734461919956945763
0.241000000000000075,10.462147630224569284
0.242000000000000076,10.193664458210800916
0.243000000000000077,9.929044861201447247
0.244000000000000078,9.668322548448134768
0.245000000000000079,9.411531054660578377
0.246000000000000080,9.158702452806124938
0.247000000000000081,8.909866210582615409
0.248000000000000081,8.665048192297728491
0.249000000000000082,8.424269805575153924
0.250000000000000111,8.187547290305417391
0.251000000000000112,7.954891145554341847
0.252000000000000113,7.726305688717118869
0.253000000000000114,7.501788740044810666
0.254000000000000115,7.281331424750428383
0.255000000000000115,7.064918084205574544
0.256000000000000116,6.852526287243530412
0.257000000000000117,6.644126932270763675
0.258000000000000118,6.439684430735743703
0.259000000000000119,6.239156962491810177
0.260000000000000120,6.042496793700715685
0.261000000000000121,5.849650648138511322
0.262000000000000122,5.660560123067599925
0.263000000000000123,5.475162141213969491
0.264000000000000123,5.293389430821583197
0.265000000000000124,5.115171026234276219
0.266000000000000125,4.940432781967357023
0.267000000000000126,4.769097893765893659
0.268000000000000127,4.601087420694919494
0.269000000000000128,4.436320802860874046
0.270000000000000129,4.274716369915481984
0.271000000000000130,4.116191836037467411
0.272000000000000131,3.960664777618728927
0.273000000000000131,3.808053090395104423
0.274000000000000132,3.658275423254659042
0.275000000000000133,3.511251586425125026
0.276000000000000134,3.366902932184903108
0.277000000000000135,3.225152706657437474
0.278000000000000136,3.085926371634931442
0.279000000000000137,2.949151895734686057
0.280000000000000138,2.814760014519026576
0.281000000000000139,2.682684459507775898
0.282000000000000139,2.552862156281538120
0.283000000000000140,2.425233392114927611
0.284000000000000141,2.299741953792234117
0.285000000000000142,2.176335236445131383
0.286000000000000143,2.054964324413736776
0.287000000000000144,1.935584045270509090
0.288000000000000145,1.818152998261436393
0.289000000000000146,1.702633558513736656
0.290000000000000147,1.588991858433382198
0.291000000000000147,1.477197747772533765
0.292000000000000148,1.367224733886239552
0.293000000000000149,1.259049903722331942
0.294000000000000150,1.152653829098637450
0.295000000000000151,1.048020456819522384
0.296000000000000152,0.945136985170330179
0.297000000000000153,0.843993728304992197
0.298000000000000154,0.744583970009768281
0.299000000000000155,0.646903808286465654
0.300000000000000155,0.550951992152035830
0.301000000000000156,0.456729751999640388
0.302000000000000157,0.364240624809651692
0.303000000000000158,0.273490275439024877
0.304000000000000159,0.184486315154068437
0.305000000000000160,0.097238118506479648
0.306000000000000161,0.011756639585488227
0.307000000000000162,-0.071945771388829960
0.308000000000000163,-0.153855550234105187
0.309000000000000163,-0.233958098907217249
0.310000000000000164,-0.312237962777394074
0.311000000000000165,-0.388679004375847459
0.312000000000000166,-0.463264572992167944
0.313000000000000167,-0.535977669551220948
0.314000000000000168,-0.606801106265945522
0.315000000000000169,-0.675717660621139471
0.316000000000000170,-0.742710223300673045
0.317000000000000171,-0.807761939725485156
0.318000000000000171,-0.870856344922202319
0.319000000000000172,-0.931977491492154031
0.320000000000000173,-0.991110070497625784
0.321000000000000174,-1.048239525126790417
0.322000000000000175,-1.103352157040566439
0.323000000000000176,-1.156435225343707796
0.324000000000000177,-1.207477038158887295
0.325000000000000178,-1.256467036816185434
0.326000000000000179,-1.303395872701811120
0.327000000000000179,-1.348255476838142730
0.328000000000000180,-1.391039122293587393
0.329000000000000181,-1.431741479544416329
0.330000000000000182,-1.470358664932007287
0.331000000000000183,-1.506888282378352262
0.332000000000000184,-1.541329458539468344
0.333000000000000185,-1.573682871591528531
0.334000000000000186,-1.603950773857449885
0.335000000000000187,-1.632137008492946517
0.336000000000000187,-1.658247020460473564
0.337000000000000188,-1.682287862027197489
0.338000000000000189,-1.704268193029534029
0.339000000000000190,-1.724198276151459819
0.340000000000000191,-1.742089967467208567
0.341000000000000192,-1.757956702501288770
0.342000000000000193,-1.771813478059583336
0.343000000000000194,-1.783676830085383358
0.344000000000000195,-1.793564807792916271
0.345000000000000195,-1.801496944329289418
0.346000000000000196,-1.807494224212586875
0.347000000000000197,-1.811579047790594643
0.348000000000000198,-1.813775192960294991
0.349000000000000199,-1.814107774383397098
0.350000000000000200,-1.812603200427946648
0.351000000000000201,-1.809289128060060703
0.352000000000000202,-1.804194415903691562
0.353000000000000203,-1.797349075679709030
0.354000000000000203,-1.788784222228676501
0.355000000000000204,-1.778532022314484706
0.356000000000000205,-1.766625642398773177
0.357000000000000206,-1.753099195568513569
0.358000000000000207,-1.737987687791352043
0.359000000000000208,-1.721326963665870124
0.360000000000000209,-1.703153651825914494
0.361000000000000210,-1.683505110150527617
0.362000000000000210,-1.662419370923168049
0.363000000000000211,-1.639935086076259818
0.364000000000000212,-1.616091472649455296
0.365000000000000213,-1.590928258582398502
0.366000000000000214,-1.564485628955393670
0.367000000000000215,-1.536804172784024924
0.368000000000000216,-1.507924830466650157
0.369000000000000217,-1.477888841976604528
0.370000000000000218,-1.446737695884235952
0.371000000000000218,-1.414513079287035957
0.372000000000000219,-1.381256828719896301
0.373000000000000220,-1.347010882111050245
0.374000000000000221,-1.311817231843335652
0.375000000000000222,-1.275717878974407693
0.376000000000000223,-1.238754788664058193
0.377000000000000224,-1.200969846851242639
0.378000000000000225,-1.162404818218223168
0.379000000000000226,-1.123101305474280664
0.380000000000000226,-1.083100709986691390
0.381000000000000227,-1.042444193781979944
0.382000000000000228,-1.001172642936307922
0.383000000000000229,-0.959326632369597143
0.384000000000000230,-0.916946392054055592
0.385000000000000231,-0.874071774644249899
0.386000000000000232,-0.830742224532109774
0.387000000000000233,-0.786996748327195350
0.388000000000000234,-0.742873886759247815
0.389000000000000234,-0.698411687997318453
0.390000000000000235,-0.653647682376907513
0.391000000000000236,-0.608618858524097250
0.392000000000000237,-0.563361640863223601
0.393000000000000238,-0.517911868492539673
0.394000000000000239,-0.472304775410169242
0.395000000000000240,-0.426574972070917546
0.396000000000000241,-0.380756428252721157
0.397000000000000242,-0.334882457209907280
0.398000000000000242,-0.288985701089193303
0.399000000000000243,-0.243098117582872059
0.400000000000000244,-0.197250967792556853
0.401000000000000245,-0.151474805275951974
0.402000000000000246,-0.105799466247997478
0.403000000000000247,-0.060254060907090047
0.404000000000000248,-0.014866965856405789
0.405000000000000249,0.030334182410304479
0.406000000000000250,0.075322492989509771
0.407000000000000250,0.120071825046694974
0.408000000000000251,0.164556791324972501
0.409000000000000252,0.208752760715397084
0.410000000000000253,0.252635859921138906
0.411000000000000254,0.296182974247638731
0.412000000000000255,0.339371747550911151
0.413000000000000256,0.382180581376061368
0.414000000000000257,0.424588633318004560
0.415000000000000258,0.466575814636077280
0.416000000000000258,0.508122787154138056
0.417000000000000259,0.549210959477322680
0.418000000000000260,0.589822482556391914
0.419000000000000261,0.629940244630184387
0.420000000000000262,0.669547865576269330
0.421000000000000263,0.708629690699493997
0.422000000000000264,0.747170783987554987
0.423000000000000265,0.785156920862373986
0.424000000000000266,0.822574580455273541
0.425000000000000266,0.859410937433705002
0.426000000000000267,0.895653853406409239
0.427000000000000268,0.931291867933530582
0.428000000000000269,0.966314189167446158
0.429000000000000270,1.000710684149479723
0.430000000000000271,1.034471868787143922
0.431000000000000272,1.067588897535731052
0.432000000000000273,1.100053552807576551
0.433000000000000274,1.131858234131569718
0.434000000000000274,1.162995947084903614
0.435000000000000275,1.193460292018298396
0.436000000000000276,1.223245452595353999
0.437000000000000277,1.252346184165997967
0.438000000000000278,1.280757801993309020
0.439000000000000279,1.308476169352352336
0.440000000000000280,1.335497685519045241
0.441000000000000281,1.361819273666360797
0.442000000000000282,1.387438368684550394
0.443000000000000282,1.412352904941493126
0.444000000000000283,1.436561303998518335
0.445000000000000284,1.460062462296558339
0.446000000000000285,1.482855738826837300
0.447000000000000286,1.504940942799586789
0.448000000000000287,1.526318321323899330
0.449000000000000288,1.546988547111022960
0.450000000000000289,1.566952706213004642
0.451000000000000290,1.586212285807912181
0.452000000000000290,1.604769162042374742
0.453000000000000291,1.622625587941630698
0.454000000000000292,1.639784181396721774
0.455000000000000293,1.656247913238007907
0.456000000000000294,1.672020095403620177
0.457000000000000295,1.687104369211023691
0.458000000000000296,1.701504693739363860
0.459000000000000297,1.715225334329814499
0.460000000000000298,1.728270851210699899
0.461000000000000298,1.740646088253707591
0.462000000000000299,1.752356161867097750
0.463000000000000300,1.763406450031434813
0.464000000000000301,1.773802581482883500
0.465000000000000302,1.783550425048798571
0.466000000000000303,1.792656079139975489
0.467000000000000304,1.801125861403490402
0.468000000000000305,1.808966298539755879
0.469000000000000306,1.816184116287124839
0.470000000000000306,1.822786229576943473
0.471000000000000307,1.828779732861759655
0.472000000000000308,1.834171890618991885
0.473000000000000309,1.838970128032161755
0.474000000000000310,1.843182021851422991
0.475000000000000311,1.846815291434955153
0.476000000000000312,1.849877789972421027
0.477000000000000313,1.852377495891569747
0.478000000000000314,1.854322504448712383
0.479000000000000314,1.855721019503634661
0.480000000000000315,1.856581345479313416
0.481000000000000316,1.856911879506534913
0.482000000000000317,1.856721103753388835
0.483000000000000318,1.856017577939359509
0.484000000000000319,1.854809932033638420
0.485000000000000320,1.853106859137004125
0.486000000000000321,1.850917108546589418
0.487000000000000322,1.848249479002579632
0.488000000000000322,1.845112812115846213
0.489000000000000323,1.841515985975289649
0.490000000000000324,1.837467908933643868
0.491000000000000325,1.832977513570264616
0.492000000000000326,1.828053750829406354
0.493000000000000327,1.822705584332334539
0.494000000000000328,1.816941984861506043
0.495000000000000329,1.810771925015053352
0.496000000000000330,1.804204374029570346
0.497000000000000330,1.797248292769276556
0.498000000000000331,1.789912628879440915
0.499000000000000332,1.782206312101963785
0.500000000000000333,1.774138249750871310
0.501000000000000334,1.765717322345523810
0.502000000000000335,1.756952379399157493
0.503000000000000336,1.747852235360471740
0.504000000000000337,1.738425665705814582
0.505000000000000338,1.728681403179542331
0.506000000000000338,1.718628134180084199
0.507000000000000339,1.708274495289213490
0.508000000000000340,1.697629069941983149
0.509000000000000341,1.686700385234799926
0.510000000000000342,1.675496908869041679
0.511000000000000343,1.664027046227665396
0.512000000000000344,1.652299137582186273
0.513000000000000345,1.640321455427444564
0.514000000000000346,1.628102201941540983
0.515000000000000346,1.615649506568342941
0.516000000000000347,1.602971423719941502
0.517000000000000348,1.590075930596456244
0.518000000000000349,1.576970925120583455
0.519000000000000350,1.563664223984320589
0.520000000000000351,1.550163560805225993
0.521000000000000352,1.536476584389710798
0.522000000000000353,1.522610857100753945
0.523000000000000353,1.508573853327518588
0.524000000000000354,1.494372958054360767
0.525000000000000355,1.480015465526674179
0.526000000000000356,1.465508578011163188
0.527000000000000357,1.450859404648001894
0.528000000000000358,1.436074960392500710
0.529000000000000359,1.421162165043828196
0.530000000000000360,1.406127842358429580
0.531000000000000361,1.390978719245748119
0.532000000000000361,1.375721425043949564
0.533000000000000362,1.360362490873309183
0.534000000000000363,1.344908349065025543
0.535000000000000364,1.329365332663180022
0.536000000000000365,1.313739674997651763
0.537000000000000366,1.298037509325803196
0.538000000000000367,1.282264868540772706
0.539000000000000368,1.266427684944279708
0.540000000000000369,1.250531790081837347
0.541000000000000369,1.234582914638345574
0.542000000000000370,1.218586688392023998
0.543000000000000371,1.202548640224734289
0.544000000000000372,1.186474198186710849
0.545000000000000373,1.170368689613823454
0.546000000000000374,1.154237341295465402
0.547000000000000375,1.138085279691245733
0.548000000000000376,1.121917531194668083
0.549000000000000377,1.105739022442036701
0.550000000000000377,1.089554580664837680
0.551000000000000378,1.073368934083897885
0.552000000000000379,1.057186712343685331
0.553000000000000380,1.041012446985064344
0.554000000000000381,1.024850571954960987
0.555000000000000382,1.008705424151353336
0.556000000000000383,0.992581244002056495
0.557000000000000384,0.976482176075823660
0.558000000000000385,0.960412269724300494
0.559000000000000385,0.944375479753386982
0.560000000000000386,0.928375667122660397
0.561000000000000387,0.912416599671453277
0.562000000000000388,0.896501952870294772
0.563000000000000389,0.880635310596401433
0.564000000000000390,0.864820165931974194
0.565000000000000391,0.849059921984058108
0.566000000000000392,0.833357892724784888
0.567000000000000393,0.817717303850814092
0.568000000000000393,0.802141293660853960
0.569000000000000394,0.786632913950134127
0.570000000000000395,0.771195130920805383
0.571000000000000396,0.755830826107152909
0.572000000000000397,0.740542797314657664
0.573000000000000398,0.725333759571909931
0.574000000000000399,0.710206346094398810
0.575000000000000400,0.695163109259258505
0.576000000000000401,0.680206521590076996
0.577000000000000401,0.665338976750873057
0.578000000000000402,0.650562790548389502
0.579000000000000403,0.635880201941910528
0.580000000000000404,0.621293374059761705
0.581000000000000405,0.606804395221748671
0.582000000000000406,0.592415279966779118
0.583000000000000407,0.578127970084923448
0.584000000000000408,0.563944335653257078
0.585000000000000409,0.549866176074765178
0.586000000000000409,0.535895221119665699
0.587000000000000410,0.522033131968536956
0.588000000000000411,0.508281502256619611
0.589000000000000412,0.494641859118706229
0.590000000000000413,0.481115664234063711
0.591000000000000414,0.467704314870823368
0.592000000000000415,0.454409144929333819
0.593000000000000416,0.441231425983942604
0.594000000000000417,0.428172368322735419
0.595000000000000417,0.415233121984777576
0.596000000000000418,0.402414777794355749
0.597000000000000419,0.389718368391863468
0.598000000000000420,0.377144869260835958
0.599000000000000421,0.364695199750800114
0.600000000000000422,0.352370224095511164
0.601000000000000423,0.340170752426254330
0.602000000000000424,0.328097541779821089
0.603000000000000425,0.316151297100846163
0.604000000000000425,0.304332672238199209
0.605000000000000426,0.292642270935107696
0.606000000000000427,0.281080647812716911
0.607000000000000428,0.269648309346853243
0.608000000000000429,0.258345714837655338
0.609000000000000430,0.247173277371919603
0.610000000000000431,0.236131364777833863
0.611000000000000432,0.225220300571934567
0.612000000000000433,0.214440364898067143
0.613000000000000433,0.203791795458117292
0.614000000000000434,0.193274788434381145
0.615000000000000435,0.182889499403350170
0.616000000000000436,0.172636044240771502
0.617000000000000437,0.162514500017822805
0.618000000000000438,0.152524905888258705
0.619000000000000439,0.142667263966389096
