# TiO2-rut-100_PYRIMIDINE-AC
# h[nm],U(h)[kJ/mol]
0.149999999999999994,103.503873058089624237
0.150999999999999995,101.176791303550999146
0.151999999999999996,99.494636334700231828
0.152999999999999997,97.967796115866775608
0.153999999999999998,96.413700243549129709
0.154999999999999999,94.795482167639846693
0.156000000000000000,93.134314145267083518
0.157000000000000001,91.465304523530761571
0.158000000000000002,89.818123594032797996
0.159000000000000002,88.210858197639225864
0.160000000000000003,86.650292557893834555
0.161000000000000004,85.134764818114362583
0.162000000000000005,83.657559470411712255
0.163000000000000006,82.209871265358700043
0.164000000000000007,80.782986506742759047
0.165000000000000008,79.369650668169057894
0.166000000000000009,77.964742367923079769
0.167000000000000010,76.565426440075810888
0.168000000000000010,75.170958979910750486
0.169000000000000011,73.782292549839141316
0.170000000000000012,72.401596291604988664
0.171000000000000013,71.031772248995551422
0.172000000000000014,69.676020013431596567
0.173000000000000015,68.337478461334896451
0.174000000000000016,67.018955978281127273
0.175000000000000017,65.722748534830856215
0.176000000000000018,64.450537358772294283
0.177000000000000018,63.203353747618237435
0.178000000000000019,61.981596868712145465
0.179000000000000020,60.785090423204259480
0.180000000000000021,59.613165178748410256
0.181000000000000022,58.464756125465633829
0.182000000000000023,57.338505031427601466
0.183000000000000024,56.232861225943864270
0.184000000000000025,55.146175364752949122
0.185000000000000026,54.076782639078977866
0.186000000000000026,53.023073336076230078
0.187000000000000027,51.983549830235787681
0.188000000000000028,50.956869994565927584
0.189000000000000029,49.941877690849210580
0.190000000000000030,48.937621461158194336
0.191000000000000031,47.943362831845981020
0.192000000000000032,46.958575789801443534
0.193000000000000033,45.982939029967951683
0.194000000000000034,45.016322530698154480
0.195000000000000034,44.058769913303009957
0.196000000000000035,43.110477904029572471
0.197000000000000036,42.171774056738271952
0.198000000000000037,41.243093725338347610
0.199000000000000038,40.324957106101408044
0.200000000000000039,39.417947008210042270
0.201000000000000040,38.522687861025190159
0.202000000000000041,37.639826331521646807
0.203000000000000042,36.770013806692894320
0.204000000000000042,35.913890893946174288
0.205000000000000043,35.072074007282999730
0.206000000000000044,34.245144037516951130
0.207000000000000045,33.433637049679290953
0.208000000000000046,32.638036908639278977
0.209000000000000047,31.858769703254136374
0.210000000000000048,31.096199818479203003
0.211000000000000049,30.350627492278146491
0.212000000000000050,29.622287688427796581
0.213000000000000050,28.911350116092144447
0.214000000000000051,28.217920231151396138
0.215000000000000052,27.542041061670836655
0.216000000000000053,26.883695709675379248
0.217000000000000054,26.242810392789419183
0.218000000000000055,25.619257901670046351
0.219000000000000056,25.012861361980210262
0.220000000000000057,24.423398202498319165
0.221000000000000058,23.850604243519860859
0.222000000000000058,23.294177831723953176
0.223000000000000059,22.753783958983099467
0.224000000000000060,22.229058313063241314
0.225000000000000061,21.719611217725002916
0.226000000000000062,21.225031428361212704
0.227000000000000063,20.744889756988612817
0.228000000000000064,20.278742507173653564
0.229000000000000065,19.826134705351840637
0.230000000000000066,19.386603120050605042
0.231000000000000066,18.959679064804181081
0.232000000000000067,18.544890984123732380
0.233000000000000068,18.141766824821889514
0.234000000000000069,17.749836197357286238
0.235000000000000070,17.368632333726814920
0.236000000000000071,16.997693849855036063
0.237000000000000072,16.636566321470667162
0.238000000000000073,16.284803683174935429
0.239000000000000073,15.941969460847726481
0.240000000000000074,15.607637847748176085
0.241000000000000075,15.281394634691428891
0.242000000000000076,14.962838004556498817
0.243000000000000077,14.651579201134879327
0.244000000000000078,14.347243081993479308
0.245000000000000079,14.049468564622207722
0.246000000000000080,13.757908974687007131
0.247000000000000081,13.472232304729232055
0.248000000000000081,13.192121391157552779
0.249000000000000082,12.917274016879398246
0.250000000000000111,12.647402946424566750
0.251000000000000112,12.382235899932178214
0.252000000000000113,12.121515471906912254
0.253000000000000114,11.864999000208793944
0.254000000000000115,11.612458390321020119
0.255000000000000115,11.363679899548348118
0.256000000000000116,11.118463885431912885
0.257000000000000117,10.876624522327036360
0.258000000000000118,10.637989489777623930
0.259000000000000119,10.402399636032910735
0.260000000000000120,10.169708619788744741
0.261000000000000121,9.939782532995286246
0.262000000000000122,9.712499507353467010
0.263000000000000123,9.487749306923051407
0.264000000000000123,9.265432909083498814
0.265000000000000124,9.045462075923490275
0.266000000000000125,8.827758917984606768
0.267000000000000126,8.612255452147225654
0.268000000000000127,8.398893155321015769
0.269000000000000128,8.187622515487442243
0.270000000000000129,7.978402581535476656
0.271000000000000130,7.771200513233571527
0.272000000000000131,7.565991132589880763
0.273000000000000131,7.362756477767627317
0.274000000000000132,7.161485360642631193
0.275000000000000133,6.962172929014597500
0.276000000000000134,6.764820234412267652
0.277000000000000135,6.569433806364706641
0.278000000000000136,6.376025233945522785
0.279000000000000137,6.184610755334413845
0.280000000000000138,5.995210856080261941
0.281000000000000139,5.807849876691452806
0.282000000000000139,5.622555630123002857
0.283000000000000140,5.439359029675157942
0.284000000000000141,5.258293727765251724
0.285000000000000142,5.079395765982926747
0.286000000000000143,4.902703236788886088
0.287000000000000144,4.728255957168985724
0.288000000000000145,4.556095154508001954
0.289000000000000146,4.386263164902593381
0.290000000000000147,4.218803144088314028
0.291000000000000147,4.053758791113709847
0.292000000000000148,3.891174084853292747
0.293000000000000149,3.731093033412448357
0.294000000000000150,3.573559436439606607
0.295000000000000151,3.418616660325393131
0.296000000000000152,3.266307426234493327
0.297000000000000153,3.116673610883814227
0.298000000000000154,2.969756059950007909
0.299000000000000155,2.825594413961051821
0.300000000000000155,2.684226946499656652
0.301000000000000156,2.545690414521577072
0.302000000000000157,2.410019920568568175
0.303000000000000158,2.277248786634797906
0.304000000000000159,2.147408439425759763
0.305000000000000160,2.020528306731333323
0.306000000000000161,1.896635724618562779
0.307000000000000162,1.775755855135505268
0.308000000000000163,1.657911614205120232
0.309000000000000163,1.543123609377096583
0.310000000000000164,1.431410087096279371
0.311000000000000165,1.322786889138560351
0.312000000000000166,1.217267417858699741
0.313000000000000167,1.114862609889671452
0.314000000000000168,1.015580917929540528
0.315000000000000169,0.919428300249586328
0.316000000000000170,0.826408217556201641
0.317000000000000171,0.736521636839331806
0.318000000000000171,0.649767041841261550
0.319000000000000172,0.566140449781645905
0.320000000000000173,0.485635433977961217
0.321000000000000174,0.408243152004427567
0.322000000000000175,0.333952379037224245
0.323000000000000176,0.262749546039473314
0.324000000000000177,0.194618782445555694
0.325000000000000178,0.129541963011418071
0.326000000000000179,0.067498758504541165
0.327000000000000179,0.008466689915625113
0.328000000000000180,-0.047578814117926790
0.329000000000000181,-0.100664356977840971
0.330000000000000182,-0.150818511111933923
0.331000000000000183,-0.198071752744999829
0.332000000000000184,-0.242456394526464974
0.333000000000000185,-0.284006516378057738
0.334000000000000186,-0.322757894794718947
0.335000000000000187,-0.358747930841884943
0.336000000000000187,-0.392015577082262812
0.337000000000000188,-0.422601263654799997
0.338000000000000189,-0.450546823718691425
0.339000000000000190,-0.475895418464943820
0.340000000000000191,-0.498691461887860232
0.341000000000000192,-0.518980545499096890
0.342000000000000193,-0.536809363156728891
0.343000000000000194,-0.552225636172366530
0.344000000000000195,-0.565278038849309494
0.345000000000000195,-0.576016124595899681
0.346000000000000196,-0.584490252748428807
0.347000000000000197,-0.590751516229282791
0.348000000000000198,-0.594851670157128920
0.349000000000000199,-0.596843061517234874
0.350000000000000200,-0.596778559991900770
0.351000000000000201,-0.594711490042637125
0.352000000000000202,-0.590695564328077460
0.353000000000000203,-0.584784818533932382
0.354000000000000203,-0.577033547684040804
0.355000000000000204,-0.567496243994386917
0.356000000000000205,-0.556227536325370586
0.357000000000000206,-0.543282131281007330
0.358000000000000207,-0.528714755997368169
0.359000000000000208,-0.512580102656883918
0.360000000000000209,-0.494932774759201000
0.361000000000000210,-0.475827235173929552
0.362000000000000210,-0.455317755995466644
0.363000000000000211,-0.433458370215119071
0.364000000000000212,-0.410302825221205203
0.365000000000000213,-0.385904538133245434
0.366000000000000214,-0.360316552972358983
0.367000000000000215,-0.333591499665964908
0.368000000000000216,-0.305781554881308537
0.369000000000000217,-0.276938404678746364
0.370000000000000218,-0.247113208972704779
0.371000000000000218,-0.216356567784968423
0.372000000000000219,-0.184718489272431036
0.373000000000000220,-0.152248359508638437
0.374000000000000221,-0.118994913996235144
0.375000000000000222,-0.085006210885020653
0.376000000000000223,-0.050329605868569292
0.377000000000000224,-0.015011728730308382
0.378000000000000225,0.020901538491617400
0.379000000000000226,0.057365081752897985
0.380000000000000226,0.094334573698497737
0.381000000000000227,0.131766490839850953
0.382000000000000228,0.169618129249476807
0.383000000000000229,0.207847618809774148
0.384000000000000230,0.246413936053579974
0.385000000000000231,0.285276915634479322
0.386000000000000232,0.324397260465783321
0.387000000000000233,0.363736550567171801
0.388000000000000234,0.403257250658628608
0.389000000000000234,0.442922716541274852
0.390000000000000235,0.482697200305078233
0.391000000000000236,0.522545854403267729
0.392000000000000237,0.562434734633461608
0.393000000000000238,0.602330802065185411
0.394000000000000239,0.642201923953525933
0.395000000000000240,0.682016873678205182
0.396000000000000241,0.721745329747180642
0.397000000000000242,0.761357873903553251
0.398000000000000242,0.800825988373944475
0.399000000000000243,0.840122052296311872
0.400000000000000244,0.879219337364513853
0.401000000000000245,0.918092002726289325
0.402000000000000246,0.956715089170993238
0.403000000000000247,0.995064512642603205
0.404000000000000248,1.033117057112882486
0.405000000000000249,1.070850366848986823
0.406000000000000250,1.108242938109077258
0.407000000000000250,1.145274110298676096
0.408000000000000251,1.181924056619964025
0.409000000000000252,1.218173774245207230
0.410000000000000253,1.254005074044976631
0.411000000000000254,1.289400569900854387
0.412000000000000255,1.324343667631635579
0.413000000000000256,1.358818553561187192
0.414000000000000257,1.392810182755380044
0.415000000000000258,1.426304266954599997
0.416000000000000258,1.459287262227680460
0.417000000000000259,1.491746356372155358
0.418000000000000260,1.523669456085021690
0.419000000000000261,1.555045173927367186
0.420000000000000262,1.585862815105415047
0.421000000000000263,1.616112364089757447
0.422000000000000264,1.645784471093759693
0.423000000000000265,1.674870438431412811
0.424000000000000266,1.703362206773939791
0.425000000000000266,1.731252341324018174
0.426000000000000267,1.758534017925429627
0.427000000000000268,1.785201009125437777
0.428000000000000269,1.811247670206341809
0.429000000000000270,1.836668925201957903
0.430000000000000271,1.861460252914209690
0.431000000000000272,1.885617672944118750
0.432000000000000273,1.909137731750996325
0.433000000000000274,1.932017488752878931
0.434000000000000274,1.954254502480668121
0.435000000000000275,1.975846816797768302
0.436000000000000276,1.996792947196405432
0.437000000000000277,2.017091867181292297
0.438000000000000278,2.036742994750585289
0.439000000000000279,2.055746178983643535
0.440000000000000280,2.074101686744481476
0.441000000000000281,2.091810189509316853
0.442000000000000282,2.108872750325997636
0.443000000000000282,2.125290810912777495
0.444000000000000283,2.141066178903181072
0.445000000000000284,2.156201015243435215
0.446000000000000285,2.170697821748412970
0.447000000000000286,2.184559428821474913
0.448000000000000287,2.197788983343424096
0.449000000000000288,2.210389936735089211
0.450000000000000289,2.222366033197896051
0.451000000000000290,2.233721298136227773
0.452000000000000290,2.244460026765099148
0.453000000000000291,2.254586772906313819
0.454000000000000292,2.264106337975841932
0.455000000000000293,2.273023760164958773
0.456000000000000294,2.281344303817255614
0.457000000000000295,2.289073449003397265
0.458000000000000296,2.296216881295166434
0.459000000000000297,2.302780481740115182
0.460000000000000298,2.308770317037799114
0.461000000000000298,2.314192629918392807
0.462000000000000299,2.319053829724175397
0.463000000000000300,2.323360483194217174
0.464000000000000301,2.327119305452289844
0.465000000000000302,2.330337151197881429
0.466000000000000303,2.333021006099983641
0.467000000000000304,2.335177978393115694
0.468000000000000305,2.336815290674844281
0.469000000000000306,2.337940271903982570
0.470000000000000306,2.338560349598349131
0.471000000000000307,2.338683042230969900
0.472000000000000308,2.338315951823330963
0.473000000000000309,2.337466756734245532
0.474000000000000310,2.336143204642714633
0.475000000000000311,2.334353105723089516
0.476000000000000312,2.332104326010674189
0.477000000000000313,2.329404780955878884
0.478000000000000314,2.326262429164882128
0.479000000000000314,2.322685266324642228
0.480000000000000315,2.318681319310147426
0.481000000000000316,2.314258640471531958
0.482000000000000317,2.309425302098787380
0.483000000000000318,2.304189391061602254
0.484000000000000319,2.298559003621902797
0.485000000000000320,2.292542240416531207
0.486000000000000321,2.286147201607522383
0.487000000000000322,2.279381982197336232
0.488000000000000322,2.272254667506422354
0.489000000000000323,2.264773328810389064
0.490000000000000324,2.256946019134095760
0.491000000000000325,2.248780769199896223
0.492000000000000326,2.240285583527308333
0.493000000000000327,2.231468436681275147
0.494000000000000328,2.222337269666263548
0.495000000000000329,2.212899986463396473
0.496000000000000330,2.203164450707767674
0.497000000000000330,2.193138482503161679
0.498000000000000331,2.182829855371358985
0.499000000000000332,2.172246293333193634
0.500000000000000333,2.161395468118549879
0.501000000000000334,2.150284996502551671
0.502000000000000335,2.138922437765058859
0.503000000000000336,2.127315291270788222
0.504000000000000337,2.115470994167227392
0.505000000000000338,2.103396919197617621
0.506000000000000338,2.091100372626272907
0.507000000000000339,2.078588592273526992
0.508000000000000340,2.065868745657616135
0.509000000000000341,2.052947928240828279
0.510000000000000342,2.039833161777292680
0.511000000000000343,2.026531392759769457
0.512000000000000344,2.013049490962893096
0.513000000000000345,1.999394248080263115
0.514000000000000346,1.985572376452889198
0.515000000000000346,1.971590507886483490
0.516000000000000347,1.957455192555131784
0.517000000000000348,1.943172897988899805
0.518000000000000349,1.928750008142993577
0.519000000000000350,1.914192822546105788
0.520000000000000351,1.899507555525591140
0.521000000000000352,1.884700335507206059
0.522000000000000353,1.869777204387133906
0.523000000000000353,1.854744116974067270
0.524000000000000354,1.839606940499187049
0.525000000000000355,1.824371454191827002
0.526000000000000356,1.809043348918795591
0.527000000000000357,1.793628226885183308
0.528000000000000358,1.778131601394691286
0.529000000000000359,1.762558896667429931
0.530000000000000360,1.746915447713253799
0.531000000000000361,1.731206500258675174
0.532000000000000361,1.715437210725504258
0.533000000000000362,1.699612646259306192
0.534000000000000363,1.683737784805936943
0.535000000000000364,1.667817515234302217
0.536000000000000365,1.651856637503656078
0.537000000000000366,1.635859862873703108
0.538000000000000367,1.619831814155858751
0.539000000000000368,1.603777026004011841
0.540000000000000369,1.587699945243229438
0.541000000000000369,1.571604931234810820
0.542000000000000370,1.555496256276198697
0.543000000000000371,1.539378106034246851
0.544000000000000372,1.523254580010384496
0.545000000000000373,1.507129692036289992
0.546000000000000374,1.491007370798649756
0.547000000000000375,1.474891460391706932
0.548000000000000376,1.458785720896225602
0.549000000000000377,1.442693828983650839
0.550000000000000377,1.426619378544165873
0.551000000000000378,1.410565881337455085
0.552000000000000379,1.394536767665003119
0.553000000000000380,1.378535387062736817
0.554000000000000381,1.362565009012927542
0.555000000000000382,1.346628823674248299
0.556000000000000383,1.330729942628926299
0.557000000000000384,1.314871399645949568
0.558000000000000385,1.299056151459362596
0.559000000000000385,1.283287078560624073
0.560000000000000386,1.267566986004135199
0.561000000000000387,1.251898604224993550
0.562000000000000388,1.236284589868080541
0.563000000000000389,1.220727526627638948
0.564000000000000390,1.205229926096492266
0.565000000000000391,1.189794228624092787
0.566000000000000392,1.174422804182633673
0.567000000000000393,1.159117953240429655
0.568000000000000393,1.143881907641875140
0.569000000000000394,1.128716831493219885
0.570000000000000395,1.113624822053529639
0.571000000000000396,1.098607910630114315
0.572000000000000397,1.083668063477798871
0.573000000000000398,1.068807182701448921
0.574000000000000399,1.054027107161094046
0.575000000000000400,1.039329613379111006
0.576000000000000401,1.024716416448911316
0.577000000000000401,1.010189170944563175
0.578000000000000402,0.995749471830851385
0.579000000000000403,0.981398855373299406
0.580000000000000404,0.967138800047620428
0.581000000000000405,0.952970727448185118
0.582000000000000406,0.938896003195037521
0.583000000000000407,0.924915937839026703
0.584000000000000408,0.911031787764684742
0.585000000000000409,0.897244756090412543
0.586000000000000409,0.883555993565615649
0.587000000000000410,0.869966599464440327
0.588000000000000411,0.856477622475754763
0.589000000000000412,0.843090061589038875
0.590000000000000413,0.829804866975885735
0.591000000000000414,0.816622940866797875
0.592000000000000415,0.803545138423003458
0.593000000000000416,0.790572268603005890
0.594000000000000417,0.777705095023616955
0.595000000000000417,0.764944336815230441
0.596000000000000418,0.752290669471076590
0.597000000000000419,0.739744725690272720
0.598000000000000420,0.727307096214420579
0.599000000000000421,0.714978330657579653
0.600000000000000422,0.702758938329400840
0.601000000000000423,0.690649389051283480
0.602000000000000424,0.678650113965339585
0.603000000000000425,0.666761506336025933
0.604000000000000425,0.654983922344328673
0.605000000000000426,0.643317681874318481
0.606000000000000427,0.631763069291946477
0.607000000000000428,0.620320334216028169
0.608000000000000429,0.608989692281181827
0.609000000000000430,0.597771325892773597
0.610000000000000431,0.586665384973620641
0.611000000000000432,0.575671987702479626
0.612000000000000433,0.564791221244192787
0.613000000000000433,0.554023142471402830
0.614000000000000434,0.543367778677825264
0.615000000000000435,0.532825128282972460
0.616000000000000436,0.522395161528300456
0.617000000000000437,0.512077821164726110
0.618000000000000438,0.501873023131482965
0.619000000000000439,0.491780657226277174
0.620000000000000440,0.481800587766719246
