# TiO2-rut-100_METHANIMIDAMIDE-AC
# h[nm],U(h)[kJ/mol]
0.149999999999999994,50.747892288295865626
0.150999999999999995,48.794121529233478896
0.151999999999999996,48.010845969711745340
0.152999999999999997,47.461613016518064967
0.153999999999999998,46.815588103856967450
0.154999999999999999,46.019826971211344357
0.156000000000000000,45.125497362911175969
0.157000000000000001,44.203425668434633167
0.158000000000000002,43.309148385534456338
0.159000000000000002,42.473587108539618384
0.160000000000000003,41.705533277546024351
0.161000000000000004,40.998352484213704372
0.162000000000000005,40.337059514460968046
0.163000000000000006,39.704080816390117548
0.164000000000000007,39.083207257633254983
0.165000000000000008,38.461834351890836103
0.166000000000000009,37.831837179662159087
0.167000000000000010,37.189487974309507479
0.168000000000000010,36.534790204585178230
0.169000000000000011,35.870529383150184799
0.170000000000000012,35.201258575389701377
0.171000000000000013,34.532361329636884761
0.172000000000000014,33.869273145895682831
0.173000000000000015,33.216896201019018520
0.174000000000000016,32.579209758176638445
0.175000000000000017,31.959058232402838939
0.176000000000000018,31.358087657475106624
0.177000000000000018,30.776796824479163206
0.178000000000000019,30.214669503264399708
0.179000000000000020,29.670357193675670260
0.180000000000000021,29.141886472102147110
0.181000000000000022,28.626870252140712125
0.182000000000000023,28.122707519793369357
0.183000000000000024,27.626760925956745041
0.184000000000000025,27.136505794453263718
0.185000000000000026,26.649647534869721710
0.186000000000000026,26.164207127405063602
0.187000000000000027,25.678576320235997343
0.188000000000000028,25.191545530004990638
0.189000000000000029,24.702308259876417651
0.190000000000000030,24.210446247610551751
0.191000000000000031,23.715899624251303379
0.192000000000000032,23.218926189105509650
0.193000000000000033,22.720053563858009227
0.194000000000000034,22.220027540585107317
0.195000000000000034,21.719759435509402579
0.196000000000000035,21.220274741651053318
0.197000000000000036,20.722664868079476719
0.198000000000000037,20.228043281650126772
0.199000000000000038,19.737506942175890856
0.200000000000000039,19.252103551442747431
0.201000000000000040,18.772804823371377125
0.202000000000000041,18.300485726629865724
0.203000000000000042,17.835909449387120418
0.204000000000000042,17.379717684303010117
0.205000000000000043,16.932425724932176792
0.206000000000000044,16.494421796625154286
0.207000000000000045,16.065970009779480421
0.208000000000000046,15.647216315116434515
0.209000000000000047,15.238196854079296472
0.210000000000000048,14.838848127485238848
0.211000000000000049,14.449018447783780417
0.212000000000000050,14.068480190822288733
0.213000000000000050,13.696942418620162485
0.214000000000000051,13.334063502583507699
0.215000000000000052,12.979463434650057252
0.216000000000000053,12.632735570307135120
0.217000000000000054,12.293457600959991183
0.218000000000000055,11.961201602796943888
0.219000000000000056,11.635543054465642854
0.220000000000000057,11.316068756166528075
0.221000000000000058,11.002383618028968471
0.222000000000000058,10.694116315871248446
0.223000000000000059,10.390923837809069141
0.224000000000000060,10.092494965912367277
0.225000000000000061,9.798552753539890858
0.226000000000000062,9.508856071470900062
0.227000000000000063,9.223200304901158830
0.228000000000000064,8.941417289182979289
0.229000000000000065,8.663374575272410283
0.230000000000000066,8.388974116596815023
0.231000000000000066,8.118150467847277341
0.232000000000000067,7.850868583385585353
0.233000000000000068,7.587121298856710716
0.234000000000000069,7.326926574509547763
0.235000000000000070,7.070324572911623306
0.236000000000000071,6.817374637430363649
0.237000000000000072,6.568152231243182371
0.238000000000000073,6.322745889904595629
0.239000000000000073,6.081254233784951779
0.240000000000000074,5.843783080120440232
0.241000000000000075,5.610442688076795470
0.242000000000000076,5.381345164202858022
0.243000000000000077,5.156602049993568748
0.244000000000000078,4.936322108035755107
0.245000000000000079,4.720609318400697418
0.246000000000000080,4.509561092590582909
0.247000000000000081,4.303266708444519750
0.248000000000000081,4.101805965961458078
0.249000000000000082,3.905248060989765069
0.250000000000000111,3.713650671150083404
0.251000000000000112,3.527059246178895879
0.252000000000000113,3.345506493079605015
0.253000000000000114,3.169012045021312840
0.254000000000000115,2.997582301802588223
0.255000000000000115,2.831210428871857587
0.256000000000000116,2.669876501337476338
0.257000000000000117,2.513547779080973932
0.258000000000000118,2.362179098979236613
0.259000000000000119,2.215713370317866637
0.260000000000000120,2.074082159713862339
0.261000000000000121,1.937206352237485163
0.262000000000000122,1.804996875907417531
0.263000000000000123,1.677355477310597420
0.264000000000000123,1.554175536748535036
0.265000000000000124,1.435342912018934491
0.266000000000000125,1.320736800689091606
0.267000000000000126,1.210230611492253860
0.268000000000000127,1.103692836267261113
0.269000000000000128,1.000987914655029343
0.270000000000000129,0.901977084552937236
0.271000000000000130,0.806519212102180250
0.272000000000000131,0.714471595736969056
0.273000000000000131,0.625690739552147934
0.274000000000000132,0.540033091943095567
0.275000000000000133,0.457355746134831598
0.276000000000000134,0.377517099843351578
0.277000000000000135,0.300377471899593351
0.278000000000000136,0.225799674213172707
0.279000000000000137,0.153649537959188398
0.280000000000000138,0.083796393336200786
0.281000000000000139,0.016113502667387491
0.282000000000000139,-0.049521552999382615
0.283000000000000140,-0.113226533292385592
0.284000000000000141,-0.175114243111213763
0.285000000000000142,-0.235292281339827491
0.286000000000000143,-0.293862832366123317
0.287000000000000144,-0.350922498894666368
0.288000000000000145,-0.406562174368944540
0.289000000000000146,-0.460866953177839100
0.290000000000000147,-0.513916076707464753
0.291000000000000147,-0.565782913210599481
0.292000000000000148,-0.616534969400982846
0.293000000000000149,-0.666233931635716203
0.294000000000000150,-0.714935734524798194
0.295000000000000151,-0.762690654800165846
0.296000000000000152,-0.809543428285715572
0.297000000000000153,-0.855533387833165015
0.298000000000000154,-0.900694620124421141
0.299000000000000155,-0.945056139287894781
0.300000000000000155,-0.988642075332448300
0.301000000000000156,-1.031471875467058208
0.302000000000000157,-1.073560516445512203
0.303000000000000158,-1.114918726152209327
0.304000000000000159,-1.155553212726680545
0.305000000000000160,-1.195466899609169520
0.306000000000000161,-1.234659164977265133
0.307000000000000162,-1.273126084132765623
0.308000000000000163,-1.310860673488163597
0.309000000000000163,-1.347853134892720295
0.310000000000000164,-1.384091099128254898
0.311000000000000165,-1.419559867494072147
0.312000000000000166,-1.454242650488508648
0.313000000000000167,-1.488120802680635624
0.314000000000000168,-1.521174052949787026
0.315000000000000169,-1.553380729352096923
0.316000000000000170,-1.584717977952162737
0.317000000000000171,-1.615161975033770902
0.318000000000000171,-1.644688132176491235
0.319000000000000172,-1.673271293754541089
0.320000000000000173,-1.700885926480404819
0.321000000000000174,-1.727506300678595341
0.322000000000000175,-1.753106663034213142
0.323000000000000176,-1.777661400616803444
0.324000000000000177,-1.801145196032407636
0.325000000000000178,-1.823533173605548452
0.326000000000000179,-1.844801036538610273
0.327000000000000179,-1.864925195038004802
0.328000000000000180,-1.883882885435651300
0.329000000000000181,-1.901652280370014880
0.330000000000000182,-1.918212590123479000
0.331000000000000183,-1.933544155242772788
0.332000000000000184,-1.947628530595749252
0.333000000000000185,-1.960448561042101190
0.334000000000000186,-1.971988448916915271
0.335000000000000187,-1.982233813544984624
0.336000000000000187,-1.991171743020370144
0.337000000000000188,-1.998790838499898914
0.338000000000000189,-2.005081251271634724
0.339000000000000190,-2.010034712869393392
0.340000000000000191,-2.013644558512635019
0.341000000000000192,-2.015905744157742596
0.342000000000000193,-2.016814857451341148
0.343000000000000194,-2.016370122879901139
0.344000000000000195,-2.014571401411502372
0.345000000000000195,-2.011420184926584920
0.346000000000000196,-2.006919585733628608
0.347000000000000197,-2.001074321464182848
0.348000000000000198,-1.993890695638980359
0.349000000000000199,-1.985376574193152610
0.350000000000000200,-1.975541358244315315
0.351000000000000201,-1.964395953381981696
0.352000000000000202,-1.951952735751049106
0.353000000000000203,-1.938225515195703963
0.354000000000000203,-1.923229495723186133
0.355000000000000204,-1.906981233539492893
0.356000000000000205,-1.889498592901481588
0.357000000000000206,-1.870800700021775453
0.358000000000000207,-1.850907895254505275
0.359000000000000208,-1.829841683781651351
0.360000000000000209,-1.807624685010898791
0.361000000000000210,-1.784280580887299905
0.362000000000000210,-1.759834063312162744
0.363000000000000211,-1.734310780853736800
0.364000000000000212,-1.707737284925460841
0.365000000000000213,-1.680140975598622077
0.366000000000000214,-1.651550047207632987
0.367000000000000215,-1.621993433897385817
0.368000000000000216,-1.591500755253647537
0.369000000000000217,-1.560102262148996166
0.370000000000000218,-1.527828782928604578
0.371000000000000218,-1.494711670051978247
0.372000000000000219,-1.460782747298986495
0.373000000000000220,-1.426074257640694398
0.374000000000000221,-1.390618811868120641
0.375000000000000222,-1.354449338064617425
0.376000000000000223,-1.317599032000709158
0.377000000000000224,-1.280101308523239112
0.378000000000000225,-1.241989754004178215
0.379000000000000226,-1.203298079908080798
0.380000000000000226,-1.164060077531131387
0.381000000000000227,-1.124309573958743425
0.382000000000000228,-1.084080389283237800
0.383000000000000229,-1.043406295117650817
0.384000000000000230,-1.002320974436590850
0.385000000000000231,-0.960857982770336627
0.386000000000000232,-0.919050710773533175
0.387000000000000233,-0.876932348185618160
0.388000000000000234,-0.834535849195809698
0.389000000000000234,-0.791893899221668307
0.390000000000000235,-0.749038883106424414
0.391000000000000236,-0.706002854736858532
0.392000000000000237,-0.662817508080139062
0.393000000000000238,-0.619514149635074007
0.394000000000000239,-0.576123672290210442
0.395000000000000240,-0.532676530578671370
0.396000000000000241,-0.489202717317065161
0.397000000000000242,-0.445731741613451693
0.398000000000000242,-0.402292608227364845
0.399000000000000243,-0.358913798262777695
0.400000000000000244,-0.315623251173145547
0.401000000000000245,-0.272448348056148315
0.402000000000000246,-0.229415896214066606
0.403000000000000247,-0.186552114954507436
0.404000000000000248,-0.143882622605021271
0.405000000000000249,-0.101432424713975095
0.406000000000000250,-0.059225903409180922
0.407000000000000250,-0.017286807884950694
0.408000000000000251,0.024361754012521875
0.409000000000000252,0.065697323132052121
0.410000000000000253,0.106698095327841844
0.411000000000000254,0.147342926764855081
0.412000000000000255,0.187611338251090498
0.413000000000000256,0.227483518628823489
0.414000000000000257,0.266940327257087495
0.415000000000000258,0.305963295617649789
0.416000000000000258,0.344534628076833216
0.417000000000000259,0.382637201835373642
0.418000000000000260,0.420254566098428151
0.419000000000000261,0.457370940497650313
0.420000000000000262,0.493971212796962267
0.421000000000000263,0.530040935913434152
0.422000000000000264,0.565566324284239252
0.423000000000000265,0.600534249610431115
0.424000000000000266,0.634932236007632489
0.425000000000000266,0.668748454593541819
0.426000000000000267,0.701971717541442941
0.427000000000000268,0.734591471628545989
0.428000000000000269,0.766597791307361831
0.429000000000000270,0.797981371327743938
0.430000000000000271,0.828733518936743629
0.431000000000000272,0.858846145682676365
0.432000000000000273,0.888311758849295585
0.433000000000000274,0.917123452545271833
0.434000000000000274,0.945274898473586367
0.435000000000000275,0.972760336404721371
0.436000000000000276,0.999574564376934149
0.437000000000000277,1.025712928646229649
0.438000000000000278,1.051171313407937236
0.439000000000000279,1.075946130311153937
0.440000000000000280,1.100034307786661447
0.441000000000000281,1.123433280208227636
0.442000000000000282,1.146140976906508291
0.443000000000000282,1.168155811054200743
0.444000000000000283,1.189476668440285767
0.445000000000000284,1.210102896150673235
0.446000000000000285,1.230034291171887562
0.447000000000000286,1.249271088933669782
0.448000000000000287,1.267813951805943251
0.449000000000000288,1.285663957564753046
0.450000000000000289,1.302822587841335533
0.451000000000000290,1.319291716567761119
0.452000000000000290,1.335073598432045205
0.453000000000000291,1.350170857355026177
0.454000000000000292,1.364586475000718391
0.455000000000000293,1.378323779331312560
0.456000000000000294,1.391386433217407737
0.457000000000000295,1.403778423113557050
0.458000000000000296,1.415504047808641586
0.459000000000000297,1.426567907260114954
0.460000000000000298,1.436974891520621300
0.461000000000000298,1.446730169765017893
0.462000000000000299,1.455839179425354013
0.463000000000000300,1.464307615440909593
0.464000000000000301,1.472141419629906967
0.465000000000000302,1.479346770189107874
0.466000000000000303,1.485930071327087543
0.467000000000000304,1.491897943036545104
0.468000000000000305,1.497257211010584177
0.469000000000000306,1.502014896707619007
0.470000000000000306,1.506178207569039973
0.471000000000000307,1.509754527393543988
0.472000000000000308,1.512751406871616577
0.473000000000000309,1.515176554283325761
0.474000000000000310,1.517037826362288122
0.475000000000000311,1.518343219328347038
0.476000000000000312,1.519100860091169958
0.477000000000000313,1.519318997626766699
0.478000000000000314,1.519005994528560333
0.479000000000000314,1.518170318734438640
0.480000000000000315,1.516820535430946970
0.481000000000000316,1.514965299135532018
0.482000000000000317,1.512613345957524835
0.483000000000000318,1.509773486038310963
0.484000000000000319,1.506454596170970328
0.485000000000000320,1.502665612599392464
0.486000000000000321,1.498415523996759369
0.487000000000000322,1.493713364623053597
0.488000000000000322,1.488568207661096876
0.489000000000000323,1.482989158730453116
0.490000000000000324,1.476985349578381790
0.491000000000000325,1.470565931946864469
0.492000000000000326,1.463740071614608507
0.493000000000000327,1.456516942612793297
0.494000000000000328,1.448905721613168884
0.495000000000000329,1.440915582487081625
0.496000000000000330,1.432555691033777556
0.497000000000000330,1.423835199876349877
0.498000000000000331,1.414763243523505576
0.499000000000000332,1.405348933595316430
0.500000000000000333,1.395601354210949108
0.501000000000000334,1.385529557536398393
0.502000000000000335,1.375142559490070360
0.503000000000000336,1.364449335604090097
0.504000000000000337,1.353458817039075779
0.505000000000000338,1.342179886750115791
0.506000000000000338,1.330621375801606998
0.507000000000000339,1.318792059828594265
0.508000000000000340,1.306700655642173192
0.509000000000000341,1.294355817976539980
0.510000000000000342,1.281766136375167564
0.511000000000000343,1.268940132213634886
0.512000000000000344,1.255886255856554445
0.513000000000000345,1.242612883946066837
0.514000000000000346,1.229128316819318112
0.515000000000000346,1.215440776052356453
0.516000000000000347,1.201558402127854253
0.517000000000000348,1.187489252224064762
0.518000000000000349,1.173241298122405629
0.519000000000000350,1.158822424231106263
0.520000000000000351,1.144240425722272247
0.521000000000000352,1.129503006779837282
0.522000000000000353,1.114617778955770744
0.523000000000000353,1.099592259631994029
0.524000000000000354,1.084433870585460369
0.525000000000000355,1.069149936653800648
0.526000000000000356,1.053747684499068971
0.527000000000000357,1.038234241467027807
0.528000000000000358,1.022616634539492475
0.529000000000000359,1.006901789377276035
0.530000000000000360,0.991096529451264141
0.531000000000000361,0.975207575259205539
0.532000000000000361,0.959241543625811710
0.533000000000000362,0.943204947083779666
0.534000000000000363,0.927104193333419646
0.535000000000000364,0.910945584778527051
0.536000000000000365,0.894735318136237523
0.537000000000000366,0.878479484118595666
0.538000000000000367,0.862184067183593528
0.539000000000000368,0.845854945353506915
0.540000000000000369,0.829497890098330748
0.541000000000000369,0.813118566282214239
0.542000000000000370,0.796722532170760056
0.543000000000000371,0.780315239497152313
0.544000000000000372,0.763902033585055040
0.545000000000000373,0.747488153526308929
0.546000000000000374,0.731078732411432952
0.547000000000000375,0.714678797611028815
0.548000000000000376,0.698293271106183111
0.549000000000000377,0.681926969866014421
0.550000000000000377,0.665584606270537282
0.551000000000000378,0.649270788577055113
0.552000000000000379,0.632990021428358363
0.553000000000000380,0.616746706400963407
0.554000000000000381,0.600545142591757841
0.555000000000000382,0.584389527241393147
0.556000000000000383,0.568283956392797718
0.557000000000000384,0.552232425583273678
0.558000000000000385,0.536238830568604774
0.559000000000000385,0.520306968077685061
0.560000000000000386,0.504440536596218014
0.561000000000000387,0.488643137178013720
0.562000000000000388,0.472918274282522755
0.563000000000000389,0.457269356637206470
0.564000000000000390,0.441699698123445839
0.565000000000000391,0.426212518684656483
0.566000000000000392,0.410810945255367599
0.567000000000000393,0.395498012710021718
0.568000000000000393,0.380276664830296485
0.569000000000000394,0.365149755289761235
0.570000000000000395,0.350120048654778304
0.571000000000000396,0.335190221400478827
0.572000000000000397,0.320362862940780702
0.573000000000000398,0.305640476671394101
0.574000000000000399,0.291025481024788535
0.575000000000000400,0.276520210536134958
0.576000000000000401,0.262126916919284025
0.577000000000000401,0.247847770151826963
0.578000000000000402,0.233684859568340564
0.579000000000000403,0.219640194960969926
0.580000000000000404,0.205715707686462995
0.581000000000000405,0.191913251778864702
0.582000000000000406,0.178234605067067065
0.583000000000000407,0.164681470296436122
0.584000000000000408,0.151255476253803256
0.585000000000000409,0.137958178895073169
0.586000000000000409,0.124791062474756270
0.587000000000000410,0.111755540676781354
0.588000000000000411,0.098852957745913947
0.589000000000000412,0.086084589619166860
0.590000000000000413,0.073451645056606757
0.591000000000000414,0.060955266770967478
0.592000000000000415,0.048596532555524700
0.593000000000000416,0.036376456409679334
0.594000000000000417,0.024295989661739799
0.595000000000000417,0.012356022088430119
0.596000000000000418,0.000557383030590602
0.597000000000000419,-0.011099157495312650
0.598000000000000420,-0.022612887690375571
0.599000000000000421,-0.033983152871509069
0.600000000000000422,-0.045209354375200080
0.601000000000000423,-0.056290948467126525
0.602000000000000424,-0.067227445258028498
0.603000000000000425,-0.078018407626172362
0.604000000000000425,-0.088663450146728232
0.605000000000000426,-0.099162238028402211
0.606000000000000427,-0.109514486057621513
0.607000000000000428,-0.119719957550538283
0.608000000000000429,-0.129778463313176939
0.609000000000000430,-0.139689860609910566
0.610000000000000431,-0.149454052140587434
0.611000000000000432,-0.159070985026488948
0.612000000000000433,-0.168540649805350495
0.613000000000000433,-0.177863079435674531
0.614000000000000434,-0.187038348310485963
0.615000000000000435,-0.196066571280753138
0.616000000000000436,-0.204947902688621481
0.617000000000000437,-0.213682535410625235
0.618000000000000438,-0.222270699911017694
