# Ag100_DGL-AC
# h[nm],U(h)[kJ/mol]
0.149999999999999994,156.171976109498302776
0.150999999999999995,151.262927087058585585
0.151999999999999996,147.083597742995209501
0.152999999999999997,143.093703844903643585
0.153999999999999998,139.135038450310133840
0.154999999999999999,135.202788766088218608
0.156000000000000000,131.334671687139518781
0.157000000000000001,127.564319555624365421
0.158000000000000002,123.907349259995953616
0.159000000000000002,120.362222229321986333
0.160000000000000003,116.916302514220177500
0.161000000000000004,113.552403589100777026
0.162000000000000005,110.253867640865792055
0.163000000000000006,107.007677688700709950
0.164000000000000007,103.805795385909320316
0.165000000000000008,100.645179496819253018
0.166000000000000009,97.526975957310568788
0.167000000000000010,94.455301017056200408
0.168000000000000010,91.435932620321651143
0.169000000000000011,88.475117952727600823
0.170000000000000012,85.578613687299309731
0.171000000000000013,82.751005594027446932
0.172000000000000014,79.995305640102046141
0.173000000000000015,77.312794537085906654
0.174000000000000016,74.703061948590317343
0.175000000000000017,72.164191325938148225
0.176000000000000018,69.693038140523810853
0.177000000000000018,67.285556342908918737
0.178000000000000019,64.937136090171065916
0.179000000000000020,62.642924643713044475
0.180000000000000021,60.398110854943411141
0.181000000000000022,58.198161227935329975
0.182000000000000023,56.039001873519495689
0.183000000000000024,53.917145653705347286
0.184000000000000025,51.829767502354158637
0.185000000000000026,49.774733425009607402
0.186000000000000026,47.750590198882392201
0.187000000000000027,45.756523499870077387
0.188000000000000028,43.792292260466936682
0.189000000000000029,41.858146678695717924
0.190000000000000030,39.954736600489169973
0.191000000000000031,38.083016108863077420
0.192000000000000032,36.244149171149764754
0.193000000000000033,34.439420196227956694
0.194000000000000034,32.670152392637625383
0.195000000000000034,30.937635933944079625
0.196000000000000035,29.243067153684439319
0.197000000000000036,27.587499321237430649
0.198000000000000037,25.971804995769105062
0.199000000000000038,24.396649515294654975
0.200000000000000039,22.862474844583040579
0.201000000000000040,21.369492768892087042
0.202000000000000041,19.917686268460588650
0.203000000000000042,18.506817828722297747
0.204000000000000042,17.136443420813638028
0.205000000000000043,15.805930914181891112
0.206000000000000044,14.514481746942909268
0.207000000000000045,13.261154770228818833
0.208000000000000046,12.044891291493915020
0.209000000000000047,10.864540461283876738
0.210000000000000048,9.718884272239147748
0.211000000000000049,8.606661563191837061
0.212000000000000050,7.526590541285576030
0.213000000000000050,6.477389448225889801
0.214000000000000051,5.457795100997778093
0.215000000000000052,4.466579131334929897
0.216000000000000053,3.502561831143348847
0.217000000000000054,2.564623582708758676
0.218000000000000055,1.651713912974890563
0.219000000000000056,0.762858260887963824
0.220000000000000057,-0.102837413608401998
0.221000000000000058,-0.946184020073377541
0.222000000000000058,-1.767908546888117716
0.223000000000000059,-2.568654894391288135
0.224000000000000060,-3.348986129057604622
0.225000000000000061,-4.109387953787683401
0.226000000000000062,-4.850273191932518380
0.227000000000000063,-5.571987089097524048
0.228000000000000064,-6.274813246273181377
0.229000000000000065,-6.958980009713269688
0.230000000000000066,-7.624667156583138095
0.231000000000000066,-8.272012730173321060
0.232000000000000067,-8.901119893923176818
0.233000000000000068,-9.512063689212356010
0.234000000000000069,-10.104897597501517836
0.235000000000000070,-10.679659822651412782
0.236000000000000071,-11.236379223889375822
0.237000000000000072,-11.775080843746852821
0.238000000000000073,-12.295790988224982954
0.239000000000000073,-12.798541828363967809
0.240000000000000074,-13.283375503241183324
0.241000000000000075,-13.750347714167592272
0.242000000000000076,-14.199530808492554002
0.243000000000000077,-14.631016358979241687
0.244000000000000078,-15.044917251208641318
0.245000000000000079,-15.441369296956732882
0.246000000000000080,-15.820532396023484267
0.247000000000000081,-16.182591272637534274
0.248000000000000081,-16.527755815384420401
0.249000000000000082,-16.856261051680707652
0.250000000000000111,-17.168366789215156132
0.251000000000000112,-17.464356957570139173
0.252000000000000113,-17.744538683497175668
0.253000000000000114,-18.009241133111363098
0.254000000000000115,-18.258814153663625035
0.255000000000000115,-18.493626746601194100
0.256000000000000116,-18.714065402397753957
0.257000000000000117,-18.920532326176729754
0.258000000000000118,-19.113443581511532443
0.259000000000000119,-19.293227178012063661
0.260000000000000120,-19.460321126435633943
0.261000000000000121,-19.615171483126882634
0.262000000000000122,-19.758230403630058447
0.263000000000000123,-19.889954223350795104
0.264000000000000123,-20.010801581201967281
0.265000000000000124,-20.121231600263886463
0.266000000000000125,-20.221702137645142017
0.267000000000000126,-20.312668113956021898
0.268000000000000127,-20.394579931116016525
0.269000000000000128,-20.467881985617026430
0.270000000000000129,-20.533011282861671987
0.271000000000000130,-20.590396156796245464
0.272000000000000131,-20.640455097762249181
0.273000000000000131,-20.683595690300478509
0.274000000000000132,-20.720213661557504992
0.275000000000000133,-20.750692039964619084
0.276000000000000134,-20.775400422980560222
0.277000000000000135,-20.794694351910550267
0.278000000000000136,-20.808914791129623723
0.279000000000000137,-20.818387708444891615
0.280000000000000138,-20.823423752823970290
0.281000000000000139,-20.824318025291052692
0.282000000000000139,-20.821349938441834126
0.283000000000000140,-20.814783159749776331
0.284000000000000141,-20.804865633622199539
0.285000000000000142,-20.791829677011893551
0.286000000000000143,-20.775892143291414982
0.287000000000000144,-20.757254649048920925
0.288000000000000145,-20.736103858461468974
0.289000000000000146,-20.712611819938238966
0.290000000000000147,-20.686936349799303514
0.291000000000000147,-20.659221457858940596
0.292000000000000148,-20.629597809914510975
0.293000000000000149,-20.598183222295865846
0.294000000000000150,-20.565083183804656386
0.295000000000000151,-20.530391400564376170
0.296000000000000152,-20.494190359504724341
0.297000000000000153,-20.456551906419672804
0.298000000000000154,-20.417537834759549753
0.299000000000000155,-20.377200481545866495
0.300000000000000155,-20.335583327028118106
0.301000000000000156,-20.292721594933453844
0.302000000000000157,-20.248642850392279513
0.303000000000000158,-20.203367592851797951
0.304000000000000159,-20.156909841516053916
0.305000000000000160,-20.109277711072035544
0.306000000000000161,-20.060473975677851399
0.307000000000000162,-20.010496619398107754
0.308000000000000163,-19.959339371473863167
0.309000000000000163,-19.906992225008956154
0.310000000000000164,-19.853441937840745624
0.311000000000000165,-19.798672514540410106
0.312000000000000166,-19.742665668656876221
0.313000000000000167,-19.685401264477331296
0.314000000000000168,-19.626857737727743114
0.315000000000000169,-19.567012494777365816
0.316000000000000170,-19.505842290043226228
0.317000000000000171,-19.443323581412364831
0.318000000000000171,-19.379432863613747173
0.319000000000000172,-19.314146979575859575
0.320000000000000173,-19.247443409902281530
0.321000000000000174,-19.179300540684891985
0.322000000000000175,-19.109697909954107331
0.323000000000000176,-19.038616433137185879
0.324000000000000177,-18.966038607959848861
0.325000000000000178,-18.891948699283499735
0.326000000000000179,-18.816332904420985273
0.327000000000000179,-18.739179499516914973
0.328000000000000180,-18.660478967616914048
0.329000000000000181,-18.580224109081793671
0.330000000000000182,-18.498410135028841239
0.331000000000000183,-18.415034744504257702
0.332000000000000184,-18.330098186106869917
0.333000000000000185,-18.243603304795847464
0.334000000000000186,-18.155555574622809445
0.335000000000000187,-18.065963118133264942
0.336000000000000187,-17.974836713183073300
0.337000000000000188,-17.882189787912938783
0.338000000000000189,-17.788038404619069155
0.339000000000000190,-17.692401233249832160
0.340000000000000191,-17.595299515247830868
0.341000000000000192,-17.496757018444942133
0.342000000000000193,-17.396799983702550207
0.343000000000000194,-17.295457063974161827
0.344000000000000195,-17.192759256449065219
0.345000000000000195,-17.088739828417942590
0.346000000000000196,-16.983434237480480533
0.347000000000000197,-16.876880046694967774
0.348000000000000198,-16.769116835248013331
0.349000000000000199,-16.660186105200253337
0.350000000000000200,-16.550131184841781362
0.351000000000000201,-16.438997129167582045
0.352000000000000202,-16.326830617960450098
0.353000000000000203,-16.213679851945634880
0.354000000000000203,-16.099594447458020596
0.355000000000000204,-15.984625330039685664
0.356000000000000205,-15.868824627362718260
0.357000000000000206,-15.752245561849477440
0.358000000000000207,-15.634942343339815807
0.359000000000000208,-15.516970062133257358
0.360000000000000209,-15.398384582712171920
0.361000000000000210,-15.279242438431003492
0.362000000000000210,-15.159600727436052026
0.363000000000000211,-15.039517010060183821
0.364000000000000212,-14.919049207917691291
0.365000000000000213,-14.798255504905219126
0.366000000000000214,-14.677194250296954792
0.367000000000000215,-14.555923864104352461
0.368000000000000216,-14.434502744854153633
0.369000000000000217,-14.312989179921729033
0.370000000000000218,-14.191441258541766857
0.371000000000000218,-14.069916787603052200
0.372000000000000219,-13.948473210320054605
0.373000000000000220,-13.827167527860485308
0.374000000000000221,-13.706056223995181753
0.375000000000000222,-13.585195192824269128
0.376000000000000223,-13.464639669622325613
0.377000000000000224,-13.344444164834015965
0.378000000000000225,-13.224662401241712217
0.379000000000000226,-13.105347254316615846
0.380000000000000226,-12.986550695756189810
0.381000000000000227,-12.868323740201883965
0.382000000000000228,-12.750716395123443903
0.383000000000000229,-12.633777613848776511
0.384000000000000230,-12.517555251711169007
0.385000000000000231,-12.402096025279904623
0.386000000000000232,-12.287445474633972964
0.387000000000000233,-12.173647928633618776
0.388000000000000234,-12.060746473139344559
0.389000000000000234,-11.948782922123850625
0.390000000000000235,-11.837797791618045906
0.391000000000000236,-11.727830276429022760
0.392000000000000237,-11.618918229564380695
0.393000000000000238,-11.511098144294738432
0.394000000000000239,-11.404405138783484830
0.395000000000000240,-11.298872943210975350
0.396000000000000241,-11.194533889318341480
0.397000000000000242,-11.091418902294590154
0.398000000000000242,-10.989557494929583115
0.399000000000000243,-10.888977763954235556
0.400000000000000244,-10.789706388488724542
0.401000000000000245,-10.691768630519064232
0.402000000000000246,-10.595188337321994609
0.403000000000000247,-10.499987945757990104
0.404000000000000248,-10.406188488352698940
0.405000000000000249,-10.313809601086990853
0.406000000000000250,-10.222869532816572402
0.407000000000000250,-10.133385156242619374
0.408000000000000251,-10.045371980355655595
0.409000000000000252,-9.958844164275957311
0.410000000000000253,-9.873814532414513678
0.411000000000000254,-9.790294590880016301
0.412000000000000255,-9.708294545058317127
0.413000000000000256,-9.627823318292350052
0.414000000000000257,-9.548888571591678698
0.415000000000000258,-9.471496724302520320
0.416000000000000258,-9.395652975670511609
0.417000000000000259,-9.321361327230096805
0.418000000000000260,-9.248624605956109690
0.419000000000000261,-9.177444488114693044
0.420000000000000262,-9.107821523752592796
0.421000000000000263,-9.039755161765475222
0.422000000000000264,-8.973243775487643958
0.423000000000000265,-8.908284688747489355
0.424000000000000266,-8.844874202334747082
0.425000000000000266,-8.783007620827278927
0.426000000000000267,-8.722679279727120871
0.427000000000000268,-8.663882572857300346
0.428000000000000269,-8.606609979972557056
0.429000000000000270,-8.550853094539188959
0.430000000000000271,-8.496602651640710491
0.431000000000000272,-8.443848555968090253
0.432000000000000273,-8.392579909854731568
0.433000000000000274,-8.342785041318471428
0.434000000000000274,-8.294451532074239353
0.435000000000000275,-8.247566245482914837
0.436000000000000276,-8.202115354403474612
0.437000000000000277,-8.158084368917144502
0.438000000000000278,-8.115458163893933374
0.439000000000000279,-8.074221006373399234
0.440000000000000280,-8.034356582733085617
0.441000000000000281,-7.995848025619475052
0.442000000000000282,-7.958677940617981506
0.443000000000000282,-7.922828432639524188
0.444000000000000283,-7.888281132003129414
0.445000000000000284,-7.855017220194872252
0.446000000000000285,-7.823017455285056876
0.447000000000000286,-7.792262196986842859
0.448000000000000287,-7.762731431340458066
0.449000000000000288,-7.734404795008745559
0.450000000000000289,-7.707261599170607269
0.451000000000000290,-7.681280853000219899
0.452000000000000290,-7.656441286720929718
0.453000000000000291,-7.632721374223760513
0.454000000000000292,-7.610099355241530361
0.455000000000000293,-7.588553257070486779
0.456000000000000294,-7.568060915832317548
0.457000000000000295,-7.548599997270370565
0.458000000000000296,-7.530148017074635547
0.459000000000000297,-7.512682360731034237
0.460000000000000298,-7.496180302891223057
0.461000000000000298,-7.480619026259939908
0.462000000000000299,-7.465975639997678215
0.463000000000000300,-7.452227197637069978
0.464000000000000301,-7.439350714512156237
0.465000000000000302,-7.427323184700202141
0.466000000000000303,-7.416121597476492688
0.467000000000000304,-7.405722953282898757
0.468000000000000305,-7.396104279211771271
0.469000000000000306,-7.387242644007076642
0.470000000000000306,-7.379115172585231974
0.471000000000000307,-7.371699060078521271
0.472000000000000308,-7.364971585404497034
0.473000000000000309,-7.358910124365078964
0.474000000000000310,-7.353492162279398947
0.475000000000000311,-7.348695306155100582
0.476000000000000312,-7.344497296402626496
0.477000000000000313,-7.340876018097898914
0.478000000000000314,-7.337809511798605300
0.479000000000000314,-7.335275983919987475
0.480000000000000315,-7.333253816675846970
0.481000000000000316,-7.331721577591198802
0.482000000000000317,-7.330658028592774045
0.483000000000000318,-7.330042134683997013
0.484000000000000319,-7.329853072211273357
0.485000000000000320,-7.330070236728400523
0.486000000000000321,-7.330673250466252178
0.487000000000000322,-7.331641969414836701
0.488000000000000322,-7.332956490025102525
0.489000000000000323,-7.334597155537845303
0.490000000000000324,-7.336544561947251353
0.491000000000000325,-7.338779563606554923
0.492000000000000326,-7.341283278483497376
0.493000000000000327,-7.344037093073231048
0.494000000000000328,-7.347022666976315008
0.495000000000000329,-7.350221937149643558
0.496000000000000330,-7.353617121837890735
0.497000000000000330,-7.357190724193412912
0.498000000000000331,-7.360925535592119040
0.499000000000000332,-7.364804638653254187
0.500000000000000333,-7.368811409970689397
0.501000000000000334,-7.372929522563394400
0.502000000000000335,-7.377142948052814120
0.503000000000000336,-7.381435958574650513
0.504000000000000337,-7.385793128432730725
0.505000000000000338,-7.390199335502305011
0.506000000000000338,-7.394639762390342597
0.507000000000000339,-7.399099897360133404
0.508000000000000340,-7.403565535027493816
0.509000000000000341,-7.408022776835831102
0.510000000000000342,-7.412458031317146201
0.511000000000000343,-7.416858014146114897
0.512000000000000344,-7.421209747994143235
0.513000000000000345,-7.425500562190268106
0.514000000000000346,-7.429718092195808588
0.515000000000000346,-7.433850278899254427
0.516000000000000347,-7.437885367738104492
0.517000000000000348,-7.441811907654161118
0.518000000000000349,-7.445618749888515353
0.519000000000000350,-7.449295046622606442
0.520000000000000351,-7.452830249471486646
0.521000000000000352,-7.456214107835341665
0.522000000000000353,-7.459436667115139308
0.523000000000000353,-7.462488266798326109
0.524000000000000354,-7.465359538420237584
0.525000000000000355,-7.468041403406816769
0.526000000000000356,-7.470525070804102441
0.527000000000000357,-7.472802034899892476
0.528000000000000358,-7.474864072742860799
0.529000000000000359,-7.476703241564129243
0.530000000000000360,-7.478311876106500833
0.531000000000000361,-7.479682585866099132
0.532000000000000361,-7.480808252251326174
0.533000000000000362,-7.481682025663697111
0.534000000000000363,-7.482297322505246484
0.535000000000000364,-7.482647822116836878
0.536000000000000365,-7.482727463651765554
0.537000000000000366,-7.482530442888898570
0.538000000000000367,-7.482051208989394020
0.539000000000000368,-7.481284461201093805
0.540000000000000369,-7.480225145514398655
0.541000000000000369,-7.478868451273493534
0.542000000000000370,-7.477209807746481474
0.543000000000000371,-7.475244880658168611
0.544000000000000372,-7.472969568688806241
0.545000000000000373,-7.470379999942251104
0.546000000000000374,-7.467472528386790209
0.547000000000000375,-7.464243730271742372
0.548000000000000376,-7.460690400523013466
0.549000000000000377,-7.456809549120437808
0.550000000000000377,-7.452598397459868629
0.551000000000000378,-7.448054374702762104
0.552000000000000379,-7.443175114115950564
0.553000000000000380,-7.437958449404183270
0.554000000000000381,-7.432402411037907441
0.555000000000000382,-7.426505222578836829
0.556000000000000383,-7.420265297005402161
0.557000000000000384,-7.413681233040586349
0.558000000000000385,-7.406751811484089565
0.559000000000000385,-7.399475991551048182
0.560000000000000386,-7.391852907219198521
0.561000000000000387,-7.383881863586513994
0.562000000000000388,-7.375562333241019175
0.563000000000000389,-7.366893952644699262
0.564000000000000390,-7.357876518533075227
0.565000000000000391,-7.348509984332132206
0.566000000000000392,-7.338794456594134985
0.567000000000000393,-7.328730191453828979
0.568000000000000393,-7.318317591106374032
0.569000000000000394,-7.307557200308468559
0.570000000000000395,-7.296449702903890611
0.571000000000000396,-7.284995918374626456
0.572000000000000397,-7.273196798418870124
0.573000000000000398,-7.261053423556909081
0.574000000000000399,-7.248566999765958307
0.575000000000000400,-7.235738855144956183
0.576000000000000401,-7.222570436610214806
0.577000000000000401,-7.209063306622867984
0.578000000000000402,-7.195219139948886955
0.579000000000000403,-7.181039720452460529
0.580000000000000404,-7.166526937923509699
0.581000000000000405,-7.151682784939952242
0.582000000000000406,-7.136509353765413621
0.583000000000000407,-7.121008833282907347
0.584000000000000408,-7.105183505965159796
0.585000000000000409,-7.089035744881902801
0.586000000000000409,-7.072568010744758382
0.587000000000000410,-7.055782848990084233
0.588000000000000411,-7.038682886900114788
0.589000000000000412,-7.021270830762868620
0.590000000000000413,-7.003549463070983805
0.591000000000000414,-6.985521639759900481
0.592000000000000415,-6.967190287485570011
0.593000000000000416,-6.948558400941868385
0.594000000000000417,-6.929629040217976765
0.595000000000000417,-6.910405328195837527
0.596000000000000418,-6.890890447987780831
0.597000000000000419,-6.871087640414502928
0.598000000000000420,-6.851000201523318012
0.599000000000000421,-6.830631480146919898
0.600000000000000422,-6.809984875502465229
0.601000000000000423,-6.789063834831108757
0.602000000000000424,-6.767871851077916112
0.603000000000000425,-6.746412460612096318
0.604000000000000425,-6.724689240987456351
0.605000000000000426,-6.702705808743020910
0.606000000000000427,-6.680465817243719684
0.607000000000000428,-6.657972954560870349
0.608000000000000429,-6.635230941392526560
0.609000000000000430,-6.612243529023298372
