# Ag100_HMA
# h[nm],U(h)[kJ/mol]
0.149999999999999994,152.512082513433227859
0.150999999999999995,149.217813878211870815
0.151999999999999996,144.693957008496198569
0.152999999999999997,139.995346364133325778
0.153999999999999998,135.538659141114465001
0.154999999999999999,131.417363206409959275
0.156000000000000000,127.583586385791363682
0.157000000000000001,123.946687353301371104
0.158000000000000002,120.421404077812013611
0.159000000000000002,116.946863907978837460
0.160000000000000003,113.489891773850985146
0.161000000000000004,110.040821269477390842
0.162000000000000005,106.606590768025171201
0.163000000000000006,103.203720458687982386
0.164000000000000007,99.852412951620664217
0.165000000000000008,96.572218469692899134
0.166000000000000009,93.379261410552885536
0.167000000000000010,90.284805875493120197
0.168000000000000010,87.294854834710349678
0.169000000000000011,84.410472505897971018
0.170000000000000012,81.628554764537085475
0.171000000000000013,78.942824705768131821
0.172000000000000014,76.344886075970066486
0.173000000000000015,73.825218648181405001
0.174000000000000016,71.374043151691552112
0.175000000000000017,68.982017930021157781
0.176000000000000018,66.640755341234026332
0.177000000000000018,64.343164011168056504
0.178000000000000019,62.083634695761396927
0.179000000000000020,59.858094050809896203
0.180000000000000021,57.663953305184591613
0.181000000000000022,55.499978784871458970
0.182000000000000023,53.366109350735051464
0.183000000000000024,51.263242816102092547
0.184000000000000025,49.193009853090813976
0.185000000000000026,47.157550182414937012
0.186000000000000026,45.159302250083086960
0.187000000000000027,43.200814307044787199
0.188000000000000028,41.284581928933647532
0.189000000000000029,39.412914589994294090
0.190000000000000030,37.587831944398253370
0.191000000000000031,35.810988947847313568
0.192000000000000032,34.083627833316306521
0.193000000000000033,32.406554187792004029
0.194000000000000034,30.780133908606728710
0.195000000000000034,29.204307595086866911
0.196000000000000035,27.678618903148510810
0.197000000000000036,26.202253511048333223
0.198000000000000037,24.774085573055597109
0.199000000000000038,23.392728839483375225
0.200000000000000039,22.056589967230387117
0.201000000000000040,20.763921911165653000
0.202000000000000041,19.512875654792757985
0.203000000000000042,18.301548894592183814
0.204000000000000042,17.128030626053107000
0.205000000000000043,15.990440883753359813
0.206000000000000044,14.886965158697289979
0.207000000000000045,13.815883251442576451
0.208000000000000046,12.775592518999847158
0.209000000000000047,11.764625638043964884
0.210000000000000048,10.781663138542825209
0.211000000000000049,9.825541063056238755
0.212000000000000050,8.895254180652099052
0.213000000000000050,7.989955233820909442
0.214000000000000051,7.108950725182866748
0.215000000000000052,6.251693761364618851
0.216000000000000053,5.417774467218584356
0.217000000000000054,4.606908467403481922
0.218000000000000055,3.818923906837729643
0.219000000000000056,3.053747449005169923
0.220000000000000057,2.311389653587205828
0.221000000000000058,1.591930094203583224
0.222000000000000058,0.895502534672633188
0.223000000000000059,0.222280439428723497
0.224000000000000060,-0.427536948411355755
0.225000000000000061,-1.053737768529158902
0.226000000000000062,-1.656109790219813860
0.227000000000000063,-2.234451626351092735
0.228000000000000064,-2.788582829396944796
0.229000000000000065,-3.318352814494099245
0.230000000000000066,-3.823648581277902192
0.231000000000000066,-4.304401229839443843
0.232000000000000067,-4.760591286559767710
0.233000000000000068,-5.192252872930743557
0.234000000000000069,-5.599476764914822269
0.235000000000000070,-5.982412402111966898
0.236000000000000071,-6.341268915194460121
0.237000000000000072,-6.676315246958452576
0.238000000000000073,-6.987879447148155343
0.239000000000000073,-7.276347224159509963
0.240000000000000074,-7.542159838050123355
0.241000000000000075,-7.785811419181048798
0.242000000000000076,-8.007845795502477770
0.243000000000000077,-8.208852909160411215
0.244000000000000078,-8.389464899925325625
0.245000000000000079,-8.550351929090224345
0.246000000000000080,-8.692217813107191660
0.247000000000000081,-8.815795531462153889
0.248000000000000081,-8.921842668249015063
0.249000000000000082,-9.011136841702844791
0.250000000000000111,-9.084471170681581498
0.251000000000000112,-9.142649821825582279
0.252000000000000113,-9.186483675944467464
0.253000000000000114,-9.216786147135655582
0.254000000000000115,-9.234369183279136806
0.255000000000000115,-9.240039471911925872
0.256000000000000116,-9.234594871096344804
0.257000000000000117,-9.218821080777527044
0.258000000000000118,-9.193488566293854802
0.259000000000000119,-9.159349742168334529
0.260000000000000120,-9.117136421073563923
0.261000000000000121,-9.067557529926627780
0.262000000000000122,-9.011297092431188815
0.263000000000000123,-8.949012475032658287
0.264000000000000123,-8.881332891182101008
0.265000000000000124,-8.808858157000658551
0.266000000000000125,-8.732157689889348262
0.267000000000000126,-8.651769740321180180
0.268000000000000127,-8.568200845971635005
0.269000000000000128,-8.481925496472081605
0.270000000000000129,-8.393385996393710968
0.271000000000000130,-8.302992513570725208
0.272000000000000131,-8.211123299535580955
0.273000000000000131,-8.118125068649783671
0.274000000000000132,-8.024313522456930414
0.275000000000000133,-7.929974005845659590
0.276000000000000134,-7.835362281774355786
0.277000000000000135,-7.740705411565535599
0.278000000000000136,-7.646202728111175517
0.279000000000000137,-7.552026889731115133
0.280000000000000138,-7.458325002883549715
0.281000000000000139,-7.365219802428944362
0.282000000000000139,-7.272810878688780178
0.283000000000000140,-7.181175941107895255
0.284000000000000141,-7.090372108918256977
0.285000000000000142,-7.000437219804108047
0.286000000000000143,-6.911391148178504196
0.287000000000000144,-6.823237125292822114
0.288000000000000145,-6.735963054010234430
0.289000000000000146,-6.649542811675132725
0.290000000000000147,-6.563937535101634246
0.291000000000000147,-6.479096882280062530
0.292000000000000148,-6.394960265960037304
0.293000000000000149,-6.311458054808507967
0.294000000000000150,-6.228512738359746947
0.295000000000000151,-6.146040052470773674
0.296000000000000152,-6.063950062467436730
0.297000000000000153,-5.982148201614494454
0.298000000000000154,-5.900536262964740430
0.299000000000000155,-5.819013343039537212
0.300000000000000155,-5.737476736163911184
0.301000000000000156,-5.655822778625031688
0.302000000000000157,-5.573947642143255443
0.303000000000000158,-5.491748076440350346
0.304000000000000159,-5.409122100960975565
0.305000000000000160,-5.325969646050650042
0.306000000000000161,-5.242193144118796333
0.307000000000000162,-5.157698071517843985
0.308000000000000163,-5.072393442050974421
0.309000000000000163,-4.986192253182866629
0.310000000000000164,-4.899011886169647667
0.311000000000000165,-4.810774461448326988
0.312000000000000166,-4.721407150732901847
0.313000000000000167,-4.630842447354559077
0.314000000000000168,-4.539018396458875948
0.315000000000000169,-4.445878786733847399
0.316000000000000170,-4.351373305390540125
0.317000000000000171,-4.255457658153601663
0.318000000000000171,-4.158093656042983532
0.319000000000000172,-4.059249270742149918
0.320000000000000173,-3.958898660352143217
0.321000000000000174,-3.857022167326269457
0.322000000000000175,-3.753606290367854204
0.323000000000000176,-3.648643632053982344
0.324000000000000177,-3.542132823921967599
0.325000000000000178,-3.434078430723831676
0.326000000000000179,-3.324490835517438736
0.327000000000000179,-3.213386107221598564
0.328000000000000180,-3.100785852217633920
0.329000000000000181,-2.986717051532117306
0.330000000000000182,-2.871211885083689630
0.331000000000000183,-2.754307544424661636
0.332000000000000184,-2.636046035352303640
0.333000000000000185,-2.516473971708638402
0.334000000000000186,-2.395642361630041073
0.335000000000000187,-2.273606387449561783
0.336000000000000187,-2.150425180396650315
0.337000000000000188,-2.026161591179966859
0.338000000000000189,-1.900881957480848872
0.339000000000000190,-1.774655869326774438
0.340000000000000191,-1.647555933256647620
0.341000000000000192,-1.519657536133721232
0.342000000000000193,-1.391038609405492954
0.343000000000000194,-1.261779394556491019
0.344000000000000195,-1.131962210445805805
0.345000000000000195,-1.001671223170168545
0.346000000000000196,-0.870992219042660887
0.347000000000000197,-0.740012381228508209
0.348000000000000198,-0.608820070532559710
0.349000000000000199,-0.477504610787194583
0.350000000000000200,-0.346156079246300652
0.351000000000000201,-0.214865102348392567
0.352000000000000202,-0.083722657172366974
0.353000000000000203,0.047180121129309541
0.354000000000000203,0.177752125671777034
0.355000000000000204,0.307902457739721913
0.356000000000000205,0.437540600069669883
0.357000000000000206,0.566576583363483599
0.358000000000000207,0.694921145913506400
0.359000000000000208,0.822485886247564579
0.360000000000000209,0.949183408728323519
0.361000000000000210,1.074927462066115336
0.362000000000000210,1.199633070727255113
0.363000000000000211,1.323216659241376991
0.364000000000000212,1.445596169431238032
0.365000000000000213,1.566691170607048988
0.366000000000000214,1.686422962784337898
0.367000000000000215,1.804714673000274328
0.368000000000000216,1.921491344817666924
0.369000000000000217,2.036680021119249950
0.370000000000000218,2.150209820306674402
0.371000000000000218,2.262012006029661570
0.372000000000000219,2.372020050580394113
0.373000000000000220,2.480169692097070389
0.374000000000000221,2.586398985728112443
0.375000000000000222,2.690648348915506638
0.376000000000000223,2.792860600961426520
0.377000000000000224,2.892980997047534863
0.378000000000000225,2.990957256880372395
0.379000000000000226,3.086739588139964408
0.380000000000000226,3.180280704911329082
0.381000000000000227,3.271535841280881041
0.382000000000000228,3.360462760281066608
0.383000000000000229,3.447021758367458943
0.384000000000000230,3.531175665613136339
0.385000000000000231,3.612889841804610036
0.386000000000000232,3.692132168623378785
0.387000000000000233,3.768873038095860384
0.388000000000000234,3.843085337493143960
0.389000000000000234,3.914744430860054081
0.390000000000000235,3.983828137351149046
0.391000000000000236,4.050316706548377610
0.392000000000000237,4.114192790932924559
0.393000000000000238,4.175441415680299251
0.394000000000000239,4.234049945944865279
0.395000000000000240,4.290008051796414534
0.396000000000000241,4.343307670967913481
0.397000000000000242,4.393942969569691215
0.398000000000000242,4.441910300921611210
0.399000000000000243,4.487208162650601295
0.400000000000000244,4.529837152197162098
0.401000000000000245,4.569799920869693111
0.402000000000000246,4.607101126582004547
0.403000000000000247,4.641747385404529247
0.404000000000000248,4.673747222055646411
0.405000000000000249,4.703111019455219477
0.406000000000000250,4.729850967458028244
0.407000000000000250,4.753981010880460545
0.408000000000000251,4.775516796929529129
0.409000000000000252,4.794475622138856252
0.410000000000000253,4.810876378912189111
0.411000000000000254,4.824739501770471506
0.412000000000000255,4.836086913394678888
0.413000000000000256,4.844941970552044452
0.414000000000000257,4.851329409989682873
0.415000000000000258,4.855275294375136497
0.416000000000000258,4.856806958359853432
0.417000000000000259,4.855952954837375657
0.418000000000000260,4.852743001464427053
0.419000000000000261,4.847207927509346703
0.420000000000000262,4.839379621088580663
0.421000000000000263,4.829290976848502837
0.422000000000000264,4.816975844146362817
0.423000000000000265,4.802468975780799454
0.424000000000000266,4.785805977318962512
0.425000000000000266,4.767023257064328945
0.426000000000000267,4.746157976706084192
0.427000000000000268,4.723248002687867597
0.428000000000000269,4.698331858331009414
0.429000000000000270,4.671448676744434536
0.430000000000000271,4.642638154550639662
0.431000000000000272,4.611940506454820898
0.432000000000000273,4.579396420681362656
0.433000000000000274,4.545047015299799043
0.434000000000000274,4.508933795459721949
0.435000000000000275,4.471098611552240421
0.436000000000000276,4.431583618313063688
0.437000000000000277,4.390431234880504796
0.438000000000000278,4.347684105819642930
0.439000000000000279,4.303385063121931253
0.440000000000000280,4.257577089187828179
0.441000000000000281,4.210303280798371794
0.442000000000000282,4.161606814079696015
0.443000000000000282,4.111530910463391919
0.444000000000000283,4.060118803643636198
0.445000000000000284,4.007413707531016556
0.446000000000000285,3.953458785201446890
0.447000000000000286,3.898297118837289243
0.448000000000000287,3.841971680656764754
0.449000000000000288,3.784525304826488856
0.450000000000000289,3.726000660350885063
0.451000000000000290,3.666440224931426517
0.452000000000000290,3.605886259787502546
0.453000000000000291,3.544380785429981806
0.454000000000000292,3.481965558377698500
0.455000000000000293,3.418682048806267915
0.456000000000000294,3.354571419118081543
0.457000000000000295,3.289674503421537111
0.458000000000000296,3.224031787906992630
0.459000000000000297,3.157683392106515718
0.460000000000000298,3.090669051023696490
0.461000000000000298,3.023028098119799445
0.462000000000000299,2.954799449141517265
0.463000000000000300,2.886021586775801673
0.464000000000000301,2.816732546116442304
0.465000000000000302,2.746969900927165309
0.466000000000000303,2.676770750685290245
0.467000000000000304,2.606171708390313757
0.468000000000000305,2.535208889121078890
0.469000000000000306,2.463917899325342997
0.470000000000000306,2.392333826825372434
0.471000000000000307,2.320491231522904485
0.472000000000000308,2.248424136787016803
0.473000000000000309,2.176166021508129322
0.474000000000000310,2.103749812801611885
0.475000000000000311,2.031207879344016920
0.476000000000000312,1.958572025325701960
0.477000000000000313,1.885873485002698802
0.478000000000000314,1.813142917831664036
0.479000000000000314,1.740410404171143455
0.480000000000000315,1.667705441532839838
0.481000000000000316,1.595056941366534975
0.482000000000000317,1.522493226362487517
0.483000000000000318,1.450042028255229765
0.484000000000000319,1.377730486112874519
0.485000000000000320,1.305585145096184396
0.486000000000000321,1.233631955671798508
0.487000000000000322,1.161896273264275026
0.488000000000000322,1.090402858331671165
0.489000000000000323,1.019175876849789164
0.490000000000000324,0.948238901190144645
0.491000000000000325,0.877614911377208373
0.492000000000000326,0.807326296710492053
0.493000000000000327,0.737394857737431186
0.494000000000000328,0.667841808563108708
0.495000000000000329,0.598687779483221827
0.496000000000000330,0.529952819926896246
0.497000000000000330,0.461656401696141916
0.498000000000000331,0.393817422489095237
0.499000000000000332,0.326454209694457487
0.500000000000000333,0.259584524444585019
0.501000000000000334,0.193225565915238734
0.502000000000000335,0.127393975860052244
0.503000000000000336,0.062105843368164070
0.504000000000000337,-0.002623290166442782
0.505000000000000338,-0.066778425874851818
0.506000000000000338,-0.130345102053288087
0.507000000000000339,-0.193309388623936540
0.508000000000000340,-0.255657881426744449
0.509000000000000341,-0.317377696352284855
0.510000000000000342,-0.378456463325496928
0.511000000000000343,-0.438882320149815819
0.512000000000000344,-0.498643906220971433
0.513000000000000345,-0.557730356119441772
0.514000000000000346,-0.616131293090464771
0.515000000000000346,-0.673836822419959125
0.516000000000000347,-0.730837524714768705
0.517000000000000348,-0.787124449095215062
0.518000000000000349,-0.842689106307780933
0.519000000000000350,-0.897523461765423192
0.520000000000000351,-0.951619928522947189
0.521000000000000352,-1.004971360194442997
0.522000000000000353,-1.057571043819654388
0.523000000000000353,-1.109412692686043034
0.524000000000000354,-1.160490439112769057
0.525000000000000355,-1.210798827203007466
0.526000000000000356,-1.260332805570400172
0.527000000000000357,-1.309087720045531977
0.528000000000000358,-1.357059306368067819
0.529000000000000359,-1.404243682869676491
0.530000000000000360,-1.450637343153212910
0.531000000000000361,-1.496237148772911807
0.532000000000000361,-1.541040321920528644
0.533000000000000362,-1.585044438121888666
0.534000000000000363,-1.628247418948388869
0.535000000000000364,-1.670647524747617352
0.536000000000000365,-1.712243347397147897
0.537000000000000366,-1.753033803085434883
0.538000000000000367,-1.793018125123496675
0.539000000000000368,-1.832195856790966415
0.540000000000000369,-1.870566844219902380
0.541000000000000369,-1.908131229319586009
0.542000000000000370,-1.944889442745395325
0.543000000000000371,-1.980842196914730291
0.544000000000000372,-2.015990479072732544
0.545000000000000373,-2.050335544410473609
0.546000000000000374,-2.083878909238170429
0.547000000000000375,-2.116622344215712825
0.548000000000000376,-2.148567867642867668
0.549000000000000377,-2.179717738811179917
0.550000000000000377,-2.210074451419687502
0.551000000000000378,-2.239640727056191771
0.552000000000000379,-2.268419508745997515
0.553000000000000380,-2.296413954569653804
0.554000000000000381,-2.323627431351316108
0.555000000000000382,-2.350063508419152125
0.556000000000000383,-2.375725951439084049
0.557000000000000384,-2.400618716323176471
0.558000000000000385,-2.424745943213724608
0.559000000000000385,-2.448111950544176629
0.560000000000000386,-2.470721229177761380
0.561000000000000387,-2.492578436624752758
0.562000000000000388,-2.513688391339099049
0.563000000000000389,-2.534056067095193043
0.564000000000000390,-2.553686587445296308
0.565000000000000391,-2.572585220258270855
0.566000000000000392,-2.590757372340028120
0.567000000000000393,-2.608208584136115338
0.568000000000000393,-2.624944524516741762
0.569000000000000394,-2.640970985644581326
0.570000000000000395,-2.656293877925492986
0.571000000000000396,-2.670919225042290623
0.572000000000000397,-2.684853159071721507
0.573000000000000398,-2.698101915684623542
0.574000000000000399,-2.710671829429211588
0.575000000000000400,-2.722569329097506596
0.576000000000000401,-2.733800933174660663
0.577000000000000401,-2.744373245371124259
0.578000000000000402,-2.754292950237329229
0.579000000000000403,-2.763566808860685953
0.580000000000000404,-2.772201654644579794
0.581000000000000405,-2.780204389168990264
0.582000000000000406,-2.787581978132393168
0.583000000000000407,-2.794341447374466547
0.584000000000000408,-2.800489878979238068
0.585000000000000409,-2.806034407458070312
0.586000000000000409,-2.810982216012047452
0.587000000000000410,-2.815340532873228163
0.588000000000000411,-2.819116627724073343
0.589000000000000412,-2.822317808194617861
0.590000000000000413,-2.824951416436591423
0.591000000000000414,-2.827024825773947647
0.592000000000000415,-2.828545437429104581
0.593000000000000416,-2.829520677324153688
0.594000000000000417,-2.829957992956389834
0.595000000000000417,-2.829864850347398431
0.596000000000000418,-2.829248731064924804
0.597000000000000419,-2.828117129316843670
0.598000000000000420,-2.826477549116324983
0.599000000000000421,-2.824337501517531379
0.600000000000000422,-2.821704501920947017
0.601000000000000423,-2.818586067447546029
0.602000000000000424,-2.814989714380997210
0.603000000000000425,-2.810922955677066515
0.604000000000000425,-2.806393298539281655
0.605000000000000426,-2.801408242060145160
0.606000000000000427,-2.795975274926930432
0.607000000000000428,-2.790101873191206394
0.608000000000000429,-2.783795498101266030
0.609000000000000430,-2.777063593996517810
0.610000000000000431,-2.769913586263016647
0.611000000000000432,-2.762352879349180057
0.612000000000000433,-2.754388854840867484
0.613000000000000433,-2.746028869594903110
0.614000000000000434,-2.737280253930150842
0.615000000000000435,-2.728150309875220891
0.616000000000000436,-2.718646309471986822
