# Ag100_PHO-JS
# h[nm],U(h)[kJ/mol]
0.149999999999999994,177.818828465330994959
0.150999999999999995,173.567883645561153116
0.151999999999999996,169.322918671230837617
0.152999999999999997,165.130575802531382124
0.153999999999999998,161.008613666242297313
0.154999999999999999,156.962009230260548520
0.156000000000000000,152.991022427781501847
0.157000000000000001,149.094818796993109800
0.158000000000000002,145.272782533241013425
0.159000000000000002,141.524739664176138376
0.160000000000000003,137.850754578167368436
0.161000000000000004,134.250833747323184753
0.162000000000000005,130.724683186776843513
0.163000000000000006,127.271565714665911173
0.164000000000000007,123.890255027828487755
0.165000000000000008,120.579063738798552663
0.166000000000000009,117.335918175480969694
0.167000000000000010,114.158455806009101252
0.168000000000000010,111.044126998385038974
0.169000000000000011,107.990289001144176950
0.170000000000000012,104.994285376598057269
0.171000000000000013,102.053508214115524311
0.172000000000000014,99.165443277667549182
0.173000000000000015,96.327699969561976445
0.174000000000000016,93.538028859842270890
0.175000000000000017,90.794329779969132233
0.176000000000000018,88.094653322471756951
0.177000000000000018,85.437198195825658331
0.178000000000000019,82.820306383462153121
0.179000000000000020,80.242457536448881683
0.180000000000000021,77.702263548007096006
0.181000000000000022,75.198463846848213166
0.182000000000000023,72.729921619405700994
0.183000000000000024,70.295620929971235569
0.184000000000000025,67.894664546133213889
0.185000000000000026,65.526272183842209529
0.186000000000000026,63.189778848990691529
0.187000000000000027,60.884632957413984400
0.188000000000000028,58.610393950357490667
0.189000000000000029,56.366729176879672991
0.190000000000000030,54.153409879312086161
0.191000000000000031,51.970306185603170945
0.192000000000000032,49.817381077721677229
0.193000000000000033,47.694683364476958332
0.194000000000000034,45.602339737696077293
0.195000000000000034,43.540546031362438839
0.196000000000000035,41.509557833650269743
0.197000000000000036,39.509680622034352382
0.198000000000000037,37.541259602536271700
0.199000000000000038,35.604669436736408272
0.200000000000000039,33.700304035654831125
0.201000000000000040,31.828566589282615951
0.202000000000000041,29.989859985722990388
0.203000000000000042,28.184577755809506527
0.204000000000000042,26.413095658827955958
0.205000000000000043,24.675764003583754658
0.206000000000000044,22.972900777374650971
0.207000000000000045,21.304785634168819541
0.208000000000000046,19.671654773014658701
0.209000000000000047,18.073696718860965404
0.210000000000000048,16.511049000859610913
0.211000000000000049,14.983795708068077701
0.212000000000000050,13.491965889377462773
0.213000000000000050,12.035532753508700665
0.214000000000000051,10.614413616010173413
0.215000000000000052,9.228470533282564503
0.216000000000000053,7.877511558632582123
0.217000000000000054,6.561292552070542961
0.218000000000000055,5.279519473853776290
0.219000000000000056,4.031851091466154280
0.220000000000000057,2.817902030623908427
0.221000000000000058,1.637246102846884543
0.222000000000000058,0.489419844937186377
0.223000000000000059,-0.626073790781461526
0.224000000000000060,-1.709761652560099376
0.225000000000000061,-2.762196564299079338
0.226000000000000062,-3.783953507515430026
0.227000000000000063,-4.775625853233021800
0.228000000000000064,-5.737821681880065583
0.229000000000000065,-6.671160224366286862
0.230000000000000066,-7.576268452696910849
0.231000000000000066,-8.453777843833560013
0.232000000000000067,-9.304321336073892112
0.233000000000000068,-10.128530493036533855
0.234000000000000069,-10.927032886431550907
0.235000000000000070,-11.700449705190486327
0.236000000000000071,-12.449393595234935717
0.237000000000000072,-13.174466731188335444
0.238000000000000073,-13.876259118677225501
0.239000000000000073,-14.555347123523514341
0.240000000000000074,-15.212292222092745675
0.241000000000000075,-15.847639965316009381
0.242000000000000076,-16.461919147437157562
0.243000000000000077,-17.055641169333423335
0.244000000000000078,-17.629299585298308983
0.245000000000000079,-18.183369821443299941
0.246000000000000080,-18.718309053349472038
0.247000000000000081,-19.234556230264171717
0.248000000000000081,-19.732532232969980157
0.249000000000000082,-20.212640152435970009
0.250000000000000111,-20.675265676478172594
0.251000000000000112,-21.120777571886247159
0.252000000000000113,-21.549528249805874225
0.253000000000000114,-21.961854402578104839
0.254000000000000115,-22.358077700723292480
0.255000000000000115,-22.738505539295225333
0.256000000000000116,-23.103431823416425317
0.257000000000000117,-23.453137783422199902
0.258000000000000118,-23.787892810680581590
0.259000000000000119,-24.107955305809397828
0.260000000000000120,-24.413573531672081884
0.261000000000000121,-24.704986464191314610
0.262000000000000122,-24.982424634672440789
0.263000000000000123,-25.246110957966298116
0.264000000000000123,-25.496261541424214414
0.265000000000000124,-25.733086470198191620
0.266000000000000125,-25.956790565017428207
0.267000000000000126,-26.167574109122490711
0.268000000000000127,-26.365633541562495168
0.269000000000000128,-26.551162114552433025
0.270000000000000129,-26.724350513051270184
0.271000000000000130,-26.885387435152694025
0.272000000000000131,-27.034460132280269562
0.273000000000000131,-27.171754908547761431
0.274000000000000132,-27.297457578983159721
0.275000000000000133,-27.411753886623124288
0.276000000000000134,-27.514829878762235182
0.277000000000000135,-27.606872242891540736
0.278000000000000136,-27.688068603083213048
0.279000000000000137,-27.758607777774265912
0.280000000000000138,-27.818680000073186420
0.281000000000000139,-27.868477101861373058
0.282000000000000139,-27.908192663086129670
0.283000000000000140,-27.938022127746819478
0.284000000000000141,-27.958162888160359216
0.285000000000000142,-27.968814339159582261
0.286000000000000143,-27.970177903928032492
0.287000000000000144,-27.962457033209449975
0.288000000000000145,-27.945857179651586222
0.289000000000000146,-27.920585749051447522
0.290000000000000147,-27.886852030266119584
0.291000000000000147,-27.844867105539066188
0.292000000000000148,-27.794843742969145950
0.293000000000000149,-27.736996272818043252
0.294000000000000150,-27.671540449313209109
0.295000000000000151,-27.598693299559254655
0.296000000000000152,-27.518672961120056897
0.297000000000000153,-27.431698509779778306
0.298000000000000154,-27.337989778932143992
0.299000000000000155,-27.237767171986554615
0.300000000000000155,-27.131251469115333919
0.301000000000000156,-27.018663629601046949
0.302000000000000157,-26.900224590975984285
0.303000000000000158,-26.776155066078484168
0.304000000000000159,-26.646675339083014222
0.305000000000000160,-26.512005061492715186
0.306000000000000161,-26.372363049016819048
0.307000000000000162,-26.227967080188250293
0.308000000000000163,-26.079033697511714962
0.309000000000000163,-25.925778011868736428
0.310000000000000164,-25.768413510843849679
0.311000000000000165,-25.607151871575020152
0.312000000000000166,-25.442202778673724595
0.313000000000000167,-25.273773747702463766
0.314000000000000168,-25.102069954643724259
0.315000000000000169,-24.927294071741815884
0.316000000000000170,-24.749646110049422276
0.317000000000000171,-24.569323268962754980
0.318000000000000171,-24.386519792984383770
0.319000000000000172,-24.201426835909515489
0.320000000000000173,-24.014232332591745944
0.321000000000000174,-23.825120878405410707
0.322000000000000175,-23.634273616486648706
0.323000000000000176,-23.441868132801428004
0.324000000000000177,-23.248078359057842590
0.325000000000000178,-23.053074483450732401
0.326000000000000179,-22.857022869200410042
0.327000000000000179,-22.660085980822117335
0.328000000000000180,-22.462422318039894975
0.329000000000000181,-22.264186357239168501
0.330000000000000182,-22.065528500331332395
0.331000000000000183,-21.866595030888895224
0.332000000000000184,-21.667528077392553598
0.333000000000000185,-21.468465583419110487
0.334000000000000186,-21.269541284586544805
0.335000000000000187,-21.070884692062023191
0.336000000000000187,-20.872621082429549944
0.337000000000000188,-20.674871493706032055
0.338000000000000189,-20.477752727288173418
0.339000000000000190,-20.281377355606942103
0.340000000000000191,-20.085853735262183761
0.341000000000000192,-19.891286025407190152
0.342000000000000193,-19.697774211149777557
0.343000000000000194,-19.505414131736461769
0.344000000000000195,-19.314297513284351737
0.345000000000000195,-19.124512005827043026
0.346000000000000196,-18.936141224440717679
0.347000000000000197,-18.749264794218941432
0.348000000000000198,-18.563958398866823529
0.349000000000000199,-18.380293832687620181
0.350000000000000200,-18.198339055738873782
0.351000000000000201,-18.018158251938242387
0.352000000000000202,-17.839811889903629094
0.353000000000000203,-17.663356786317038427
0.354000000000000203,-17.488846171605775481
0.355000000000000204,-17.316329757740170692
0.356000000000000205,-17.145853807952356362
0.357000000000000206,-16.977461208185964381
0.358000000000000207,-16.811191540092398355
0.359000000000000208,-16.647081155395291319
0.360000000000000209,-16.485163251450821065
0.361000000000000210,-16.325467947837186244
0.362000000000000210,-16.168022363813260966
0.363000000000000211,-16.012850696492176183
0.364000000000000212,-15.859974299581953261
0.365000000000000213,-15.709411762551363623
0.366000000000000214,-15.561178990085625884
0.367000000000000215,-15.415289281702111879
0.368000000000000216,-15.271753411403139467
0.369000000000000217,-15.130579707247983734
0.370000000000000218,-14.991774130732977710
0.371000000000000218,-14.855340355873853042
0.372000000000000219,-14.721279847890480497
0.373000000000000220,-14.589591941399771002
0.374000000000000221,-14.460273918027946038
0.375000000000000222,-14.333321083358629977
0.376000000000000223,-14.208726843138986595
0.377000000000000224,-14.086482778670504246
0.378000000000000225,-13.966578721316682987
0.379000000000000226,-13.849002826064298333
0.380000000000000226,-13.733741644079898947
0.381000000000000227,-13.620780194207407376
0.382000000000000228,-13.510102033357506812
0.383000000000000229,-13.401689325743456394
0.384000000000000230,-13.295522910921993898
0.385000000000000231,-13.191582370602507268
0.386000000000000232,-13.089846094190614068
0.387000000000000233,-12.990291343036668437
0.388000000000000234,-12.892894313362756264
0.389000000000000234,-12.797630197845519362
0.390000000000000235,-12.704473245834686068
0.391000000000000236,-12.613396822191216273
0.392000000000000237,-12.524373464730869543
0.393000000000000238,-12.437374940262646561
0.394000000000000239,-12.352372299213620011
0.395000000000000240,-12.269335928834548710
0.396000000000000241,-12.188235604982875060
0.397000000000000242,-12.109040542482038205
0.398000000000000242,-12.031719444058172286
0.399000000000000243,-11.956240547857298395
0.400000000000000244,-11.882571673547833058
0.401000000000000245,-11.810680267015515099
0.402000000000000246,-11.740533443658796031
0.403000000000000247,-11.672098030295053661
0.404000000000000248,-11.605340605688871491
0.405000000000000249,-11.540227539715456118
0.406000000000000250,-11.476725031173121039
0.407000000000000250,-11.414799144260268093
0.408000000000000251,-11.354415843733214331
0.409000000000000252,-11.295541028762290381
0.410000000000000253,-11.238140565504442847
0.411000000000000254,-11.182180318411623077
0.412000000000000255,-11.127626180294699410
0.413000000000000256,-11.074444101163757992
0.414000000000000257,-11.022600115865673231
0.415000000000000258,-10.972060370541068863
0.416000000000000258,-10.922791147922678689
0.417000000000000259,-10.874758891497943836
0.418000000000000260,-10.827930228558845016
0.419000000000000261,-10.782271992162382190
0.420000000000000262,-10.737751242025256104
0.421000000000000263,-10.694335284376846218
0.422000000000000264,-10.651991690794114120
0.423000000000000265,-10.610688316042892865
0.424000000000000266,-10.570393314949722452
0.425000000000000266,-10.531075158328331298
0.426000000000000267,-10.492702647985165498
0.427000000000000268,-10.455244930828195393
0.428000000000000269,-10.418671512103053090
0.429000000000000270,-10.382952267780613198
0.430000000000000271,-10.348057456120001163
0.431000000000000272,-10.313957728430704464
0.432000000000000273,-10.280624139057449540
0.433000000000000274,-10.248028154611242613
0.434000000000000274,-10.216141662469684803
0.435000000000000275,-10.184936978569556487
0.436000000000000276,-10.154386854514314109
0.437000000000000277,-10.124464484018808719
0.438000000000000278,-10.095143508713425362
0.439000000000000279,-10.066398023329348632
0.440000000000000280,-10.038202580286407439
0.441000000000000281,-10.010532193704611004
0.442000000000000282,-9.983362342860228722
0.443000000000000282,-9.956668975106660824
0.444000000000000283,-9.930428508280362720
0.445000000000000284,-9.904617832611323891
0.446000000000000285,-9.879214312157490241
0.447000000000000286,-9.854195785782094319
0.448000000000000287,-9.829540567692312436
0.449000000000000288,-9.805227447557539833
0.450000000000000289,-9.781235690224903578
0.451000000000000290,-9.757545035049464133
0.452000000000000290,-9.734135694856068000
0.453000000000000291,-9.710988354549339618
0.454000000000000292,-9.688084169388089251
0.455000000000000293,-9.665404762939797223
0.456000000000000294,-9.642932224730689228
0.457000000000000295,-9.620649107606244144
0.458000000000000296,-9.598538424816807080
0.459000000000000297,-9.576583646842523834
0.460000000000000298,-9.554768697971333324
0.461000000000000298,-9.533077952643514763
0.462000000000000299,-9.511496231575851112
0.463000000000000300,-9.490008797677976560
0.464000000000000301,-9.468601351773358488
0.465000000000000302,-9.447260028136732046
0.466000000000000303,-9.425971389859597593
0.467000000000000304,-9.404722424055020014
0.468000000000000305,-9.383500536912540824
0.469000000000000306,-9.362293548613706662
0.470000000000000306,-9.341089688118506373
0.471000000000000307,-9.319877587832321453
0.472000000000000308,-9.298646278163159806
0.473000000000000309,-9.277385181978115014
0.474000000000000310,-9.256084108968027024
0.475000000000000311,-9.234733249928890331
0.476000000000000312,-9.213323170968223508
0.477000000000000313,-9.191844807644313775
0.478000000000000314,-9.170289459045992686
0.479000000000000314,-9.148648781820350351
0.480000000000000315,-9.126914784155342630
0.481000000000000316,-9.105079819724247514
0.482000000000000317,-9.083136581598314052
0.483000000000000318,-9.061078096134039583
0.484000000000000319,-9.038897716840914143
0.485000000000000320,-9.016589118235566858
0.486000000000000321,-8.994146289687680706
0.487000000000000322,-8.971563529263024250
0.488000000000000322,-8.948835437568561701
0.489000000000000323,-8.925956911604604471
0.490000000000000324,-8.902923138628436206
0.491000000000000325,-8.879729590033921482
0.492000000000000326,-8.856372015251125163
0.493000000000000327,-8.832846435670116847
0.494000000000000328,-8.809149138592495376
0.495000000000000329,-8.785276671214477417
0.496000000000000330,-8.761225834644658761
0.497000000000000330,-8.736993677959970839
0.498000000000000331,-8.712577492302592930
0.499000000000000332,-8.687974805020907354
0.500000000000000333,-8.663183373857119562
0.501000000000000334,-8.638201181184079758
0.502000000000000335,-8.613026428293730774
0.503000000000000336,-8.587657529739477269
0.504000000000000337,-8.562093107734501274
0.505000000000000338,-8.536331986608038491
0.506000000000000338,-8.510373187321469857
0.507000000000000339,-8.484215922045880376
0.508000000000000340,-8.457859588802691064
0.509000000000000341,-8.431303766168904090
0.510000000000000342,-8.404548208048115754
0.511000000000000343,-8.377592838508741480
0.512000000000000344,-8.350437746690419161
0.513000000000000345,-8.323083181779692197
0.514000000000000346,-8.295529548055911917
0.515000000000000346,-8.267777400008078814
0.516000000000000347,-8.239827437523436160
0.517000000000000348,-8.211680501148537203
0.518000000000000349,-8.183337567423091485
0.519000000000000350,-8.154799744287382524
0.520000000000000351,-8.126068266563390097
0.521000000000000352,-8.097144491510135822
0.522000000000000353,-8.068029894453365714
0.523000000000000353,-8.038726064489802425
0.524000000000000354,-8.009234700266166129
0.525000000000000355,-7.979557605832832579
0.526000000000000356,-7.949696686572307769
0.527000000000000357,-7.919653945202369982
0.528000000000000358,-7.889431477853747765
0.529000000000000359,-7.859031470222213045
0.530000000000000360,-7.828456193794830931
0.531000000000000361,-7.797708002150139706
0.532000000000000361,-7.766789327331899528
0.533000000000000362,-7.735702676296118518
0.534000000000000363,-7.704450627430904142
0.535000000000000364,-7.673035827148760646
0.536000000000000365,-7.641460986550822732
0.537000000000000366,-7.609728878162586696
0.538000000000000367,-7.577842332740464037
0.539000000000000368,-7.545804236148880406
0.540000000000000369,-7.513617526306933136
0.541000000000000369,-7.481285190204390645
0.542000000000000370,-7.448810260986087783
0.543000000000000371,-7.416195815104217104
0.544000000000000372,-7.383444969537808156
0.545000000000000373,-7.350560879078630983
0.546000000000000374,-7.317546733682839033
0.547000000000000375,-7.284405755887609857
0.548000000000000376,-7.251141198292055279
0.549000000000000377,-7.217756341101555506
0.550000000000000377,-7.184254489734795968
0.551000000000000378,-7.150638972492656009
0.552000000000000379,-7.116913138288242457
0.553000000000000380,-7.083080354437115034
0.554000000000000381,-7.049144004506940675
0.555000000000000382,-7.015107486225848454
0.556000000000000383,-6.980974209448381984
0.557000000000000384,-6.946747594178523499
0.558000000000000385,-6.912431068648649202
0.559000000000000385,-6.878028067453787919
0.560000000000000386,-6.843542029740156352
0.561000000000000387,-6.808976397447243478
0.562000000000000388,-6.774334613602453814
0.563000000000000389,-6.739620120667583869
0.564000000000000390,-6.704836358936137053
0.565000000000000391,-6.669986764980706084
0.566000000000000392,-6.635074770149529400
0.567000000000000393,-6.600103799111364467
0.568000000000000393,-6.565077268447805814
0.569000000000000394,-6.529998585292197788
0.570000000000000395,-6.494871146014351559
0.571000000000000396,-6.459698334950083165
0.572000000000000397,-6.424483523174892241
0.573000000000000398,-6.389230067320805340
0.574000000000000399,-6.353941308435642199
0.575000000000000400,-6.318620570883807019
0.576000000000000401,-6.283271161287833806
0.577000000000000401,-6.247896367509883753
0.578000000000000402,-6.212499457672285175
0.579000000000000403,-6.177083679216416101
0.580000000000000404,-6.141652257999119513
0.581000000000000405,-6.106208397425799461
0.582000000000000406,-6.070755277619491963
0.583000000000000407,-6.035296054625047368
0.584000000000000408,-5.999833859647802470
0.585000000000000409,-5.964371798325815988
0.586000000000000409,-5.928912950035020835
0.587000000000000410,-5.893460367226571073
0.588000000000000411,-5.858017074795540680
0.589000000000000412,-5.822586069480412796
0.590000000000000413,-5.787170319292443743
0.591000000000000414,-5.751772762974403541
0.592000000000000415,-5.716396309487878469
0.593000000000000416,-5.681043837528418905
0.594000000000000417,-5.645718195067955136
0.595000000000000417,-5.610422198923822990
0.596000000000000418,-5.575158634353515552
0.597000000000000419,-5.539930254674891863
0.598000000000000420,-5.504739780910814062
0.599000000000000421,-5.469589901457879044
0.600000000000000422,-5.434483271778438152
0.601000000000000423,-5.399422514115406635
0.602000000000000424,-5.364410217229178102
0.603000000000000425,-5.329448936156144789
0.604000000000000425,-5.294541191988129114
0.605000000000000426,-5.259689471672248651
0.606000000000000427,-5.224896227830657658
0.607000000000000428,-5.190163878599440395
0.608000000000000429,-5.155494807486430631
