# Ag100_PRO-JS
# h[nm],U(h)[kJ/mol]
0.200000000000000011,169.968930744693437873
0.201000000000000012,158.735699137227072697
0.202000000000000013,152.928214702415914417
0.203000000000000014,149.536005333192008493
0.204000000000000015,146.875021168654882331
0.205000000000000016,144.099892077481996466
0.206000000000000016,140.872462943515017741
0.207000000000000017,137.141574860264597646
0.208000000000000018,133.001012455697207315
0.209000000000000019,128.601513136499420398
0.210000000000000020,124.099438785722028911
0.211000000000000021,119.629688952231020949
0.212000000000000022,115.294106037355589933
0.213000000000000023,111.159309226480814914
0.214000000000000024,107.259841237698992700
0.215000000000000024,103.603908253060538414
0.216000000000000025,100.179981450528060805
0.217000000000000026,96.963216431254380723
0.218000000000000027,93.921115937239989080
0.219000000000000028,91.018172566592852490
0.220000000000000029,88.219427133236266059
0.221000000000000030,85.492998466817368808
0.222000000000000031,82.811706434466827886
0.223000000000000032,80.153939674749011601
0.224000000000000032,77.503925803653913817
0.225000000000000033,74.851553765842908206
0.226000000000000034,72.191881872242035456
0.227000000000000035,69.524445169356624774
0.228000000000000036,66.852454939254698729
0.229000000000000037,64.181963094948216053
0.230000000000000038,61.521046038340593043
0.231000000000000039,58.879046702749292308
0.232000000000000040,56.265900184164124198
0.233000000000000040,53.691557530243869678
0.234000000000000041,51.165513725804729006
0.235000000000000042,48.696439437768809455
0.236000000000000043,46.291911379438623442
0.237000000000000044,43.958232937834125664
0.238000000000000045,41.700334706349295288
0.239000000000000046,39.521743529393674521
0.240000000000000047,37.424608375939492078
0.241000000000000048,35.409771625481077706
0.242000000000000048,33.476875013366118594
0.243000000000000049,31.624490411540669754
0.244000000000000050,29.850266709843509716
0.245000000000000051,28.151085229033704138
0.246000000000000052,26.523217276231935813
0.247000000000000053,24.962478599347253549
0.248000000000000054,23.464376576018494802
0.249000000000000055,22.024246962447058706
0.250000000000000056,20.637377914971331450
0.251000000000000056,19.299119776063569986
0.252000000000000057,18.004979785660523817
0.253000000000000058,16.750701441370090095
0.254000000000000059,15.532328692917250379
0.255000000000000060,14.346255524885293653
0.256000000000000061,13.189261766180573332
0.257000000000000062,12.058536174082224335
0.258000000000000063,10.951687984726493852
0.259000000000000064,9.866748209710545225
0.260000000000000064,8.802161999027898531
0.261000000000000065,7.756773392012568991
0.262000000000000066,6.729803747904592015
0.263000000000000067,5.720825092845453597
0.264000000000000068,4.729729546567666532
0.265000000000000069,3.756695905004381331
0.266000000000000070,2.802154359022724694
0.267000000000000071,1.866750228290340319
0.268000000000000071,0.951307486104849831
0.269000000000000072,0.056792748442242580
0.270000000000000073,-0.815719699405162757
0.271000000000000074,-1.665081360813153610
0.272000000000000075,-2.490101082712915304
0.273000000000000076,-3.289574403347153009
0.274000000000000077,-4.062310465600769582
0.275000000000000078,-4.807156338081972180
0.276000000000000079,-5.523018648220991977
0.277000000000000079,-6.208882486421357427
0.278000000000000080,-6.863827587928287066
0.279000000000000081,-7.487041839868821214
0.280000000000000082,-8.077832195233360935
0.281000000000000083,-8.635633103838523894
0.282000000000000084,-9.160012592996528369
0.283000000000000085,-9.650676148201629445
0.284000000000000086,-10.107468557119604569
0.285000000000000087,-10.530373889020292921
0.286000000000000087,-10.919513787003102934
0.287000000000000088,-11.275144252389910804
0.288000000000000089,-11.597651099934674690
0.289000000000000090,-11.887544259436401362
0.290000000000000091,-12.145451094319104968
0.291000000000000092,-12.372108901115620228
0.292000000000000093,-12.568356745875844283
0.293000000000000094,-12.735126784608899797
0.294000000000000095,-12.873435205218868305
0.295000000000000095,-12.984372918237472305
0.296000000000000096,-13.069096113195509901
0.297000000000000097,-13.128816786885442625
0.298000000000000098,-13.164793339200063116
0.299000000000000099,-13.178321321817879408
0.300000000000000100,-13.170724414849582118
0.301000000000000101,-13.143345696752163576
0.302000000000000102,-13.097539263428611633
0.303000000000000103,-13.034662243516791591
0.304000000000000103,-12.956067248472427522
0.305000000000000104,-12.863095288198753252
0.306000000000000105,-12.757069175686600815
0.307000000000000106,-12.639287437412189519
0.308000000000000107,-12.511018740099135726
0.309000000000000108,-12.373496838877482418
0.310000000000000109,-12.227916046856455168
0.311000000000000110,-12.075427221652311971
0.312000000000000111,-11.917134260457556749
0.313000000000000111,-11.754091091780697553
0.314000000000000112,-11.587299149000660492
0.315000000000000113,-11.417705308339579418
0.316000000000000114,-11.246200271735025566
0.317000000000000115,-11.073617373357178550
0.318000000000000116,-10.900731787140225393
0.319000000000000117,-10.728260111651378494
0.320000000000000118,-10.556860307875751914
0.321000000000000119,-10.387131965024389402
0.322000000000000119,-10.219616869248365987
0.323000000000000120,-10.054799850137843720
0.324000000000000121,-9.893109880077364693
0.325000000000000122,-9.734921401893309678
0.326000000000000123,-9.580555860744162544
0.327000000000000124,-9.430283416848332934
0.328000000000000125,-9.284324816399086799
0.329000000000000126,-9.142853398861692682
0.330000000000000127,-9.005997219769318107
0.331000000000000127,-8.873841269116081065
0.332000000000000128,-8.746429766472093803
0.333000000000000129,-8.623768515006430491
0.334000000000000130,-8.505827297685485178
0.335000000000000131,-8.392542300008363654
0.336000000000000132,-8.283818544735883194
0.337000000000000133,-8.179532325160071338
0.338000000000000134,-8.079533624536976433
0.339000000000000135,-7.983648510363354767
0.340000000000000135,-7.891681493209448561
0.341000000000000136,-7.803417840823522411
0.342000000000000137,-7.718625839193331117
0.343000000000000138,-7.637058993183069688
0.344000000000000139,-7.558458160258806124
0.345000000000000140,-7.482553611669206184
0.346000000000000141,-7.409067016259117899
0.347000000000000142,-7.337713342861761134
0.348000000000000143,-7.268202677939234135
0.349000000000000143,-7.200241955820406936
0.350000000000000144,-7.133536599521382193
0.351000000000000145,-7.067792070725419151
0.352000000000000146,-7.002715328048369159
0.353000000000000147,-6.938016193222298789
0.354000000000000148,-6.873408625296034913
0.355000000000000149,-6.808611903376582397
0.356000000000000150,-6.743351718823182850
0.357000000000000151,-6.677361178155294397
0.358000000000000151,-6.610381718250446959
0.359000000000000152,-6.542163935688037668
0.360000000000000153,-6.472468332343251696
0.361000000000000154,-6.401065979552160279
0.362000000000000155,-6.327739103357133743
0.363000000000000156,-6.252281593502297952
0.364000000000000157,-6.174499438983216848
0.365000000000000158,-6.094211093066219220
0.366000000000000159,-6.011247770780185462
0.367000000000000159,-5.925453681951203144
0.368000000000000160,-5.836686202898364151
0.369000000000000161,-5.744815989938473422
0.370000000000000162,-5.649727037861213219
0.371000000000000163,-5.551316686534781830
0.372000000000000164,-5.449495578786236472
0.373000000000000165,-5.344187572673759767
0.374000000000000166,-5.235329611228519475
0.375000000000000167,-5.122871552695137609
0.376000000000000167,-5.006775964241979793
0.377000000000000168,-4.887017882046364115
0.378000000000000169,-4.763584540587408434
0.379000000000000170,-4.636475073900527377
0.380000000000000171,-4.505700191463578363
0.381000000000000172,-4.371281831296928821
0.382000000000000173,-4.233252792767705941
0.383000000000000174,-4.091656351494433963
0.384000000000000175,-3.946545858651144378
0.385000000000000175,-3.797984326872144489
0.386000000000000176,-3.646044004859089860
0.387000000000000177,-3.490805942692149610
0.388000000000000178,-3.332359549747354155
0.389000000000000179,-3.170802147022155015
0.390000000000000180,-3.006238515572934755
0.391000000000000181,-2.838780442669696313
0.392000000000000182,-2.668546267177511311
0.393000000000000183,-2.495660425578601682
0.394000000000000183,-2.320252999956756490
0.395000000000000184,-2.142459269174593395
0.396000000000000185,-1.962419264385409479
0.397000000000000186,-1.780277329935782138
0.398000000000000187,-1.596181690631004235
0.399000000000000188,-1.410284026254635892
0.400000000000000189,-1.222739054155710381
0.401000000000000190,-1.033704120641038671
0.402000000000000191,-0.843338801838735774
0.403000000000000191,-0.651804514628423148
0.404000000000000192,-0.459264138167982616
0.405000000000000193,-0.265881646482552081
0.406000000000000194,-0.071821752521060933
0.407000000000000195,0.122750435972038122
0.408000000000000196,0.317669748477300895
0.409000000000000197,0.512771271372180593
0.410000000000000198,0.707890655062449747
0.411000000000000199,0.902864408427968335
0.412000000000000199,1.097530180480936535
0.413000000000000200,1.291727029175641528
0.414000000000000201,1.485295677347304721
0.415000000000000202,1.678078755793403376
0.416000000000000203,1.869921033543739286
0.417000000000000204,2.060669635397409660
0.418000000000000205,2.250174246832529867
0.419000000000000206,2.438287306421602629
0.420000000000000207,2.624864185909932424
0.421000000000000207,2.809763358135853650
0.422000000000000208,2.992846552993137177
0.423000000000000209,3.173978901653049967
0.424000000000000210,3.353029069281158847
0.425000000000000211,3.529869376498254496
0.426000000000000212,3.704375909848244053
0.427000000000000213,3.876428621547530096
0.428000000000000214,4.045911418800342219
0.429000000000000214,4.212712242973726262
0.430000000000000215,4.376723138932898216
0.431000000000000216,4.537840314843882616
0.432000000000000217,4.695964192755831768
0.433000000000000218,4.850999450278666636
0.434000000000000219,5.002855053674908348
0.435000000000000220,5.151444282686303389
0.436000000000000221,5.296684747416831485
0.437000000000000222,5.438498397593697575
0.438000000000000222,5.576811524527231612
0.439000000000000223,5.711554756089080698
0.440000000000000224,5.842663045026166735
0.441000000000000225,5.970075650924941080
0.442000000000000226,6.093736116136911463
0.443000000000000227,6.213592235973159461
0.444000000000000228,6.329596023470513089
0.445000000000000229,6.441703669027774026
0.446000000000000230,6.549875495204778630
0.447000000000000230,6.654075906971973708
0.448000000000000231,6.754273337691904189
0.449000000000000232,6.850440191108094545
0.450000000000000233,6.942552779610432268
0.451000000000000234,7.030591259039319141
0.452000000000000235,7.114539560284397268
0.453000000000000236,7.194385317926487389
0.454000000000000237,7.270119796164228099
0.455000000000000238,7.341737812260075380
0.456000000000000238,7.409237657732637317
0.457000000000000239,7.472621017515427511
0.458000000000000240,7.531892887294327821
0.459000000000000241,7.587061489229222744
0.460000000000000242,7.638138186257338980
0.461000000000000243,7.685137395169000740
0.462000000000000244,7.728076498638846381
0.463000000000000245,7.766975756388541541
0.464000000000000246,7.801858215649680517
0.465000000000000246,7.832749621088500369
0.466000000000000247,7.859678324347058265
0.467000000000000248,7.882675193348606335
0.468000000000000249,7.901773521507891473
0.469000000000000250,7.917008936980638900
0.470000000000000251,7.928419312079758363
0.471000000000000252,7.936044672979376102
0.472000000000000253,7.939927109821423024
0.473000000000000254,7.940110687333406858
0.474000000000000254,7.936641356059932484
0.475000000000000255,7.929566864304463891
0.476000000000000256,7.918936670872421146
0.477000000000000257,7.904801858700702510
0.478000000000000258,7.887215049453533133
0.479000000000000259,7.866230319159276618
0.480000000000000260,7.841903114957455401
0.481000000000000261,7.814290173020578933
0.482000000000000262,7.783449437710227237
0.483000000000000262,7.749439982022559903
0.484000000000000263,7.712321929373461060
0.485000000000000264,7.672156376769697417
0.486000000000000265,7.629005319407729857
0.487000000000000266,7.582931576738230817
0.488000000000000267,7.533998720030321117
0.489000000000000268,7.482271001465595539
0.490000000000000269,7.427813284788845394
0.491000000000000270,7.370690977538512989
0.492000000000000270,7.310969964876934846
0.493000000000000271,7.248716545037067860
0.494000000000000272,7.183997366399630380
0.495000000000000273,7.116879366211216862
0.496000000000000274,7.047429710951922388
0.497000000000000275,6.975715738357780360
0.498000000000000276,6.901804901100976330
0.499000000000000277,6.825764712128841616
0.500000000000000222,6.747662691659606082
0.501000000000000334,6.667566315831711776
0.502000000000000224,6.585542967000610481
0.503000000000000336,6.501659885675610262
0.504000000000000226,6.415984124087520613
0.505000000000000338,6.328582501375686675
0.506000000000000227,6.239521560382231158
0.507000000000000339,6.148867526038927167
0.508000000000000229,6.056686265331705954
0.509000000000000341,5.963043248825366405
0.510000000000000231,5.868003513731259169
0.511000000000000343,5.771631628498015587
0.512000000000000233,5.673991658906047952
0.513000000000000345,5.575147135643816476
0.514000000000000234,5.475161023344769617
0.515000000000000346,5.374095691061408608
0.516000000000000236,5.272012884153731704
0.517000000000000348,5.168973697567105674
0.518000000000000238,5.065038550475670753
0.519000000000000350,4.960267162265120433
0.520000000000000240,4.854718529829961327
0.521000000000000352,4.748450906158295126
0.522000000000000242,4.641521780178403667
0.523000000000000353,4.533987857839406388
0.524000000000000243,4.425905044399902621
0.525000000000000355,4.317328427896380383
0.526000000000000245,4.208312263764798722
0.527000000000000357,4.098909960586952117
0.528000000000000247,3.989174066934773943
0.529000000000000359,3.879156259284270991
0.530000000000000249,3.768907330971857927
0.531000000000000361,3.658477182165095876
0.532000000000000250,3.547914810820701259
0.533000000000000362,3.437268304601750035
0.534000000000000252,3.326584833727578516
0.535000000000000364,3.215910644728094958
0.536000000000000254,3.105291055076784268
0.537000000000000366,2.994770448674331842
0.538000000000000256,2.884392272157430437
0.539000000000000368,2.774199032005499888
0.540000000000000258,2.664232292420162018
0.541000000000000369,2.554532673950762334
0.542000000000000259,2.445139852841547334
0.543000000000000371,2.336092561074370799
0.544000000000000261,2.227428587082851852
0.545000000000000373,2.119184777113107820
0.546000000000000263,2.011397037207416361
0.547000000000000375,1.904100335786356180
0.548000000000000265,1.797328706807167276
0.549000000000000377,1.691115253474183788
0.550000000000000266,1.585492152479942352
0.551000000000000378,1.480490658753853994
0.552000000000000268,1.376141110697481018
0.553000000000000380,1.272472935884521261
0.554000000000000270,1.169514657205126706
0.555000000000000382,1.067293899433554127
0.556000000000000272,0.965837396199668796
0.557000000000000384,0.865170997344222537
0.558000000000000274,0.765319676639062196
0.559000000000000385,0.666307539853261854
0.560000000000000275,0.568157833147180491
0.561000000000000387,0.470892951776153978
0.562000000000000277,0.374534449086909194
0.563000000000000389,0.279103045789065252
0.564000000000000279,0.184618639485767705
0.565000000000000391,0.091100314446697125
0.566000000000000281,-0.001433648391672815
0.567000000000000393,-0.092965761214513304
0.568000000000000282,-0.183479318920035744
0.569000000000000394,-0.272958388528976914
0.570000000000000284,-0.361387798425439888
0.571000000000000396,-0.448753127443715372
0.572000000000000286,-0.535040693813390034
0.573000000000000398,-0.620237543976345784
0.574000000000000288,-0.704331441287538440
0.575000000000000400,-0.787310854612190747
0.576000000000000290,-0.869164946830450647
0.577000000000000401,-0.949883563261530339
0.578000000000000291,-1.029457220017614416
0.579000000000000403,-1.107877092298638289
0.580000000000000293,-1.185135002637687229
0.581000000000000405,-1.261223409107450122
0.582000000000000295,-1.336135393496482582
0.583000000000000407,-1.409864649465322861
0.584000000000000297,-1.482405470690404403
0.585000000000000409,-1.553752739005134220
0.586000000000000298,-1.623901912545479664
0.587000000000000410,-1.692849013908733324
0.588000000000000300,-1.760590618332249280
0.589000000000000412,-1.827123841900102574
0.590000000000000302,-1.892446329783977532
0.591000000000000414,-1.956556244525529120
0.592000000000000304,-2.019452254366088884
0.593000000000000416,-2.081133521630198935
0.594000000000000306,-2.141599691168504460
0.595000000000000417,-2.200850878865865834
0.596000000000000307,-2.258887660219588867
0.597000000000000419,-2.315711058993259019
0.598000000000000309,-2.371322535950678656
0.599000000000000421,-2.425723977674518750
0.600000000000000311,-2.478917685474093524
0.601000000000000423,-2.530906364386378282
0.602000000000000313,-2.581693112273837354
0.603000000000000425,-2.631281409023294326
0.604000000000000314,-2.679675105848602357
0.605000000000000426,-2.726878414701014997
0.606000000000000316,-2.772895897789759090
0.607000000000000428,-2.817732457216041819
0.608000000000000318,-2.861393324722949494
0.609000000000000430,-2.903884051563850210
0.610000000000000320,-2.945210498491420026
0.611000000000000432,-2.985378825869725361
0.612000000000000322,-3.024395483910972793
0.613000000000000433,-3.062267203039069408
0.614000000000000323,-3.099000984381429458
0.615000000000000435,-3.134604090390674447
0.616000000000000325,-3.169084035597374172
0.617000000000000437,-3.202448577495404347
0.618000000000000327,-3.234705707560613153
0.619000000000000439,-3.265863642404036593
0.620000000000000329,-3.295930815060362562
0.621000000000000441,-3.324915866412349708
0.622000000000000330,-3.352827636751843698
0.623000000000000442,-3.379675157477879388
0.624000000000000332,-3.405467642932053174
0.625000000000000444,-3.430214482371759743
0.626000000000000334,-3.453925232081103136
0.627000000000000446,-3.476609607619808973
0.628000000000000336,-3.498277476209950887
0.629000000000000448,-3.518938849260505375
0.630000000000000338,-3.538603875029324719
0.631000000000000449,-3.557282831422550196
0.632000000000000339,-3.574986118930808310
0.633000000000000451,-3.591724253701918279
0.634000000000000341,-3.607507860749511686
0.635000000000000453,-3.622347667297165064
0.636000000000000343,-3.636254496257065316
0.637000000000000455,-3.649239259842930405
0.638000000000000345,-3.661312953315989827
0.639000000000000457,-3.672486648863571013
0.640000000000000346,-3.682771489609148574
0.641000000000000458,-3.692178683753120083
0.642000000000000348,-3.700719498843186184
0.643000000000000460,-3.708405256173441522
0.644000000000000350,-3.715247325311015203
0.645000000000000462,-3.721257118749225157
0.646000000000000352,-3.726446086686042491
0.647000000000000464,-3.730825711926795130
0.648000000000000353,-3.734407504909763365
0.649000000000000465,-3.737202998853526026
0.650000000000000355,-3.739223745024764067
0.651000000000000467,-3.740481308125153337
0.652000000000000357,-3.740987261796199448
0.653000000000000469,-3.740753184240369844
0.654000000000000359,-3.739790653957532296
0.655000000000000471,-3.738111245594955001
0.656000000000000361,-3.735726525909682572
0.657000000000000473,-3.732648049841787774
0.658000000000000362,-3.728887356697055733
0.659000000000000474,-3.724455966437673737
0.660000000000000364,-3.719365376079425634
0.661000000000000476,-3.713627056193963050
0.662000000000000366,-3.707252447514623128
0.663000000000000478,-3.700252957644310392
0.664000000000000368,-3.692639957863963041
0.665000000000000480,-3.684424780040107983
