# Ag100_CS-234-AC
# h[nm],U(h)[kJ/mol]
0.149999999999999994,132.923887209574985491
0.150999999999999995,130.800824251587101799
0.151999999999999996,126.735481973828456148
0.152999999999999997,122.321724561077331828
0.153999999999999998,118.183659091260167884
0.154999999999999999,114.462139254727205184
0.156000000000000000,111.090675802969784058
0.157000000000000001,107.942023941763324046
0.158000000000000002,104.898050666084458271
0.159000000000000002,101.876242038349246855
0.160000000000000003,98.833459699359821116
0.161000000000000004,95.759239280382928428
0.162000000000000005,92.665604556376123924
0.163000000000000006,89.577054652013984537
0.164000000000000007,86.522382870387986031
0.165000000000000008,83.528838454308981909
0.166000000000000009,80.618532672643453907
0.167000000000000010,77.806709258098550208
0.168000000000000010,75.101409939031512408
0.169000000000000011,72.504081289715443859
0.170000000000000012,70.010735058838889699
0.171000000000000013,67.613358046160627168
0.172000000000000014,65.301351178361343841
0.173000000000000015,63.062851363287890649
0.174000000000000016,60.885850154812331425
0.175000000000000017,58.759069626869873559
0.176000000000000018,56.672589255803906383
0.177000000000000018,54.618239970845856135
0.178000000000000019,52.589795024613536611
0.179000000000000020,50.582994057188116699
0.180000000000000021,48.595438540560245144
0.181000000000000022,46.626395253548551523
0.182000000000000023,44.676540796088389129
0.183000000000000024,42.747675360302956449
0.184000000000000025,40.842428734523323897
0.185000000000000026,38.963976314982069482
0.186000000000000026,37.115778059094289176
0.187000000000000027,35.301349024602821203
0.188000000000000028,33.524066493874080663
0.189000000000000029,31.787015706287842676
0.190000000000000030,30.092873890641772761
0.191000000000000031,28.443830550418898184
0.192000000000000032,26.841540737277746587
0.193000000000000033,25.287107274418154645
0.194000000000000034,23.781087483051386755
0.195000000000000034,22.323519847339881039
0.196000000000000035,20.913966157752618358
0.197000000000000036,19.551564939781979291
0.198000000000000037,18.235092353070747606
0.199000000000000038,16.963027192544466004
0.200000000000000039,15.733617103657200786
0.201000000000000040,14.544943611319586907
0.202000000000000041,13.394984036051676313
0.203000000000000042,12.281668816626913454
0.204000000000000042,11.202933165939372273
0.205000000000000043,10.156762349938833978
0.206000000000000044,9.141230195253816859
0.207000000000000045,8.154530699018565087
0.208000000000000046,7.195002835711896694
0.209000000000000047,6.261148833103885814
0.210000000000000048,5.351646326182577518
0.211000000000000049,4.465354898242138049
0.212000000000000050,3.601317586471223908
0.213000000000000050,2.758757969773749874
0.214000000000000051,1.937073473462187723
0.215000000000000052,1.135825522961871226
0.216000000000000053,0.354727160530844743
0.217000000000000054,-0.406371291330946627
0.218000000000000055,-1.147497975568869677
0.219000000000000056,-1.868576157040904295
0.220000000000000057,-2.569441341470783513
0.221000000000000058,-3.249858460768719759
0.222000000000000058,-3.909538781312994704
0.223000000000000059,-4.548156243698887380
0.224000000000000060,-5.165362992536943310
0.225000000000000061,-5.760803902315648983
0.226000000000000062,-6.334129949547476102
0.227000000000000063,-6.885010321991865467
0.228000000000000064,-7.413143192447636309
0.229000000000000065,-7.918265117320927970
0.230000000000000066,-8.400159048893504732
0.231000000000000066,-8.858660975025795636
0.232000000000000067,-9.293665221074473237
0.233000000000000068,-9.705128466288410749
0.234000000000000069,-10.093072541104207929
0.235000000000000070,-10.457586082855964804
0.236000000000000071,-10.798825135718303159
0.237000000000000072,-11.117012786500506394
0.238000000000000073,-11.412437931482466880
0.239000000000000073,-11.685453271104924156
0.240000000000000074,-11.936472629263985112
0.241000000000000075,-12.165967692459913607
0.242000000000000076,-12.374464261349968908
0.243000000000000077,-12.562538103571224468
0.244000000000000078,-12.730810492229741371
0.245000000000000079,-12.879943509377270061
0.246000000000000080,-13.010635188277740681
0.247000000000000081,-13.123614562445686360
0.248000000000000081,-13.219636683442397285
0.249000000000000082,-13.299477663352561763
0.250000000000000111,-13.363929791827402482
0.251000000000000112,-13.413796771647431783
0.252000000000000113,-13.449889110996059216
0.253000000000000114,-13.473019705094126053
0.254000000000000115,-13.483999634571109283
0.255000000000000115,-13.483634202968840299
0.256000000000000116,-13.472719231114998806
0.257000000000000117,-13.452037621779822985
0.258000000000000118,-13.422356204049581407
0.259000000000000119,-13.384422863218327748
0.260000000000000120,-13.338963958712875879
0.261000000000000121,-13.286682029618120282
0.262000000000000122,-13.228253784753352562
0.263000000000000123,-13.164328371950650975
0.264000000000000123,-13.095525919191922881
0.265000000000000124,-13.022436338553120549
0.266000000000000125,-12.945618382468655483
0.267000000000000126,-12.865598940644568771
0.268000000000000127,-12.782872565000628740
0.269000000000000128,-12.697901209288016133
0.270000000000000129,-12.611114169493827575
0.271000000000000130,-12.522908210787280225
0.272000000000000131,-12.433647866568046325
0.273000000000000131,-12.343665895126791909
0.274000000000000132,-12.253263879506272716
0.275000000000000133,-12.162712956342135229
0.276000000000000134,-12.072254659750850436
0.277000000000000135,-11.982101866705074045
0.278000000000000136,-11.892439830780670462
0.279000000000000137,-11.803427291662062615
0.280000000000000138,-11.715197648344744863
0.281000000000000139,-11.627860184562152313
0.282000000000000139,-11.541501335582985632
0.283000000000000140,-11.456185986163552215
0.284000000000000141,-11.371958790091472480
0.285000000000000142,-11.288845502415480127
0.286000000000000143,-11.206854316114478465
0.287000000000000144,-11.125977195612707149
0.288000000000000145,-11.046191200192600590
0.289000000000000146,-10.967459790987579282
0.290000000000000147,-10.889734115851750218
0.291000000000000147,-10.812954266998197284
0.292000000000000148,-10.737050506870843947
0.293000000000000149,-10.661944458264120072
0.294000000000000150,-10.587550255228828533
0.295000000000000151,-10.513775651800932209
0.296000000000000152,-10.440523086060311542
0.297000000000000153,-10.367690697470546723
0.298000000000000154,-10.295173295865879481
0.299000000000000155,-10.222863280839877831
0.300000000000000155,-10.150651510650515519
0.301000000000000156,-10.078428120089874653
0.302000000000000157,-10.006083287073499477
0.303000000000000158,-9.933507947985315667
0.304000000000000159,-9.860594462070263688
0.305000000000000160,-9.787237225398037310
0.306000000000000161,-9.713333235130329868
0.307000000000000162,-9.638782605010050020
0.308000000000000163,-9.563489033155875063
0.309000000000000163,-9.487360223390943759
0.310000000000000164,-9.410308261460059498
0.311000000000000165,-9.332249947597869522
0.312000000000000166,-9.253107087002000242
0.313000000000000167,-9.172806739840210000
0.314000000000000168,-9.091281432481689961
0.315000000000000169,-9.008469331689706650
0.316000000000000170,-8.924314383547535812
0.317000000000000171,-8.838766418912571865
0.318000000000000171,-8.751781227205759350
0.319000000000000172,-8.663320600346491318
0.320000000000000173,-8.573352348636722908
0.321000000000000174,-8.481850290384013391
0.322000000000000175,-8.388794217031994904
0.323000000000000176,-8.294169835539179303
0.324000000000000177,-8.197968689713500012
0.325000000000000178,-8.100188062171802983
0.326000000000000179,-8.000830858551026381
0.327000000000000179,-7.899905475551106449
0.328000000000000180,-7.797425654340197632
0.329000000000000181,-7.693410320801051583
0.330000000000000182,-7.587883414042065233
0.331000000000000183,-7.480873704541606273
0.332000000000000184,-7.372414603235844410
0.333000000000000185,-7.262543962802690878
0.334000000000000186,-7.151303872335304845
0.335000000000000187,-7.038740446539530460
0.336000000000000187,-6.924903610530741105
0.337000000000000188,-6.809846881246504502
0.338000000000000189,-6.693627146433600572
0.339000000000000190,-6.576304442110222581
0.340000000000000191,-6.457941729347450810
0.341000000000000192,-6.338604671159302484
0.342000000000000193,-6.218361410235423214
0.343000000000000194,-6.097282348198635127
0.344000000000000195,-5.975439927017292874
0.345000000000000195,-5.852908413153175893
0.346000000000000196,-5.729763684977024596
0.347000000000000197,-5.606083023937415533
0.348000000000000198,-5.481944909923965881
0.349000000000000199,-5.357428821222542936
0.350000000000000200,-5.232615039419297176
0.351000000000000201,-5.107584459570460922
0.352000000000000202,-4.982418405917555582
0.353000000000000203,-4.857198453391736059
0.354000000000000203,-4.732006255116782967
0.355000000000000204,-4.606923376088289501
0.356000000000000205,-4.482031133175906845
0.357000000000000206,-4.357410441566773152
0.358000000000000207,-4.233141667741134206
0.359000000000000208,-4.109304489045851660
0.360000000000000209,-3.985977759907566309
0.361000000000000210,-3.863239384705067891
0.362000000000000210,-3.741166197299727436
0.363000000000000211,-3.619833847203592025
0.364000000000000212,-3.499316692347009816
0.365000000000000213,-3.379687698390996697
0.366000000000000214,-3.261018344514769574
0.367000000000000215,-3.143378535594721690
0.368000000000000216,-3.026836520678778619
0.369000000000000217,-2.911458817648369557
0.370000000000000218,-2.797310143950187289
0.371000000000000218,-2.684453353270365827
0.372000000000000219,-2.572949378015729760
0.373000000000000220,-2.462857177459234048
0.374000000000000221,-2.354233691400583695
0.375000000000000222,-2.247133799187232661
0.376000000000000223,-2.141610283936522752
0.377000000000000224,-2.037713801795595359
0.378000000000000225,-1.935492856072656975
0.379000000000000226,-1.834993776070488636
0.380000000000000226,-1.736260700451387695
0.381000000000000227,-1.639335564961190261
0.382000000000000228,-1.544258094339511667
0.383000000000000229,-1.451065798242999083
0.384000000000000230,-1.359793971008498081
0.385000000000000231,-1.270475695084079648
0.386000000000000232,-1.183141847956556969
0.387000000000000233,-1.097821112405873656
0.388000000000000234,-1.014539989918387786
0.389000000000000234,-0.933322817093395374
0.390000000000000235,-0.854191784879284044
0.391000000000000236,-0.777166960478890556
0.392000000000000237,-0.702266311765939788
0.393000000000000238,-0.629505734058078636
0.394000000000000239,-0.558899079094898887
0.395000000000000240,-0.490458186073028823
0.396000000000000241,-0.424192914593847004
0.397000000000000242,-0.360111179383091728
0.398000000000000242,-0.298218986645503115
0.399000000000000243,-0.238520471921464777
0.400000000000000244,-0.181017939316465010
0.401000000000000245,-0.125711901978616758
0.402000000000000246,-0.072601123702983286
0.403000000000000247,-0.021682661545896598
0.404000000000000248,0.027048090663484171
0.405000000000000249,0.073597358023148776
0.406000000000000250,0.117972939574351884
0.407000000000000250,0.160184162734393010
0.408000000000000251,0.200241837242601944
0.409000000000000252,0.238158208711913760
0.410000000000000253,0.273946911874692389
0.411000000000000254,0.307622923607206000
0.412000000000000255,0.339202515813649019
0.413000000000000256,0.368703208246425829
0.414000000000000257,0.396143721336042753
0.415000000000000258,0.421543929099917114
0.416000000000000258,0.444924812196106134
0.417000000000000259,0.466308411184233940
0.418000000000000260,0.485717780052539183
0.419000000000000261,0.503176940066619505
0.420000000000000262,0.518710833992078513
0.421000000000000263,0.532345280740131654
0.422000000000000264,0.544106930482228135
0.423000000000000265,0.554023220276548156
0.424000000000000266,0.562122330246370150
0.425000000000000266,0.568433140347574639
0.426000000000000267,0.572985187759667447
0.427000000000000268,0.575808624932078517
0.428000000000000269,0.576934178314986723
0.429000000000000270,0.576393107801421722
0.430000000000000271,0.574217166904904097
0.431000000000000272,0.570438563694795842
0.432000000000000273,0.565089922509120379
0.433000000000000274,0.558204246462631004
0.434000000000000274,0.549814880765739034
0.435000000000000275,0.539955476868149598
0.436000000000000276,0.528659957438961992
0.437000000000000277,0.515962482193385030
0.438000000000000278,0.501897414574424161
0.439000000000000279,0.486499289296265958
0.440000000000000280,0.469802780754562832
0.441000000000000281,0.451842672307402382
0.442000000000000282,0.432653826429124588
0.443000000000000282,0.412271155738170580
0.444000000000000283,0.390729594898505506
0.445000000000000284,0.368064073393258917
0.446000000000000285,0.344309489167970939
0.447000000000000286,0.319500683139715302
0.448000000000000287,0.293672414567537898
0.449000000000000288,0.266859337278537445
0.450000000000000289,0.239095976743110394
0.451000000000000290,0.210416707992093915
0.452000000000000290,0.180855734367671467
0.453000000000000291,0.150447067099273385
0.454000000000000292,0.119224505694987368
0.455000000000000293,0.087221619138389730
0.456000000000000294,0.054471727880145829
0.457000000000000295,0.021007886613208397
0.458000000000000296,-0.013137132180119953
0.459000000000000297,-0.047930853921255283
0.460000000000000298,-0.083341116881205546
0.461000000000000298,-0.119336086391903032
0.462000000000000299,-0.155884268336434373
0.463000000000000300,-0.192954521931453210
0.464000000000000301,-0.230516071815649370
0.465000000000000302,-0.268538519458129676
0.466000000000000303,-0.306991853901016076
0.467000000000000304,-0.345846461850403186
0.468000000000000305,-0.385073137130278464
0.469000000000000306,-0.424643089513909722
0.470000000000000306,-0.464527952947322409
0.471000000000000307,-0.504699793179631762
0.472000000000000308,-0.545131114814942253
0.473000000000000309,-0.585794867800597419
0.474000000000000310,-0.626664453366443830
0.475000000000000311,-0.667713729430060576
0.476000000000000312,-0.708917015482313451
0.477000000000000313,-0.750249096968216955
0.478000000000000314,-0.791685229177371608
0.479000000000000314,-0.833201140658632489
0.480000000000000315,-0.874773036173246865
0.481000000000000316,-0.916377599200801418
0.482000000000000317,-0.957991994012008297
0.483000000000000318,-0.999593867322368768
0.484000000000000319,-1.041161349540498104
0.485000000000000320,-1.082673055624792990
0.486000000000000321,-1.124108085561931647
0.487000000000000322,-1.165446024480506715
0.488000000000000322,-1.206666942412953691
0.489000000000000323,-1.247751393718644186
0.490000000000000324,-1.288680416180975952
0.491000000000000325,-1.329435529790909731
0.492000000000000326,-1.369998735229323916
0.493000000000000327,-1.410352512060272900
0.494000000000000328,-1.450479816647056053
0.495000000000000329,-1.490364079802775077
0.496000000000000330,-1.529989204186782858
0.497000000000000330,-1.569339561458323207
0.498000000000000331,-1.608399989198284530
0.499000000000000332,-1.647155787609814626
0.500000000000000333,-1.685592716008425640
0.501000000000000334,-1.723696989111781264
0.502000000000000335,-1.761455273139281630
0.503000000000000336,-1.798854681731248517
0.504000000000000337,-1.835882771697354698
0.505000000000000338,-1.872527538603586894
0.506000000000000338,-1.908777412206935864
0.507000000000000339,-1.944621251746700752
0.508000000000000340,-1.980048341101046772
0.509000000000000341,-2.015048383817283018
0.510000000000000342,-2.049611498024058953
0.511000000000000343,-2.083728211233490502
0.512000000000000344,-2.117389455040943780
0.513000000000000345,-2.150586559730018443
0.514000000000000346,-2.183311248790124726
0.515000000000000346,-2.215555633353637699
0.516000000000000347,-2.247312206559613834
0.517000000000000348,-2.278573837850728090
0.518000000000000349,-2.309333767209879262
0.519000000000000350,-2.339585599342728806
0.520000000000000351,-2.369323297812278906
0.521000000000000352,-2.398541179131306045
0.522000000000000353,-2.427233906818293541
0.523000000000000353,-2.455396485422437713
0.524000000000000354,-2.483024254522868013
0.525000000000000355,-2.510112882707313808
0.526000000000000356,-2.536658361534999351
0.527000000000000357,-2.562656999488590159
0.528000000000000358,-2.588105415919763175
0.529000000000000359,-2.613000534992626633
0.530000000000000360,-2.637339579629403907
0.531000000000000361,-2.661120065462285744
0.532000000000000361,-2.684339794795405520
0.533000000000000362,-2.706996850580599911
0.534000000000000363,-2.729089590410594734
0.535000000000000364,-2.750616640532981716
0.536000000000000365,-2.771576889888262230
0.537000000000000366,-2.791969484175099492
0.538000000000000367,-2.811793819945729744
0.539000000000000368,-2.831049538734414561
0.540000000000000369,-2.849736521221606811
0.541000000000000369,-2.867854881436429082
0.542000000000000370,-2.885404960999894186
0.543000000000000371,-2.902387323411220965
0.544000000000000372,-2.918802748379420997
0.545000000000000373,-2.934652226202250525
0.546000000000000374,-2.949936952194520678
0.547000000000000375,-2.964658321167564115
0.548000000000000376,-2.978817921961701920
0.549000000000000377,-2.992417532033259775
0.550000000000000377,-3.005459112097752516
0.551000000000000378,-3.017944800830621777
0.552000000000000379,-3.029876909626938009
0.553000000000000380,-3.041257917421253509
0.554000000000000381,-3.052090465568816136
0.555000000000000382,-3.062377352789240170
0.556000000000000383,-3.072121530173537174
0.557000000000000384,-3.081326096255536662
0.558000000000000385,-3.089994292148425359
0.559000000000000385,-3.098129496747232814
0.560000000000000386,-3.105735221997892204
0.561000000000000387,-3.112815108233529138
0.562000000000000388,-3.119372919578471848
0.563000000000000389,-3.125412539420522329
0.564000000000000390,-3.130937965951809066
0.565000000000000391,-3.135953307778660992
0.566000000000000392,-3.140462779600729171
0.567000000000000393,-3.144470697959624417
0.568000000000000393,-3.147981477057193889
0.569000000000000394,-3.150999624643637809
0.570000000000000395,-3.153529737975491631
0.571000000000000396,-3.155576499843464777
0.572000000000000397,-3.157144674670193663
0.573000000000000398,-3.158239104677787790
0.574000000000000399,-3.158864706125046773
0.575000000000000400,-3.159026465614247492
0.576000000000000401,-3.158729436467239804
0.577000000000000401,-3.157978735170709594
0.578000000000000402,-3.156779537890250786
0.579000000000000403,-3.155137077053005612
0.580000000000000404,-3.153056637998537859
0.581000000000000405,-3.150543555697538523
0.582000000000000406,-3.147603211538023693
0.583000000000000407,-3.144241030178530849
0.584000000000000408,-3.140462476467972941
0.585000000000000409,-3.136273052431550745
0.586000000000000409,-3.131678294322318923
0.587000000000000410,-3.126683769737872431
0.588000000000000411,-3.121295074801547109
0.589000000000000412,-3.115517831407687233
0.590000000000000413,-3.109357684530271726
0.591000000000000414,-3.102820299594398534
0.592000000000000415,-3.095911359909990335
0.593000000000000416,-3.088636564167038134
0.594000000000000417,-3.081001623991812099
0.595000000000000417,-3.073012261563354830
0.596000000000000418,-3.064674207289540320
0.597000000000000419,-3.055993197542117734
0.598000000000000420,-3.046974972449925989
0.599000000000000421,-3.037625273749687160
0.600000000000000422,-3.027949842693593574
0.601000000000000423,-3.017954418012995355
0.602000000000000424,-3.007644733937465009
0.603000000000000425,-2.997026518268527173
0.604000000000000425,-2.986105490507228843
0.605000000000000426,-2.974887360034937256
0.606000000000000427,-2.963377824346518530
0.607000000000000428,-2.951582567335140794
0.608000000000000429,-2.939507257628062753
0.609000000000000430,-2.927157546972477764
0.610000000000000431,-2.914539068670827682
0.611000000000000432,-2.901657436064686291
0.612000000000000433,-2.888518241066529324
