# Ag100_CS-7610-AC
# h[nm],U(h)[kJ/mol]
0.149999999999999994,130.232919475054984559
0.150999999999999995,127.678513303561061321
0.151999999999999996,123.643007629899940980
0.152999999999999997,119.364865861639373179
0.153999999999999998,115.327206715788562974
0.154999999999999999,111.636762182658415554
0.156000000000000000,108.239078689734384398
0.157000000000000001,105.032945996930862975
0.158000000000000002,101.924928079087891319
0.159000000000000002,98.849983856320903897
0.160000000000000003,95.774272387074702806
0.161000000000000004,92.689765372538005295
0.162000000000000005,89.606138805354504484
0.163000000000000006,86.542819705692267007
0.164000000000000007,83.522494812920214713
0.165000000000000008,80.566484679964702309
0.166000000000000009,77.691904685811465470
0.167000000000000010,74.910311179057174513
0.168000000000000010,72.227459455240108355
0.169000000000000011,69.643811936170394006
0.170000000000000012,67.155486905806810682
0.171000000000000013,64.755404719554036319
0.172000000000000014,62.434454951908286091
0.173000000000000015,60.182566989263570179
0.174000000000000016,57.989614989757889418
0.175000000000000017,55.846125366385535926
0.176000000000000018,53.743781846283731340
0.177000000000000018,51.675741220148438515
0.178000000000000019,49.636783833904758012
0.179000000000000020,47.623328356419300178
0.180000000000000021,45.633341868437135247
0.181000000000000022,43.666175108556601003
0.182000000000000023,41.722349784473152567
0.183000000000000024,39.803320983206539552
0.184000000000000025,37.911233461197298311
0.185000000000000026,36.048686363316832626
0.186000000000000026,34.218516972224122696
0.187000000000000027,32.423610583846873112
0.188000000000000028,30.666740619791681866
0.189000000000000029,28.950440645099963177
0.190000000000000030,27.276908042906040208
0.191000000000000031,25.647937664221011289
0.192000000000000032,24.064882764956347927
0.193000000000000033,22.528639900633308457
0.194000000000000034,21.039654108305132496
0.195000000000000034,19.597940604155102307
0.196000000000000035,18.203119308315386604
0.197000000000000036,16.854458726425587400
0.198000000000000037,15.550926028079530283
0.199000000000000038,14.291240530377603335
0.200000000000000039,13.073928191762828277
0.201000000000000040,11.897375124726272233
0.202000000000000041,10.759878528787481855
0.203000000000000042,9.659693815028070674
0.204000000000000042,8.595077031953463731
0.205000000000000043,7.564322004400708011
0.206000000000000044,6.565791860008848957
0.207000000000000045,5.597944840875934247
0.208000000000000046,4.659354482419820975
0.209000000000000047,3.748724389236234522
0.210000000000000048,2.864897951759329153
0.211000000000000049,2.006863431108308227
0.212000000000000050,1.173754896215242871
0.213000000000000050,0.364849530816238332
0.214000000000000051,-0.420438158290892983
0.215000000000000052,-1.182564702764667963
0.216000000000000053,-1.921868090611424718
0.217000000000000054,-2.638579752838128734
0.218000000000000055,-3.332837664705917913
0.219000000000000056,-4.004700146277990314
0.220000000000000057,-4.654159989265777675
0.221000000000000058,-5.281158581284273623
0.222000000000000058,-5.885599743167260200
0.223000000000000059,-6.467363038838715106
0.224000000000000060,-7.026316359510504483
0.225000000000000061,-7.562327623997060932
0.226000000000000062,-8.075275474208439164
0.227000000000000063,-8.565058879064576303
0.228000000000000064,-9.031605590956846896
0.229000000000000065,-9.474879426375114377
0.230000000000000066,-9.894886366410771572
0.231000000000000066,-10.291679493612853946
0.232000000000000067,-10.665362799237332325
0.233000000000000068,-11.016093909463501532
0.234000000000000069,-11.344085790854956386
0.235000000000000070,-11.649607504441203076
0.236000000000000071,-11.932984084523685198
0.237000000000000072,-12.194595622909538690
0.238000000000000073,-12.434875641986838701
0.239000000000000073,-12.654308841111243211
0.240000000000000074,-12.853428300404761586
0.241000000000000075,-13.032812224483574681
0.242000000000000076,-13.193080306037003879
0.243000000000000077,-13.334889785759022729
0.244000000000000078,-13.458931281057425977
0.245000000000000079,-13.565924451386848659
0.246000000000000080,-13.656613563110692411
0.247000000000000081,-13.731763011613855596
0.248000000000000081,-13.792152853071641516
0.249000000000000082,-13.838574392922641465
0.250000000000000111,-13.871825872774968147
0.251000000000000112,-13.892708292262074821
0.252000000000000113,-13.902021397313152562
0.253000000000000114,-13.900559861456647681
0.254000000000000115,-13.889109682172369631
0.255000000000000115,-13.868444809970821296
0.256000000000000116,-13.839324023831366617
0.257000000000000117,-13.802488062882593667
0.258000000000000118,-13.758657020768069401
0.259000000000000119,-13.708528006009569111
0.260000000000000120,-13.652773068855836414
0.261000000000000121,-13.592037392581460153
0.262000000000000122,-13.526937744969874444
0.263000000000000123,-13.458061183764574054
0.264000000000000123,-13.385964008191226782
0.265000000000000124,-13.311170947225244632
0.266000000000000125,-13.234174574090241450
0.267000000000000126,-13.155434935505081029
0.268000000000000127,-13.075379383435977942
0.269000000000000128,-12.994402596537492300
0.270000000000000129,-12.912866778066879547
0.271000000000000130,-12.831102016812721445
0.272000000000000131,-12.749406797476826370
0.273000000000000131,-12.668048646971051596
0.274000000000000132,-12.587264903225142021
0.275000000000000133,-12.507263593332959672
0.276000000000000134,-12.428224408179580962
0.277000000000000135,-12.350299761079334360
0.278000000000000136,-12.273615918402233760
0.279000000000000137,-12.198274190663713767
0.280000000000000138,-12.124352173090459317
0.281000000000000139,-12.051905025243392799
0.282000000000000139,-11.980966779871035754
0.283000000000000140,-11.911551671773672467
0.284000000000000141,-11.843655478075367782
0.285000000000000142,-11.777256861920683662
0.286000000000000143,-11.712318712230612050
0.287000000000000144,-11.648789472763205310
0.288000000000000145,-11.586604454325424740
0.289000000000000146,-11.525687124568746000
0.290000000000000147,-11.465950370371164269
0.291000000000000147,-11.407297728358273048
0.292000000000000148,-11.349624579645437805
0.293000000000000149,-11.292819305388947626
0.294000000000000150,-11.236764400215990989
0.295000000000000151,-11.181337541060551999
0.296000000000000152,-11.126412609363082851
0.297000000000000153,-11.071860664997602797
0.298000000000000154,-11.017550870668628704
0.299000000000000155,-10.963351365873776899
0.300000000000000155,-10.909130089855166190
0.301000000000000156,-10.854755553264894274
0.302000000000000157,-10.800097558547239629
0.303000000000000158,-10.745027869293595657
0.304000000000000159,-10.689420829056226481
0.305000000000000160,-10.633153930314200863
0.306000000000000161,-10.576108334471433281
0.307000000000000162,-10.518169343931818460
0.308000000000000163,-10.459226827442410723
0.309000000000000163,-10.399175600023164989
0.310000000000000164,-10.337915758911222497
0.311000000000000165,-10.275352977041109170
0.312000000000000166,-10.211398755660159310
0.313000000000000167,-10.145970637741513087
0.314000000000000168,-10.078992383907152686
0.315000000000000169,-10.010394112610599748
0.316000000000000170,-9.940112406355002150
0.317000000000000171,-9.868090385737431802
0.318000000000000171,-9.794277753115693486
0.319000000000000172,-9.718630807690992413
0.320000000000000173,-9.641112433788098457
0.321000000000000174,-9.561692064096430244
0.322000000000000175,-9.480345619610250907
0.323000000000000176,-9.397055427975638864
0.324000000000000177,-9.311810121915693017
0.325000000000000178,-9.224604519365337651
0.326000000000000179,-9.135439486902935613
0.327000000000000179,-9.044321788018059749
0.328000000000000180,-8.951263917704755713
0.329000000000000181,-8.856283924817175190
0.330000000000000182,-8.759405223569251220
0.331000000000000183,-8.660656395505203164
0.332000000000000184,-8.560070983209749684
0.333000000000000185,-8.457687276969814150
0.334000000000000186,-8.353548095541208696
0.335000000000000187,-8.247700562115564793
0.336000000000000187,-8.140195876524973784
0.337000000000000188,-8.031089084663973310
0.338000000000000189,-7.920438846051725434
0.339000000000000190,-7.808307200401048753
0.340000000000000191,-7.694759334005510709
0.341000000000000192,-7.579863346702414795
0.342000000000000193,-7.463690020115770096
0.343000000000000194,-7.346312587832924734
0.344000000000000195,-7.227806508117732065
0.345000000000000195,-7.108249239715398460
0.346000000000000196,-6.987720021256933478
0.347000000000000197,-6.866299654726185864
0.348000000000000198,-6.744070293409099470
0.349000000000000199,-6.621115234702921626
0.350000000000000200,-6.497518718123511228
0.351000000000000201,-6.373365728810360231
0.352000000000000202,-6.248741806792859066
0.353000000000000203,-6.123732862246598962
0.354000000000000203,-5.998424996935489695
0.355000000000000204,-5.872904332004547534
0.356000000000000205,-5.747256842258615883
0.357000000000000206,-5.621568197034507719
0.358000000000000207,-5.495923607747919881
0.359000000000000208,-5.370407682171988384
0.360000000000000209,-5.245104285481379414
0.361000000000000210,-5.120096408074223504
0.362000000000000210,-4.995466040164431298
0.363000000000000211,-4.871294053118199407
0.364000000000000212,-4.747660087491536451
0.365000000000000213,-4.624642447709554460
0.366000000000000214,-4.502318003314011108
0.367000000000000215,-4.380762096691980467
0.368000000000000216,-4.260048457186672799
0.369000000000000217,-4.140249121480108485
0.370000000000000218,-4.021434360127723373
0.371000000000000218,-3.903672610115806574
0.372000000000000219,-3.787030413304921073
0.373000000000000220,-3.671572360615390718
0.374000000000000221,-3.557361041804861124
0.375000000000000222,-3.444457000682553005
0.376000000000000223,-3.332918695600497472
0.377000000000000224,-3.222802465058079768
0.378000000000000225,-3.114162498253437938
0.379000000000000226,-3.007050810412516206
0.380000000000000226,-2.901517222725155776
0.381000000000000227,-2.797609346716049661
0.382000000000000228,-2.695372572877984485
0.383000000000000229,-2.594850063394489315
0.384000000000000230,-2.496082748779195448
0.385000000000000231,-2.399109328260213836
0.386000000000000232,-2.303966273738613513
0.387000000000000233,-2.210687837151765756
0.388000000000000234,-2.119306061074003988
0.389000000000000234,-2.029850792389305436
0.390000000000000235,-1.942349698872786634
0.391000000000000236,-1.856828288520854908
0.392000000000000237,-1.773309931472228929
0.393000000000000238,-1.691815884365546641
0.394000000000000239,-1.612365316982145247
0.395000000000000240,-1.534975341026242335
0.396000000000000241,-1.459661040898108109
0.397000000000000242,-1.386435506319541933
0.398000000000000242,-1.315309866674710060
0.399000000000000243,-1.246293326933204826
0.400000000000000244,-1.179393205025948799
0.401000000000000245,-1.114614970548921224
0.402000000000000246,-1.051962284673136239
0.403000000000000247,-0.991437041143657161
0.404000000000000248,-0.933039408254444091
0.405000000000000249,-0.876767871689714595
0.406000000000000250,-0.822619278126629938
0.407000000000000250,-0.770588879498128154
0.408000000000000251,-0.720670377818620311
0.409000000000000252,-0.672855970479407817
0.410000000000000253,-0.627136395924299928
0.411000000000000254,-0.583500979620147020
0.412000000000000255,-0.541937680240420994
0.413000000000000256,-0.502433135984148072
0.414000000000000257,-0.464972710955764867
0.415000000000000258,-0.429540541535513021
0.416000000000000258,-0.396119582673195914
0.417000000000000259,-0.364691654041861157
0.418000000000000260,-0.335237485991226491
0.419000000000000261,-0.307736765244038257
0.420000000000000262,-0.282168180281834657
0.421000000000000263,-0.258509466369746310
0.422000000000000264,-0.236737450172910341
0.423000000000000265,-0.216828093920259424
0.424000000000000266,-0.198756539074288724
0.425000000000000266,-0.182497149468102193
0.426000000000000267,-0.168023553873909215
0.427000000000000268,-0.155308687969781756
0.428000000000000269,-0.144324835673909080
0.429000000000000270,-0.135043669818160184
0.430000000000000271,-0.127436292135164664
0.431000000000000272,-0.121473272535277815
0.432000000000000273,-0.117124687652150922
0.433000000000000274,-0.114360158637634463
0.434000000000000274,-0.113148888188902813
0.435000000000000275,-0.113459696792453629
0.436000000000000276,-0.115261058171737443
0.437000000000000277,-0.118521133926771549
0.438000000000000278,-0.123207807355910720
0.439000000000000279,-0.129288716451581159
0.440000000000000280,-0.136731286063298041
0.441000000000000281,-0.145502759222771699
0.442000000000000282,-0.155570227627467611
0.443000000000000282,-0.166900661280047491
0.444000000000000283,-0.179460937282744176
0.445000000000000284,-0.193217867786635189
0.446000000000000285,-0.208138227097066031
0.447000000000000286,-0.224188777937617101
0.448000000000000287,-0.241336296875839768
0.449000000000000288,-0.259547598915139011
0.450000000000000289,-0.278789561257999197
0.451000000000000290,-0.299029146246565236
0.452000000000000290,-0.320233423487474966
0.453000000000000291,-0.342369591168500798
0.454000000000000292,-0.365404996575313390
0.455000000000000293,-0.389307155817274986
0.456000000000000294,-0.414043772771807539
0.457000000000000295,-0.439582757257368839
0.458000000000000296,-0.465892242445712590
0.459000000000000297,-0.492940601524362587
0.460000000000000298,-0.520696463620936689
0.461000000000000298,-0.549128729000996962
0.462000000000000299,-0.578206583551859721
0.463000000000000300,-0.607899512564726741
0.464000000000000301,-0.638177313828075077
0.465000000000000302,-0.669010110045270556
0.466000000000000303,-0.700368360589852856
0.467000000000000304,-0.732222872611769326
0.468000000000000305,-0.764544811508378941
0.469000000000000306,-0.797305710773911658
0.470000000000000306,-0.830477481241272741
0.471000000000000307,-0.864032419730198287
0.472000000000000308,-0.897943217115789061
0.473000000000000309,-0.932182965831494514
0.474000000000000310,-0.966725166820583182
0.475000000000000311,-1.001543735950388037
0.476000000000000312,-1.036613009903113669
0.477000000000000313,-1.071907751557557686
0.478000000000000314,-1.107403154875504558
0.479000000000000314,-1.143074849306873642
0.480000000000000315,-1.178898903727367387
0.481000000000000316,-1.214851829922461546
0.482000000000000317,-1.250910585631306748
0.483000000000000318,-1.287052577164126799
0.484000000000000319,-1.323255661606479894
0.485000000000000320,-1.359498148623663472
0.486000000000000321,-1.395758801878361766
0.487000000000000322,-1.432016840074496145
0.488000000000000322,-1.468251937640066895
0.489000000000000323,-1.504444225061575491
0.490000000000000324,-1.540574288882516685
0.491000000000000325,-1.576623171378139343
0.492000000000000326,-1.612572369918559456
0.493000000000000327,-1.648403836032075187
0.494000000000000328,-1.684099974180354398
0.495000000000000329,-1.719643640256957484
0.496000000000000330,-1.755018139820412770
0.497000000000000330,-1.790207226072936475
0.498000000000000331,-1.825195097595583293
0.499000000000000332,-1.859966395850403797
0.500000000000000333,-1.894506202460102262
0.501000000000000334,-1.928800036275273300
0.502000000000000335,-1.962833850239208644
0.503000000000000336,-1.996594028059996528
0.504000000000000337,-2.030067380699453139
0.505000000000000338,-2.063241142688133412
0.506000000000000338,-2.096102968275515455
0.507000000000000339,-2.128640927424232387
0.508000000000000340,-2.160843501656941612
0.509000000000000341,-2.192699579764255002
0.510000000000000342,-2.224198453381946106
0.511000000000000343,-2.255329812445401316
0.512000000000000344,-2.286083740529076369
0.513000000000000345,-2.316450710078489461
0.514000000000000346,-2.346421577542185055
0.515000000000000346,-2.375987578410661882
0.516000000000000347,-2.405140322169301292
0.517000000000000348,-2.433871787171996370
0.518000000000000349,-2.462174315441972183
0.519000000000000350,-2.490040607406130313
0.520000000000000351,-2.517463716569095844
0.521000000000000352,-2.544437044132824344
0.522000000000000353,-2.570954333567541106
0.523000000000000353,-2.597009665139609513
0.524000000000000354,-2.622597450401619845
0.525000000000000355,-2.647712426649969419
0.526000000000000356,-2.672349651354863020
0.527000000000000357,-2.696504496567623033
0.528000000000000358,-2.720172643310009519
0.529000000000000359,-2.743350075949888556
0.530000000000000360,-2.766033076567768756
0.531000000000000361,-2.788218219318235658
0.532000000000000361,-2.809902364790362039
0.533000000000000362,-2.831082654370890239
0.534000000000000363,-2.851756504613930154
0.535000000000000364,-2.871921601620700315
0.536000000000000365,-2.891575895432707544
0.537000000000000366,-2.910717594441634581
0.538000000000000367,-2.929345159819051858
0.539000000000000368,-2.947457299968935907
0.540000000000000369,-2.965052965005854357
0.541000000000000369,-2.982131341261523350
0.542000000000000370,-2.998691845822325064
0.543000000000000371,-3.014734121100299813
0.544000000000000372,-3.030258029439902856
0.545000000000000373,-3.045263647762798787
0.546000000000000374,-3.059751262252819348
0.547000000000000375,-3.073721363083039559
0.548000000000000376,-3.087174639186961222
0.549000000000000377,-3.100111973075502014
0.550000000000000377,-3.112534435701566515
0.551000000000000378,-3.124443281373730841
0.552000000000000379,-3.135839942720601847
0.553000000000000380,-3.146726025707187180
0.554000000000000381,-3.157103304704640401
0.555000000000000382,-3.166973717614628647
0.556000000000000383,-3.176339361049360654
0.557000000000000384,-3.185202485568478181
0.558000000000000385,-3.193565490973668375
0.559000000000000385,-3.201430921661982953
0.560000000000000386,-3.208801462038630259
0.561000000000000387,-3.215679931990050644
0.562000000000000388,-3.222069282417913794
0.563000000000000389,-3.227972590834705446
0.564000000000000390,-3.233393057021385353
0.565000000000000391,-3.238333998747696452
0.566000000000000392,-3.242798847555479647
0.567000000000000393,-3.246791144605415180
0.568000000000000393,-3.250314536587450398
0.569000000000000394,-3.253372771695244747
0.570000000000000395,-3.255969695664807428
0.571000000000000396,-3.258109247877428061
0.572000000000000397,-3.259795457527135287
0.573000000000000398,-3.261032439852634468
0.574000000000000399,-3.261824392433789743
0.575000000000000400,-3.262175591552642029
0.576000000000000401,-3.262090388618839487
0.577000000000000401,-3.261573206659470259
0.578000000000000402,-3.260628536873054539
0.579000000000000403,-3.259260935247579649
0.580000000000000404,-3.257475019242368486
0.581000000000000405,-3.255275464533499807
0.582000000000000406,-3.252667001822538317
0.583000000000000407,-3.249654413708237488
0.584000000000000408,-3.246242531620940674
0.585000000000000409,-3.242436232819225328
0.586000000000000409,-3.238240437448493658
0.587000000000000410,-3.233660105661066986
0.588000000000000411,-3.228700234797307278
0.589000000000000412,-3.223365856627403048
0.590000000000000413,-3.217662034653233860
0.591000000000000414,-3.211593861469908440
0.592000000000000415,-3.205166456186427038
0.593000000000000416,-3.198384961904906287
0.594000000000000417,-3.191254543257874055
0.595000000000000417,-3.183780384003058295
0.596000000000000418,-3.175967684675021108
0.597000000000000419,-3.167821660293199670
0.598000000000000420,-3.159347538125562238
0.599000000000000421,-3.150550555507440897
0.600000000000000422,-3.141435957714791449
0.601000000000000423,-3.132008995891304881
0.602000000000000424,-3.122274925028718506
0.603000000000000425,-3.112239001999687726
0.604000000000000425,-3.101906483642501655
0.605000000000000426,-3.091282624897066178
0.606000000000000427,-3.080372676991420366
0.607000000000000428,-3.069181885678104571
0.608000000000000429,-3.057715489519770458
0.609000000000000430,-3.045978718223243398
0.610000000000000431,-3.033976791021458119
0.611000000000000432,-3.021714915102478471
