# Ag100_CS-12229-AC
# h[nm],U(h)[kJ/mol]
0.200000000000000011,138.493573224478666361
0.201000000000000012,128.472154231309360739
0.202000000000000013,122.888382974180188967
0.203000000000000014,119.318777521416819809
0.204000000000000015,116.408585084646915675
0.205000000000000016,113.477123028872526334
0.206000000000000016,110.250130654890909909
0.207000000000000017,106.682396057520350041
0.208000000000000018,102.843701693816598208
0.209000000000000019,98.848470509798289640
0.210000000000000020,94.814971394393538162
0.211000000000000021,90.844005598561381021
0.212000000000000022,87.009988694236554352
0.213000000000000023,83.359529694628918151
0.214000000000000024,79.914192096947857635
0.215000000000000024,76.675254825836447026
0.216000000000000025,73.629091299814717786
0.217000000000000026,70.752340558070088150
0.218000000000000027,68.016422137900093503
0.219000000000000028,65.391196012993233921
0.220000000000000029,62.847727457212428703
0.221000000000000030,60.360211564084920610
0.222000000000000031,57.907163377930679360
0.223000000000000032,55.472001715320097048
0.224000000000000032,53.043158189017660220
0.225000000000000033,50.613835040665577480
0.226000000000000034,48.181521234004470955
0.227000000000000035,45.747359297570440617
0.228000000000000036,43.315437881656116303
0.229000000000000037,40.892068305159924080
0.230000000000000038,38.485088313316921926
0.231000000000000039,36.103223237176230498
0.232000000000000040,33.755523856991857201
0.233000000000000040,31.450891466751624392
0.234000000000000041,29.197693753545571838
0.235000000000000042,27.003469925196657897
0.236000000000000043,24.874719801738766733
0.237000000000000044,22.816769089409156379
0.238000000000000045,20.833701551278938524
0.239000000000000046,18.928348068858959152
0.240000000000000047,17.102322471172641372
0.241000000000000048,15.356094335074825352
0.242000000000000048,13.689089601592900891
0.243000000000000049,12.099810700049465240
0.244000000000000050,10.585968838384088642
0.245000000000000051,9.144622136893165276
0.246000000000000052,7.772314302240839190
0.247000000000000053,6.465209521350497646
0.248000000000000054,5.219220174268226486
0.249000000000000055,4.030124804054019627
0.250000000000000056,2.893674530254325639
0.251000000000000056,1.805686746282248789
0.252000000000000057,0.762125500124567812
0.253000000000000058,-0.240831574568347584
0.254000000000000059,-1.206739528331857825
0.255000000000000060,-2.138845015469436284
0.256000000000000061,-3.040057080953348034
0.257000000000000062,-3.912928864164364029
0.258000000000000063,-4.759649155866642722
0.259000000000000064,-5.582042678651378154
0.260000000000000064,-6.381577934325441070
0.261000000000000065,-7.159381467354476669
0.262000000000000066,-7.916257425106058676
0.263000000000000067,-8.652711347542240361
0.264000000000000068,-9.368977186125864165
0.265000000000000069,-10.065046629625776120
0.266000000000000070,-10.740699899455327326
0.267000000000000071,-11.395537265973741725
0.268000000000000071,-12.029010627170634962
0.269000000000000072,-12.640454580192768574
0.270000000000000073,-13.229116502542030531
0.271000000000000074,-13.794185242152096293
0.272000000000000075,-14.334818092953980795
0.273000000000000076,-14.850165804271437509
0.274000000000000077,-15.339395438004473249
0.275000000000000078,-15.801710946822566939
0.276000000000000079,-16.236371399434887053
0.277000000000000079,-16.642706825506387247
0.278000000000000080,-17.020131693127673600
0.279000000000000081,-17.368156066195108878
0.280000000000000082,-17.686394517944993510
0.281000000000000083,-17.974572900590210622
0.282000000000000084,-18.232533089934456427
0.283000000000000085,-18.460235838409762010
0.284000000000000086,-18.657761880623390027
0.285000000000000087,-18.825311442632319370
0.286000000000000087,-18.963202310199626766
0.287000000000000088,-19.071866612620802073
0.288000000000000089,-19.151846477714666861
0.289000000000000090,-19.203788710605316226
0.290000000000000091,-19.228438644301732552
0.291000000000000092,-19.226633304114617573
0.292000000000000093,-19.199294020904506652
0.293000000000000094,-19.147418620281335677
0.294000000000000095,-19.072073306392802294
0.295000000000000095,-18.974384350042711844
0.296000000000000096,-18.855529681744002346
0.297000000000000097,-18.716730481082713311
0.298000000000000098,-18.559242844577067189
0.299000000000000099,-18.384349605170331898
0.300000000000000100,-18.193352367685911020
0.301000000000000101,-17.987563816074107592
0.302000000000000102,-17.768300340152379135
0.303000000000000103,-17.536875021828866039
0.304000000000000103,-17.294591013539950097
0.305000000000000104,-17.042735334848238438
0.306000000000000105,-16.782573106855149803
0.307000000000000106,-16.515342238285917631
0.308000000000000107,-16.242248571808662660
0.309000000000000108,-15.964461494344149628
0.310000000000000109,-15.683110010800159984
0.311000000000000110,-15.399279276809972217
0.312000000000000111,-15.114007582649136907
0.313000000000000111,-14.828283777530199217
0.314000000000000112,-14.543045120907702739
0.315000000000000113,-14.259175545242303684
0.316000000000000114,-13.977504312850536294
0.317000000000000115,-13.698805047977312910
0.318000000000000116,-13.423795124049965111
0.319000000000000117,-13.153135385178453376
0.320000000000000118,-12.887430180332136942
0.321000000000000119,-12.627227688225437063
0.322000000000000119,-12.373020510759619839
0.323000000000000120,-12.125246512872823956
0.324000000000000121,-11.884289886824866755
0.325000000000000122,-11.650482419266394274
0.326000000000000123,-11.424104939894732524
0.327000000000000124,-11.205388931062969959
0.328000000000000125,-10.994518278369255881
0.329000000000000126,-10.791631142991509051
0.330000000000000127,-10.596821937337089992
0.331000000000000127,-10.410143386433672319
0.332000000000000128,-10.231608658382754129
0.333000000000000129,-10.061193548122675523
0.334000000000000130,-9.898838699691321352
0.335000000000000131,-9.744451853133289987
0.336000000000000132,-9.597910103151575001
0.337000000000000133,-9.459062157555472083
0.338000000000000134,-9.327730584495895982
0.339000000000000135,-9.203714038403344233
0.340000000000000135,-9.086789455445270391
0.341000000000000136,-8.976714210197297206
0.342000000000000137,-8.873228226071001146
0.343000000000000138,-8.776056032858360112
0.344000000000000139,-8.684908765536855313
0.345000000000000140,-8.599486099228055735
0.346000000000000141,-8.519478115914335348
0.347000000000000142,-8.444567099193390547
0.348000000000000143,-8.374429253987289101
0.349000000000000143,-8.308736348720934473
0.350000000000000144,-8.247157278046177709
0.351000000000000145,-8.189359544710146821
0.352000000000000146,-8.135010659652390785
0.353000000000000147,-8.083779459864272710
0.354000000000000148,-8.035337343957881018
0.355000000000000149,-7.989359425770231837
0.356000000000000150,-7.945525606674190833
0.357000000000000151,-7.903521567580422236
0.358000000000000151,-7.863039681896873745
0.359000000000000152,-7.823779850964508675
0.360000000000000153,-7.785450263712500707
0.361000000000000154,-7.747768082472984652
0.362000000000000155,-7.710460057067621165
0.363000000000000156,-7.673263069426020877
0.364000000000000157,-7.635924611121097882
0.365000000000000158,-7.598203196311236418
0.366000000000000159,-7.559868712662650481
0.367000000000000159,-7.520702712891920605
0.368000000000000160,-7.480498649617388196
0.369000000000000161,-7.439062056240954846
0.370000000000000162,-7.396210676600714073
0.371000000000000163,-7.351774546139859368
0.372000000000000164,-7.305596027330201636
0.373000000000000165,-7.257529802070990854
0.374000000000000166,-7.207442823755225270
0.375000000000000167,-7.155214231658763246
0.376000000000000167,-7.100735230262543496
0.377000000000000168,-7.043908936065703230
0.378000000000000169,-6.984650194389004696
0.379000000000000170,-6.922885368603958867
0.380000000000000171,-6.858552104154145290
0.381000000000000172,-6.791599069662592747
0.382000000000000173,-6.721985677342766863
0.383000000000000174,-6.649681784852099042
0.384000000000000175,-6.574667380645598413
0.385000000000000175,-6.496932254804582030
0.386000000000000176,-6.416475657231707430
0.387000000000000177,-6.333305945018645744
0.388000000000000178,-6.247440220708178948
0.389000000000000179,-6.158903963087317024
0.390000000000000180,-6.067730652063817232
0.391000000000000181,-5.973961389094598395
0.392000000000000182,-5.877644514551930932
0.393000000000000183,-5.778835223331517668
0.394000000000000183,-5.677595179926672841
0.395000000000000184,-5.573992134114332586
0.396000000000000185,-5.468099538321730790
0.397000000000000186,-5.359996167668180433
0.398000000000000187,-5.249765743603555634
0.399000000000000188,-5.137496561994531419
0.400000000000000189,-5.023281126441676570
0.401000000000000190,-4.907215787544248364
0.402000000000000191,-4.789400388766525296
0.403000000000000191,-4.669937919497850309
0.404000000000000192,-4.548934175840469329
0.405000000000000193,-4.426497429602720857
0.406000000000000194,-4.302738105921614320
0.407000000000000195,-4.177768469887665148
0.408000000000000196,-4.051702322495806641
0.409000000000000197,-3.924654706200114251
0.410000000000000198,-3.796741620306069542
0.411000000000000199,-3.668079746392325369
0.412000000000000199,-3.538786183914745642
0.413000000000000200,-3.408978196108596759
0.414000000000000201,-3.278772966269744238
0.415000000000000202,-3.148287364463054239
0.416000000000000203,-3.017637724676017541
0.417000000000000204,-2.886939632406489320
0.418000000000000205,-2.756307722647514780
0.419000000000000206,-2.625855488207281319
0.420000000000000207,-2.495695098279254953
0.421000000000000207,-2.365937227157278500
0.422000000000000208,-2.236690892970101707
0.423000000000000209,-2.108063306293199712
0.424000000000000210,-1.980159728478872783
0.425000000000000211,-1.853083339531451657
0.426000000000000212,-1.726935115341246885
0.427000000000000213,-1.601813714078961226
0.428000000000000214,-1.477815371542141376
0.429000000000000214,-1.355033805235593691
0.430000000000000215,-1.233560126960047798
0.431000000000000216,-1.113482763676327369
0.432000000000000217,-0.994887386406166585
0.433000000000000218,-0.877856846926269307
0.434000000000000219,-0.762471122008133273
0.435000000000000220,-0.648807264953052742
0.436000000000000221,-0.536939364169515598
0.437000000000000222,-0.426938508538772354
0.438000000000000222,-0.318872759313598042
0.439000000000000223,-0.212807128295247339
0.440000000000000224,-0.108803562033987306
0.441000000000000225,-0.006920931799900143
0.442000000000000226,0.092784970927576982
0.443000000000000227,0.190261433701199079
0.444000000000000228,0.285458817325157377
0.445000000000000229,0.378330545296111764
0.446000000000000230,0.468833088706293033
0.447000000000000230,0.556925946845552078
0.448000000000000231,0.642571623734855213
0.449000000000000232,0.725735600819620408
0.450000000000000233,0.806386306046563361
0.451000000000000234,0.884495079542945151
0.452000000000000235,0.960036136112140115
0.453000000000000236,1.032986524754306412
0.454000000000000237,1.103326085415393676
0.455000000000000238,1.171037403162718871
0.456000000000000238,1.236105759979313046
0.457000000000000239,1.298519084364115006
0.458000000000000240,1.358267898918897654
0.459000000000000241,1.415345266097691290
0.460000000000000242,1.469746732288085722
0.461000000000000243,1.521470270388629142
0.462000000000000244,1.570516221040292759
0.463000000000000245,1.616887232664677709
0.464000000000000246,1.660588200455527019
0.465000000000000246,1.701626204464702807
0.466000000000000247,1.740010446918072606
0.467000000000000248,1.775752188891236205
0.468000000000000249,1.808864686469383587
0.469000000000000250,1.839363126510362489
0.470000000000000251,1.867264562124500982
0.471000000000000252,1.892587847979689597
0.472000000000000253,1.915353575534741948
0.473000000000000254,1.935584008299407799
0.474000000000000254,1.953303017214110371
0.475000000000000255,1.968536016237778297
0.476000000000000256,1.981309898227468835
0.477000000000000257,1.991652971188658139
0.478000000000000258,1.999594894970738723
0.479000000000000259,2.005166618477878693
0.480000000000000260,2.008400317460894424
0.481000000000000261,2.009329332952018543
0.482000000000000262,2.007988110399971049
0.483000000000000262,2.004412139559279549
0.484000000000000263,1.998637895183619673
0.485000000000000264,1.990702778569612974
0.486000000000000265,1.980645059993648927
0.487000000000000266,1.968503822081191235
0.488000000000000267,1.954318904144586311
0.489000000000000268,1.938130847522041122
0.490000000000000269,1.919980841947820149
0.491000000000000270,1.899910672980228865
0.492000000000000270,1.877962670511583720
0.493000000000000271,1.854179658381293283
0.494000000000000272,1.828604905110928103
0.495000000000000273,1.801282075777192571
0.496000000000000274,1.772255185036858638
0.497000000000000275,1.741568551315069824
0.498000000000000276,1.709266752166250125
0.499000000000000277,1.675394580815131373
0.500000000000000222,1.639997003882867732
0.501000000000000334,1.603119120301970568
0.502000000000000224,1.564806121421384422
0.503000000000000336,1.525103252301839962
0.504000000000000226,1.484055774199711797
0.505000000000000338,1.441708928236138831
0.506000000000000227,1.398107900246894797
0.507000000000000339,1.353297786806873626
0.508000000000000229,1.307323562422136876
0.509000000000000341,1.260230047880754212
0.510000000000000231,1.212061879753246085
0.511000000000000343,1.162863481031629842
0.512000000000000233,1.112679032895840470
0.513000000000000345,1.061552447594626747
0.514000000000000234,1.009527342427919638
0.515000000000000346,0.956647014816230046
0.516000000000000236,0.902954418442514450
0.517000000000000348,0.848492140450599508
0.518000000000000238,0.793302379684490244
0.519000000000000350,0.737426925951344070
0.520000000000000240,0.680907140291431401
0.521000000000000352,0.623783936236945946
0.522000000000000242,0.566097762042080843
0.523000000000000353,0.507888583865392484
0.524000000000000243,0.449195869886313992
0.525000000000000355,0.390058575336234559
0.526000000000000245,0.330515128425364679
0.527000000000000357,0.270603417145480307
0.528000000000000247,0.210360776929340743
0.529000000000000359,0.149823979146677250
0.530000000000000249,0.089029220417145491
0.531000000000000361,0.028012112720123095
0.532000000000000250,-0.033192325718378005
0.533000000000000362,-0.094549678782005334
0.534000000000000252,-0.156026140082971804
0.535000000000000364,-0.217588519864256064
0.536000000000000254,-0.279204251204058007
0.537000000000000366,-0.340841395543127201
0.538000000000000256,-0.402468647553914649
0.539000000000000368,-0.464055339371650444
0.540000000000000258,-0.525571444206233251
0.541000000000000369,-0.586987579354697919
0.542000000000000259,-0.648275008632700933
0.543000000000000371,-0.709405644244480493
0.544000000000000261,-0.770352048109526732
0.545000000000000373,-0.831087432664635140
0.546000000000000263,-0.891585661159325249
0.547000000000000375,-0.951821247463004338
0.548000000000000265,-1.011769355400990555
0.549000000000000377,-1.071405797637536184
0.550000000000000266,-1.130707034122398591
0.551000000000000378,-1.189650170118440320
0.552000000000000268,-1.248212953826451477
0.553000000000000380,-1.306373773623878298
0.554000000000000270,-1.364111654933233719
0.555000000000000382,-1.421406256736249096
0.556000000000000272,-1.478237867748930068
0.557000000000000384,-1.534587402272896473
0.558000000000000274,-1.590436395737742092
0.559000000000000385,-1.645766999949024978
0.560000000000000275,-1.700561978055999957
0.561000000000000387,-1.754804699253220690
0.562000000000000277,-1.808479133229306424
0.563000000000000389,-1.861569844376536498
0.564000000000000279,-1.914061985773868768
0.565000000000000391,-1.965941292956414843
0.566000000000000281,-2.017194077483333015
0.567000000000000393,-2.067807220316590922
0.568000000000000282,-2.117768165021932436
0.569000000000000394,-2.167064910803850442
0.570000000000000284,-2.215686005385232527
0.571000000000000396,-2.263620537743034067
0.572000000000000286,-2.310858130709962932
0.573000000000000398,-2.357388933452780222
0.574000000000000288,-2.403203613836823127
0.575000000000000400,-2.448293350686718384
0.576000000000000290,-2.492649825952192089
0.577000000000000401,-2.536265216788486487
0.578000000000000291,-2.579132187559726397
0.579000000000000403,-2.621243881774051765
0.580000000000000293,-2.662593913958455349
0.581000000000000405,-2.703176361481594014
0.582000000000000295,-2.742985756331807856
0.583000000000000407,-2.782017076858286586
0.584000000000000297,-2.820265739481992995
0.585000000000000409,-2.857727590383777105
0.586000000000000298,-2.894398897175843199
0.587000000000000410,-2.930276340563422455
0.588000000000000300,-2.965357006002424356
0.589000000000000412,-2.999638375359371167
0.590000000000000302,-3.033118318578975625
0.591000000000000414,-3.065795085365154105
0.592000000000000304,-3.097667296880479704
0.593000000000000416,-3.128733937469288406
0.594000000000000306,-3.158994346409156329
0.595000000000000417,-3.188448209695506463
0.596000000000000307,-3.217095551863549563
0.597000000000000419,-3.244936727852034242
0.598000000000000309,-3.271972414912682758
0.599000000000000421,-3.298203604569128089
0.600000000000000311,-3.323631594629146147
0.601000000000000423,-3.348257981253592419
0.602000000000000313,-3.372084651085224039
0.603000000000000425,-3.395113773440848526
0.604000000000000314,-3.417347792569388254
0.605000000000000426,-3.438789419979021211
0.606000000000000316,-3.459441626835764172
0.607000000000000428,-3.479307636436177908
0.608000000000000318,-3.498390916756489499
0.609000000000000430,-3.516695173080321979
0.610000000000000320,-3.534224340707074141
0.611000000000000432,-3.550982577742983981
0.612000000000000322,-3.566974257976532670
0.613000000000000433,-3.582203963839963201
0.614000000000000323,-3.596676479458436493
0.615000000000000435,-3.610396783788242026
0.616000000000000325,-3.623370043845309141
0.617000000000000437,-3.635601608025388565
0.618000000000000327,-3.647096999516787008
0.619000000000000439,-3.657861909806790379
0.620000000000000329,-3.667902192282581186
0.621000000000000441,-3.677223855927453489
0.622000000000000330,-3.685833059113027499
0.623000000000000442,-3.693736103488061584
0.624000000000000332,-3.700939427964289763
0.625000000000000444,-3.707449602799880672
0.626000000000000334,-3.713273323780661883
0.627000000000000446,-3.718417406499530564
0.628000000000000336,-3.722888780734135761
0.629000000000000448,-3.726694484923029904
0.630000000000000338,-3.729841660740211839
0.631000000000000449,-3.732337547768206143
0.632000000000000339,-3.734189478269458018
0.633000000000000451,-3.735404872055930525
0.634000000000000341,-3.735991231456691430
0.635000000000000453,-3.735956136383318693
0.636000000000000343,-3.735307239492596576
0.637000000000000455,-3.734052261446391352
0.638000000000000345,-3.732198986268030261
0.639000000000000457,-3.729755256794928364
0.640000000000000346,-3.726728970226803828
0.641000000000000458,-3.723128073769020663
0.642000000000000348,-3.718960560370400792
0.643000000000000460,-3.714234464554896586
0.644000000000000350,-3.708957858346464409
0.645000000000000462,-3.703138847286395752
0.646000000000000352,-3.696785566542402535
0.647000000000000464,-3.689906177108669194
0.648000000000000353,-3.682508862096090407
0.649000000000000465,-3.674601823111807164
0.650000000000000355,-3.666193276727312877
0.651000000000000467,-3.657291451034065055
0.652000000000000357,-3.647904582285949715
0.653000000000000469,-3.638040911627367535
0.654000000000000359,-3.627708681906355537
0.655000000000000471,-3.616916134571460439
0.656000000000000361,-3.605671506651610514
0.657000000000000473,-3.593983027817858389
0.658000000000000362,-3.581858917526103081
0.659000000000000474,-3.569307382239662818
0.660000000000000364,-3.556336612730757629
0.661000000000000476,-3.542954781459783931
0.662000000000000366,-3.529170040031421873
0.663000000000000478,-3.514990516726394620
