# Ag100_CAFF-AC
# h[nm],U(h)[kJ/mol]
0.200000000000000011,163.151716361363071428
0.201000000000000012,154.163601494306817585
0.202000000000000013,149.375232235200371633
0.203000000000000014,146.418963783534024969
0.204000000000000015,143.977064862098757203
0.205000000000000016,141.394684968357182697
0.206000000000000016,138.416878782161262507
0.207000000000000017,135.013971583283193922
0.208000000000000018,131.269013803059976908
0.209000000000000019,127.308184887272176411
0.210000000000000020,123.260322950674975573
0.211000000000000021,119.235706951956444755
0.212000000000000022,115.317133303083011242
0.213000000000000023,111.558463223023593969
0.214000000000000024,107.987365507641612794
0.215000000000000024,104.610090388251862237
0.216000000000000025,101.416896866114313980
0.217000000000000026,98.387303983300029131
0.218000000000000027,95.494710486741311684
0.219000000000000028,92.710175677661680993
0.220000000000000029,90.005312998936943814
0.221000000000000030,87.354343806441676179
0.222000000000000031,84.735411403280309628
0.223000000000000032,82.131279041946953612
0.224000000000000032,79.529540461632777237
0.225000000000000033,76.922464881881197130
0.226000000000000034,74.306585267594343236
0.227000000000000035,71.682122544545137544
0.228000000000000036,69.052321536834554649
0.229000000000000037,66.422758136556709019
0.230000000000000038,63.800662428347422406
0.231000000000000039,61.194289596433080192
0.232000000000000040,58.612359584132114776
0.233000000000000040,56.063577623284189144
0.234000000000000041,53.556240763725369902
0.235000000000000042,51.097930211331963335
0.236000000000000043,48.695285401917928425
0.237000000000000044,46.353853068104989177
0.238000000000000045,44.078002878033245793
0.239000000000000046,41.870900337762741117
0.240000000000000047,39.734527375470257482
0.241000000000000048,37.669741211424465632
0.242000000000000048,35.676362633584645323
0.243000000000000049,33.753285537513498582
0.244000000000000050,31.898600464723710246
0.245000000000000051,30.109725817377444912
0.246000000000000052,28.383541387031794301
0.247000000000000053,26.716519771806865435
0.248000000000000054,25.104852142052219932
0.249000000000000055,23.544565630502287235
0.250000000000000056,22.031630357549410348
0.251000000000000056,20.562054749879248305
0.252000000000000057,19.131968369964212684
0.253000000000000058,17.737691946746245719
0.254000000000000059,16.375794688555171064
0.255000000000000060,15.043139273816313661
0.256000000000000061,13.736915160294723037
0.257000000000000062,12.454661036932066054
0.258000000000000063,11.194277371330631610
0.259000000000000064,9.954030088090423334
0.260000000000000064,8.732546455650734174
0.261000000000000065,7.528804268719379245
0.262000000000000066,6.342115395930474797
0.263000000000000067,5.172104723619218802
0.264000000000000068,4.018685471474948478
0.265000000000000069,2.882031788671562289
0.266000000000000070,1.762549463628471980
0.267000000000000071,0.660845500012294473
0.268000000000000071,-0.422302771364566010
0.269000000000000072,-1.485978458259101131
0.270000000000000073,-2.529155245430695143
0.271000000000000074,-3.550726479514303868
0.272000000000000075,-4.549532848631125503
0.273000000000000076,-5.524388374777570831
0.274000000000000077,-6.474104501416337420
0.275000000000000078,-7.397512117383302055
0.276000000000000079,-8.293481411071676135
0.277000000000000079,-9.160939495851334158
0.278000000000000080,-9.998885788926783036
0.279000000000000081,-10.806405161535593606
0.280000000000000082,-11.582678908797456430
0.281000000000000083,-12.326993612963795144
0.282000000000000084,-13.038747994635684790
0.283000000000000085,-13.717457863088409198
0.284000000000000086,-14.362759289546156438
0.285000000000000087,-14.974410136474066491
0.286000000000000087,-15.552290082077078637
0.287000000000000088,-16.096399282582758872
0.288000000000000089,-16.606855815888518890
0.289000000000000090,-17.083892049108946765
0.290000000000000091,-17.527850069770881447
0.291000000000000092,-17.939176316169248793
0.292000000000000093,-18.318415536971336621
0.293000000000000094,-18.666204203789245497
0.294000000000000095,-18.983263493342388273
0.295000000000000095,-19.270391948201101684
0.296000000000000096,-19.528457917108930531
0.297000000000000097,-19.758391867677641329
0.298000000000000098,-19.961178655965227335
0.299000000000000099,-20.137849829197726592
0.300000000000000100,-20.289476029773503285
0.301000000000000101,-20.417159560776994454
0.302000000000000102,-20.522027165589467046
0.303000000000000103,-20.605223066873907811
0.304000000000000103,-20.667902303266181718
0.305000000000000104,-20.711224395559550970
0.306000000000000105,-20.736347368044015127
0.307000000000000106,-20.744422144968673649
0.308000000000000107,-20.736587336842710272
0.309000000000000108,-20.713964426477538439
0.310000000000000109,-20.677653360295412455
0.311000000000000110,-20.628728546478509287
0.312000000000000111,-20.568235257996960286
0.313000000000000111,-20.497186435415947869
0.314000000000000112,-20.416559881626930917
0.315000000000000113,-20.327295838253970572
0.316000000000000114,-20.230294931435636840
0.317000000000000115,-20.126416472950971581
0.318000000000000116,-20.016477101227316382
0.319000000000000117,-19.901249745612211939
0.320000000000000118,-19.781462896392106643
0.321000000000000119,-19.657800162374844177
0.322000000000000119,-19.530900097399005233
0.323000000000000120,-19.401356276872231632
0.324000000000000121,-19.269717605352077783
0.325000000000000122,-19.136488836248044976
0.326000000000000123,-19.002131284924907106
0.327000000000000124,-18.867063716807198404
0.328000000000000125,-18.731663392509801724
0.329000000000000126,-18.596267252530541469
0.330000000000000127,-18.461173224628325329
0.331000000000000127,-18.326641637659850659
0.332000000000000128,-18.192896726346546643
0.333000000000000129,-18.060128212183069962
0.334000000000000130,-17.928492946466686675
0.335000000000000131,-17.798116602217319837
0.336000000000000132,-17.669095402559594987
0.337000000000000133,-17.541497873947186292
0.338000000000000134,-17.415366613416537689
0.339000000000000135,-17.290720059859062019
0.340000000000000135,-17.167554260090309270
0.341000000000000136,-17.045844621269338859
0.342000000000000137,-16.925547641977040314
0.343000000000000138,-16.806602614994851308
0.344000000000000139,-16.688933295533722401
0.345000000000000140,-16.572449529344609687
0.346000000000000141,-16.457048835793500530
0.347000000000000142,-16.342617941607098686
0.348000000000000143,-16.229034261586644305
0.349000000000000143,-16.116167323146893153
0.350000000000000144,-16.003880132065845032
0.351000000000000145,-15.892030477326207105
0.352000000000000146,-15.780472173394164415
0.353000000000000147,-15.669056238713068296
0.354000000000000148,-15.557632009591765510
0.355000000000000149,-15.446048189037686171
0.356000000000000150,-15.334153830426895837
0.357000000000000151,-15.221799256215737373
0.358000000000000151,-15.108836912183779333
0.359000000000000152,-14.995122157955901088
0.360000000000000153,-14.880513994784266174
0.361000000000000154,-14.764875731778776213
0.362000000000000155,-14.648075591959482722
0.363000000000000156,-14.529987259667302979
0.364000000000000157,-14.410490371010549637
0.365000000000000158,-14.289470949147595746
0.366000000000000159,-14.166821786308560149
0.367000000000000159,-14.042442774545239814
0.368000000000000160,-13.916241187268624913
0.369000000000000161,-13.788131913687186270
0.370000000000000162,-13.658037648300332734
0.371000000000000163,-13.525889037629189815
0.372000000000000164,-13.391624786381814971
0.373000000000000165,-13.255191725255915713
0.374000000000000166,-13.116544842575880381
0.375000000000000167,-12.975647281947439993
0.376000000000000167,-12.832470308090581312
0.377000000000000168,-12.686993242981483121
0.378000000000000169,-12.539203374397986934
0.379000000000000170,-12.389095838920967552
0.380000000000000171,-12.236673481396334040
0.381000000000000172,-12.081946692811015964
0.382000000000000173,-11.924933228480016467
0.383000000000000174,-11.765658008383391930
0.384000000000000175,-11.604152901429525713
0.385000000000000175,-11.440456495357787858
0.386000000000000176,-11.274613853927561991
0.387000000000000177,-11.106676262973625313
0.388000000000000178,-10.936700966840179561
0.389000000000000179,-10.764750896636657629
0.390000000000000180,-10.590894391690328646
0.391000000000000181,-10.415204915501229621
0.392000000000000182,-10.237760767437240617
0.393000000000000183,-10.058644791338531732
0.394000000000000183,-9.877944082134160197
0.395000000000000184,-9.695749691507312917
0.396000000000000185,-9.512156333580611189
0.397000000000000186,-9.327262091529812338
0.398000000000000187,-9.141168125971882219
0.399000000000000188,-8.953978385912863658
0.400000000000000189,-8.765799322982664066
0.401000000000000190,-8.576739609626141458
0.402000000000000191,-8.386909861865694538
0.403000000000000191,-8.196422367196310788
0.404000000000000192,-8.005390818123499841
0.405000000000000193,-7.813930051804805821
0.406000000000000194,-7.622155796208437195
0.407000000000000195,-7.430184423157323970
0.408000000000000196,-7.238132708583343344
0.409000000000000197,-7.046117600275448645
0.410000000000000198,-6.854255993366190403
0.411000000000000199,-6.662664513763450813
0.412000000000000199,-6.471459309699230111
0.413000000000000200,-6.280755851533806222
0.414000000000000201,-6.090668739921945019
0.415000000000000202,-5.901311522418051680
0.416000000000000203,-5.712796518569802195
0.417000000000000204,-5.525234653522714368
0.418000000000000205,-5.338735300134714201
0.419000000000000206,-5.153406129576364236
0.420000000000000207,-4.969352970371160083
0.421000000000000207,-4.786679675811553736
0.422000000000000208,-4.605487999666960874
0.423000000000000209,-4.425877480084688287
0.424000000000000210,-4.247945331568512728
0.425000000000000211,-4.071786344906072941
0.426000000000000212,-3.897492794903689717
0.427000000000000213,-3.725154355775482706
0.428000000000000214,-3.554858024023848095
0.429000000000000214,-3.386688048638645476
0.430000000000000215,-3.220725868434818118
0.431000000000000216,-3.057050056341073851
0.432000000000000217,-2.895736270445655069
0.433000000000000218,-2.736857211600580708
0.434000000000000219,-2.580482587381060178
0.435000000000000220,-2.426679082193271775
0.436000000000000221,-2.275510333320857281
0.437000000000000222,-2.127036912698432758
0.438000000000000222,-1.981316314198986461
0.439000000000000223,-1.838402946221258771
0.440000000000000224,-1.698348129362764469
0.441000000000000225,-1.561200098964640848
0.442000000000000226,-1.427004012315470804
0.443000000000000227,-1.295801960301901534
0.444000000000000228,-1.167632983296378546
0.445000000000000229,-1.042533091073757356
0.446000000000000230,-0.920535286551472209
0.447000000000000230,-0.801669593150437287
0.448000000000000231,-0.685963085577180109
0.449000000000000232,-0.573439923830893261
0.450000000000000233,-0.464121390242862364
0.451000000000000234,-0.358025929359457762
0.452000000000000235,-0.255169190483975961
0.453000000000000236,-0.155564072696669692
0.454000000000000237,-0.059220772177034940
0.455000000000000238,0.033853168343694492
0.456000000000000238,0.123652808166623496
0.457000000000000239,0.210175755408629789
0.458000000000000240,0.293422112142454339
0.459000000000000241,0.373394418046738230
0.460000000000000242,0.450097592713627204
0.461000000000000243,0.523538876757417282
0.462000000000000244,0.593727771862177733
0.463000000000000245,0.660675979902032195
0.464000000000000246,0.724397341262224659
0.465000000000000246,0.784907772484747857
0.466000000000000247,0.842225203357216623
0.467000000000000248,0.896369513558972542
0.468000000000000249,0.947362468973513949
0.469000000000000250,0.995227657771815322
0.470000000000000251,1.039990426366343979
0.471000000000000252,1.081677815331125725
0.472000000000000253,1.120318495378447521
0.473000000000000254,1.155942703478772149
0.474000000000000254,1.188582179205742717
0.475000000000000255,1.218270101384052451
0.476000000000000256,1.245041025113878375
0.477000000000000257,1.268930819241262942
0.478000000000000258,1.289976604340124622
0.479000000000000259,1.308216691267585885
0.480000000000000260,1.323690520350436994
0.481000000000000261,1.336438601257140979
0.482000000000000262,1.346502453605863181
0.483000000000000262,1.353924548355937008
0.484000000000000263,1.358748250026458493
0.485000000000000264,1.361017759782759740
0.486000000000000265,1.360778059428016773
0.487000000000000266,1.358074856334564373
0.488000000000000267,1.352954529346341639
0.489000000000000268,1.345464075680919747
0.490000000000000269,1.335651058857287854
0.491000000000000270,1.323563557672326141
0.492000000000000270,1.309250116246943874
0.493000000000000271,1.292759695159911848
0.494000000000000272,1.274141623685614233
0.495000000000000273,1.253445553149054481
0.496000000000000274,1.230721411409996247
0.497000000000000275,1.206019358485597381
0.498000000000000276,1.179389743318945083
0.499000000000000277,1.150883061699454535
0.500000000000000222,1.120549915338665325
0.501000000000000334,1.088440972103915660
0.502000000000000224,1.054606927410234984
0.503000000000000336,1.019098466769613243
0.504000000000000226,0.981966229495201626
0.505000000000000338,0.943260773556572785
0.506000000000000227,0.903032541581058723
0.507000000000000339,0.861331827994712973
0.508000000000000229,0.818208747295601335
0.509000000000000341,0.773713203450552500
0.510000000000000231,0.727894860406146371
0.511000000000000343,0.680803113703029483
0.512000000000000233,0.632487063182511133
0.513000000000000345,0.582995486772763249
0.514000000000000234,0.532376815341928378
0.515000000000000346,0.480679108604142147
0.516000000000000236,0.427950032064295438
0.517000000000000348,0.374236834986152234
0.518000000000000238,0.319586329368734434
0.519000000000000350,0.264044869914304425
0.520000000000000240,0.207658334971988323
0.521000000000000352,0.150472108439493379
0.522000000000000242,0.092531062606152098
0.523000000000000353,0.033879541918966846
0.524000000000000243,-0.025438652345624767
0.525000000000000355,-0.085380276523128518
0.526000000000000245,-0.145902658133437002
0.527000000000000357,-0.206963708603428220
0.528000000000000247,-0.268521935158103464
0.529000000000000359,-0.330536451899483663
0.530000000000000249,-0.392966990092043944
0.531000000000000361,-0.455773907673935608
0.532000000000000250,-0.518918198012846998
0.533000000000000362,-0.582361497925991567
0.534000000000000252,-0.646066094982713279
0.535000000000000364,-0.709994934109606901
0.536000000000000254,-0.774111623516191782
0.537000000000000366,-0.838380439960938029
0.538000000000000256,-0.902766333375775609
0.539000000000000368,-0.967234930868316356
0.540000000000000258,-1.031752540119885264
0.541000000000000369,-1.096286152198334474
0.542000000000000259,-1.160803443803235524
0.543000000000000371,-1.225272778962178233
0.544000000000000261,-1.289663210195620469
0.545000000000000373,-1.353944479168217585
0.546000000000000263,-1.418087016843864623
0.547000000000000375,-1.482061943162161999
0.548000000000000265,-1.545841066252644502
0.549000000000000377,-1.609396881204308016
0.550000000000000266,-1.672702568406257750
0.551000000000000378,-1.735731991476351821
0.552000000000000268,-1.798459694793379970
0.553000000000000380,-1.860860900648874550
0.554000000000000270,-1.922911506033727846
0.555000000000000382,-1.984588079075094047
0.556000000000000272,-2.045867855138217006
0.557000000000000384,-2.106728732607993759
0.558000000000000274,-2.167149268364537473
0.559000000000000385,-2.227108672966806147
0.560000000000000275,-2.286586805557993429
0.561000000000000387,-2.345564168506304004
0.562000000000000277,-2.404021901793970795
0.563000000000000389,-2.461941777167814926
0.564000000000000279,-2.519306192063468508
0.565000000000000391,-2.576098163315964307
0.566000000000000281,-2.632301320668261724
0.567000000000000393,-2.687899900089822491
0.568000000000000282,-2.742878736916251281
0.569000000000000394,-2.797223258821466718
0.570000000000000284,-2.850919478632776283
0.571000000000000396,-2.903953986999980863
0.572000000000000286,-2.956313944928143034
0.573000000000000398,-3.007987076184445385
0.574000000000000288,-3.058961659588488757
0.575000000000000400,-3.109226521195783022
0.576000000000000290,-3.158771026383114133
0.577000000000000401,-3.207585071845153291
0.578000000000000291,-3.255659077510449695
0.579000000000000403,-3.302983978385436892
0.580000000000000293,-3.349551216334307302
0.581000000000000405,-3.395352731802838697
0.582000000000000295,-3.440380955493289150
0.583000000000000407,-3.484628799998229276
0.584000000000000297,-3.528089651399756832
0.585000000000000409,-3.570757360841517514
0.586000000000000298,-3.612626236079535147
0.587000000000000410,-3.653691033018732437
0.588000000000000300,-3.693946947240752454
0.589000000000000412,-3.733389605529447319
0.590000000000000302,-3.772015057399259685
0.591000000000000414,-3.809819766632359883
0.592000000000000304,-3.846800602829426818
0.593000000000000416,-3.882954832979343962
0.594000000000000306,-3.918280113052513336
0.595000000000000417,-3.952774479622536141
0.596000000000000307,-3.986436341520467330
0.597000000000000419,-4.019264471526186711
0.598000000000000309,-4.051257998100752822
0.599000000000000421,-4.082416397163573407
0.600000000000000311,-4.112739483918277372
0.601000000000000423,-4.142227404730702389
0.602000000000000313,-4.170880629062234668
0.603000000000000425,-4.198699941462010088
0.604000000000000314,-4.225686433620625237
0.605000000000000426,-4.251841496488565575
0.606000000000000316,-4.277166812461814516
0.607000000000000428,-4.301664347637371044
0.608000000000000318,-4.325336344141063272
0.609000000000000430,-4.348185312529944113
0.610000000000000320,-4.370214024271334097
0.611000000000000432,-4.391425504300731752
0.612000000000000322,-4.411823023660232046
0.613000000000000433,-4.431410092219410402
0.614000000000000323,-4.450190451480231069
0.615000000000000435,-4.468168067467532367
0.616000000000000325,-4.485347123706382888
0.617000000000000437,-4.501732014287870065
0.618000000000000327,-4.517327337024203970
0.619000000000000439,-4.532137886694447282
0.620000000000000329,-4.546168648381758715
0.621000000000000441,-4.559424790903062963
0.622000000000000330,-4.571911660331942073
0.623000000000000442,-4.583634773615512970
0.624000000000000332,-4.594599812285722784
0.625000000000000444,-4.604812616265887115
0.626000000000000334,-4.614279177772644402
0.627000000000000446,-4.623005635313879758
0.628000000000000336,-4.630998267782833189
0.629000000000000448,-4.638263488648675548
0.630000000000000338,-4.644807840243598385
0.631000000000000449,-4.650637988146675283
0.632000000000000339,-4.655760715664363225
0.633000000000000451,-4.660182918407673291
0.634000000000000341,-4.663911598965867711
0.635000000000000453,-4.666953861676691240
0.636000000000000343,-4.669316907492590651
0.637000000000000455,-4.671008028943068879
0.638000000000000345,-4.672034605192486367
0.639000000000000457,-4.672404097193220807
0.640000000000000346,-4.672124042933603505
0.641000000000000458,-4.671202052780292213
0.642000000000000348,-4.669645804914499543
0.643000000000000460,-4.667463040861600909
0.644000000000000350,-4.664661561113534916
0.645000000000000462,-4.661249220843354912
0.646000000000000352,-4.657233925711338429
0.647000000000000464,-4.652623627761951042
0.648000000000000353,-4.647426321410979000
0.649000000000000465,-4.641650039522039251
0.650000000000000355,-4.635302849571809602
0.651000000000000467,-4.628392849903045558
0.652000000000000357,-4.620928166064770970
0.653000000000000469,-4.612916947238526078
0.654000000000000359,-4.604367362750167558
0.655000000000000471,-4.595287598666006446
0.656000000000000361,-4.585685854472616896
0.657000000000000473,-4.575570339839286405
0.658000000000000362,-4.564949271462259262
0.659000000000000474,-4.553830869989742069
0.660000000000000364,-4.542223357026808905
0.661000000000000476,-4.530134952219134981
0.662000000000000366,-4.517573870414694603
