# Ag100_THYMINE
# h[nm],U(h)[kJ/mol]
0.200000000000000011,148.098183285095927886
0.201000000000000012,138.937279463414625980
0.202000000000000013,133.400763269801416300
0.203000000000000014,129.510830744290075245
0.204000000000000015,126.164635592098036909
0.205000000000000016,122.809612594084001103
0.206000000000000016,119.223911984764896488
0.207000000000000017,115.371350799552629951
0.208000000000000018,111.308482512987581003
0.209000000000000019,107.127523718596734170
0.210000000000000020,102.923447646786982546
0.211000000000000021,98.776937528005873901
0.212000000000000022,94.747378985532222373
0.213000000000000023,90.871882546902412514
0.214000000000000024,87.167635100381716029
0.215000000000000024,83.635812135807810819
0.216000000000000025,80.265939013992110063
0.217000000000000026,77.040043351787588222
0.218000000000000027,73.936247495690651022
0.219000000000000028,70.931651507317795335
0.220000000000000029,68.004483905337721694
0.221000000000000030,65.135572285843352347
0.222000000000000031,62.309225436195063708
0.223000000000000032,59.513634628396538062
0.224000000000000032,56.740902960009840683
0.225000000000000033,53.986803895689561728
0.226000000000000034,51.250357675578968042
0.227000000000000035,48.533299763770251900
0.228000000000000036,45.839500798298409734
0.229000000000000037,43.174383667153271915
0.230000000000000038,40.544370982199509967
0.231000000000000039,37.956385634837211285
0.232000000000000040,35.417418356477355701
0.233000000000000040,32.934169199222637303
0.234000000000000041,30.512764443141996651
0.235000000000000042,28.158546430986529430
0.236000000000000043,25.875931019592805171
0.237000000000000044,23.668325512989991211
0.238000000000000045,21.538098912337179769
0.239000000000000046,19.486595908698166824
0.240000000000000047,17.514186104870798744
0.241000000000000048,15.620340353266522371
0.242000000000000048,13.803726731218720403
0.243000000000000049,12.062319456241109350
0.244000000000000050,10.393514902817656775
0.245000000000000051,8.794249766085256326
0.246000000000000052,7.261117286486414635
0.247000000000000053,5.790478274477175447
0.248000000000000054,4.378564436230155010
0.249000000000000055,3.021572187892162198
0.250000000000000056,1.715745751067231595
0.251000000000000056,0.457448843998346344
0.252000000000000057,-0.756775277059203000
0.253000000000000058,-1.930155309608313274
0.254000000000000059,-3.065654523281001520
0.255000000000000060,-4.165943874086378784
0.256000000000000061,-5.233384818210727651
0.257000000000000062,-6.270020914717640892
0.258000000000000063,-7.277577236253556237
0.259000000000000064,-8.257466573815523958
0.260000000000000064,-9.210801419342352858
0.261000000000000065,-10.138410732432848960
0.262000000000000066,-11.040860539552001640
0.263000000000000067,-11.918477470921137851
0.264000000000000068,-12.771374407774986892
0.265000000000000069,-13.599477487248410768
0.266000000000000070,-14.402553790812486767
0.267000000000000071,-15.180239122409725283
0.268000000000000071,-15.932065362183251978
0.269000000000000072,-16.657486959322781672
0.270000000000000073,-17.355906201782079989
0.271000000000000074,-18.026696970506549178
0.272000000000000075,-18.669226750667704096
0.273000000000000076,-19.282876731786465996
0.274000000000000077,-19.867059882297660067
0.275000000000000078,-20.421236931976640250
0.276000000000000079,-20.944930237766854475
0.277000000000000079,-21.437735545070278675
0.278000000000000080,-21.899331687722956019
0.279000000000000081,-22.329488295978592305
0.280000000000000082,-22.728071603199207829
0.281000000000000083,-23.095048458975735883
0.282000000000000084,-23.430488669455122874
0.283000000000000085,-23.734565795125597276
0.284000000000000086,-24.007556542594205240
0.285000000000000087,-24.249838890357366950
0.286000000000000087,-24.461889089580317602
0.287000000000000088,-24.644277679806755543
0.288000000000000089,-24.797664656639085479
0.289000000000000090,-24.922793924063675775
0.290000000000000091,-25.020487158514672643
0.291000000000000092,-25.091637205231403840
0.292000000000000093,-25.137201120187572911
0.293000000000000094,-25.158192963061701164
0.294000000000000095,-25.155676438554280594
0.295000000000000095,-25.130757474994855016
0.296000000000000096,-25.084576820757458648
0.297000000000000097,-25.018302730631898356
0.298000000000000098,-24.933123806078931750
0.299000000000000099,-24.830242045312342469
0.300000000000000100,-24.710866151465005203
0.301000000000000101,-24.576205139764034868
0.302000000000000102,-24.427462277701849303
0.303000000000000103,-24.265829385675580454
0.304000000000000103,-24.092481519496910636
0.305000000000000104,-23.908572050560746192
0.306000000000000105,-23.715228154309166086
0.307000000000000106,-23.513546712933070637
0.308000000000000107,-23.304590634015816875
0.309000000000000108,-23.089385583025347159
0.310000000000000109,-22.868917124192254420
0.311000000000000110,-22.644128261352900466
0.312000000000000111,-22.415917367768777524
0.313000000000000111,-22.185136491735875097
0.314000000000000112,-21.952590022947443771
0.315000000000000113,-21.719033703047177397
0.316000000000000114,-21.485173962585228935
0.317000000000000115,-21.251667565641049862
0.318000000000000116,-21.019121542683027570
0.319000000000000117,-20.788093391772374474
0.320000000000000118,-20.559091527963900603
0.321000000000000119,-20.332575960689997174
0.322000000000000119,-20.108959179013709218
0.323000000000000120,-19.888607224884037095
0.324000000000000121,-19.671840934902252940
0.325000000000000122,-19.458937331594917453
0.326000000000000123,-19.250131145771394614
0.327000000000000124,-19.045616452204633617
0.328000000000000125,-18.845548401602307820
0.329000000000000126,-18.650045032614826823
0.330000000000000127,-18.459189148447872952
0.331000000000000127,-18.273030243499288616
0.332000000000000128,-18.091586466311049719
0.333000000000000129,-17.914846606011572305
0.334000000000000130,-17.742772090310431565
0.335000000000000131,-17.575298983992883706
0.336000000000000132,-17.412339977736245089
0.337000000000000133,-17.253786357931709006
0.338000000000000134,-17.099509949036544754
0.339000000000000135,-16.949365020800932768
0.340000000000000135,-16.803190153505713766
0.341000000000000136,-16.660810055111152650
0.342000000000000137,-16.522037324948762205
0.343000000000000138,-16.386674159287377250
0.344000000000000139,-16.254513994769570928
0.345000000000000140,-16.125343086344226862
0.346000000000000141,-15.998942016914591946
0.347000000000000142,-15.875087136479162808
0.348000000000000143,-15.753551929064737891
0.349000000000000143,-15.634108306236607078
0.350000000000000144,-15.516527826422182201
0.351000000000000145,-15.400582839700479809
0.352000000000000146,-15.286047558092509036
0.353000000000000147,-15.172699051737478015
0.354000000000000148,-15.060318171658039432
0.355000000000000149,-14.948690400105196119
0.356000000000000150,-14.837606629732221108
0.357000000000000151,-14.726863873077110867
0.358000000000000151,-14.616265904036989554
0.359000000000000152,-14.505623833196301220
0.360000000000000153,-14.394756619025224964
0.361000000000000154,-14.283491517096802426
0.362000000000000155,-14.171664469581969570
0.363000000000000156,-14.059120437372945034
0.364000000000000157,-13.945713677257566943
0.365000000000000158,-13.831307966623137773
0.366000000000000159,-13.715776778207146691
0.367000000000000159,-13.599003407437299629
0.368000000000000160,-13.480881054914826578
0.369000000000000161,-13.361312866593475945
0.370000000000000162,-13.240211934194681120
0.371000000000000163,-13.117501258377121331
0.372000000000000164,-12.993113677146672202
0.373000000000000165,-12.866991761953894269
0.374000000000000166,-12.739087683878162593
0.375000000000000167,-12.609363052244752623
0.376000000000000167,-12.477788727961813819
0.377000000000000168,-12.344344613800014798
0.378000000000000169,-12.209019423769708723
0.379000000000000170,-12.071810433678958674
0.380000000000000171,-11.932723214880750717
0.381000000000000172,-11.791771353141680123
0.382000000000000173,-11.648976154485014334
0.383000000000000174,-11.504366339782169604
0.384000000000000175,-11.357977729785050158
0.385000000000000175,-11.209852922211444692
0.386000000000000176,-11.060040962414245058
0.387000000000000177,-10.908597009084413543
0.388000000000000178,-10.755581996357992836
0.389000000000000179,-10.601062293617625087
0.390000000000000180,-10.445109364201492497
0.391000000000000181,-10.287799424155549488
0.392000000000000182,-10.129213102090167453
0.393000000000000183,-9.969435101128373944
0.394000000000000183,-9.808553863861982691
0.395000000000000184,-9.646661241162032496
0.396000000000000185,-9.483852165622518982
0.397000000000000186,-9.320224330351601694
0.398000000000000187,-9.155877873761218311
0.399000000000000188,-8.990915070945462162
0.400000000000000189,-8.825440032180230432
0.401000000000000190,-8.659558409020249314
0.402000000000000191,-8.493377108416908072
0.403000000000000191,-8.327004015228535394
0.404000000000000192,-8.160547723446866186
0.405000000000000193,-7.994117276416784712
0.406000000000000194,-7.827821916282838188
0.407000000000000195,-7.661770842854520147
0.408000000000000196,-7.496072982042943700
0.409000000000000197,-7.330836763984814652
0.410000000000000198,-7.166169910934884868
0.411000000000000199,-7.002179234975287159
0.412000000000000199,-6.838970445559885647
0.413000000000000200,-6.676647966883447971
0.414000000000000201,-6.515314765038775491
0.415000000000000202,-6.355072184900408594
0.416000000000000203,-6.196019796651375700
0.417000000000000204,-6.038255251847699512
0.418000000000000205,-5.881874148897121124
0.419000000000000206,-5.726969907810469884
0.420000000000000207,-5.573633654068120613
0.421000000000000207,-5.421954111430256518
0.422000000000000208,-5.272017503505648683
0.423000000000000209,-5.123907463883210056
0.424000000000000210,-4.977704954619449396
0.425000000000000211,-4.833488192866421507
0.426000000000000212,-4.691332585416804868
0.427000000000000213,-4.551310670935985847
0.428000000000000214,-4.413492069645598370
0.429000000000000214,-4.277943440217956805
0.430000000000000215,-4.144728443637452742
0.431000000000000216,-4.013907713782152165
0.432000000000000217,-3.885538834476503833
0.433000000000000218,-3.759676322765211243
0.434000000000000219,-3.636371618157733021
0.435000000000000220,-3.515673077592944562
0.436000000000000221,-3.397625975874361437
0.437000000000000222,-3.282272511327739117
0.438000000000000222,-3.169651816434691405
0.439000000000000223,-3.059799973198562562
0.440000000000000224,-2.952750033001242169
0.441000000000000225,-2.848532040713287028
0.442000000000000226,-2.747173062823246248
0.443000000000000227,-2.648697219355717447
0.444000000000000228,-2.553125719352499878
0.445000000000000229,-2.460476899695193786
0.446000000000000230,-2.370766267052843101
0.447000000000000230,-2.284006542742812673
0.448000000000000231,-2.200207710298585528
0.449000000000000232,-2.119377065543313954
0.450000000000000233,-2.041519268973459589
0.451000000000000234,-1.966636400262530060
0.452000000000000235,-1.894728014700457042
0.453000000000000236,-1.825791201389902030
0.454000000000000237,-1.759820643026845488
0.455000000000000238,-1.696808677098102125
0.456000000000000238,-1.636745358334865674
0.457000000000000239,-1.579618522266627689
0.458000000000000240,-1.525413849726235060
0.459000000000000241,-1.474114932162040148
0.460000000000000242,-1.425703337619487421
0.461000000000000243,-1.380158677259611721
0.462000000000000244,-1.337458672288092343
0.463000000000000245,-1.297579221173636999
0.464000000000000246,-1.260494467040408129
0.465000000000000246,-1.226176865124307458
0.466000000000000247,-1.194597250188489390
0.467000000000000248,-1.165724903798501133
0.468000000000000249,-1.139527621362879772
0.469000000000000250,-1.115971778849794038
0.470000000000000251,-1.095022399095396448
0.471000000000000252,-1.076643217624214000
0.472000000000000253,-1.060796747906946447
0.473000000000000254,-1.047444345985030445
0.474000000000000254,-1.036546274396348721
0.475000000000000255,-1.028061765340433142
0.476000000000000256,-1.021949083025786909
0.477000000000000257,-1.018165585146122876
0.478000000000000258,-1.016667783436122852
0.479000000000000259,-1.017411403261131664
0.480000000000000260,-1.020351442199090020
0.481000000000000261,-1.025442227576235821
0.482000000000000262,-1.032637472921914545
0.483000000000000262,-1.041890333310775407
0.484000000000000263,-1.053153459564124761
0.485000000000000264,-1.066379051285022417
0.486000000000000265,-1.081518908704897086
0.487000000000000266,-1.098524483322010692
0.488000000000000267,-1.117346927314926130
0.489000000000000268,-1.137937141716886202
0.490000000000000269,-1.160245823339054017
0.491000000000000270,-1.184223510433432436
0.492000000000000270,-1.209820627088079359
0.493000000000000271,-1.236987526349770494
0.494000000000000272,-1.265674532070832914
0.495000000000000273,-1.295831979479457718
0.496000000000000274,-1.327410254473871065
0.497000000000000275,-1.360359831643063622
0.498000000000000276,-1.394631311018277753
0.499000000000000277,-1.430175453560699861
0.500000000000000222,-1.466943215392821909
0.501000000000000334,-1.504885780781678450
0.502000000000000224,-1.543954593884035109
0.503000000000000336,-1.584101389264387372
0.504000000000000226,-1.625278221197940187
0.505000000000000338,-1.667437491771881053
0.506000000000000227,-1.710531977798926961
0.507000000000000339,-1.754514856558459401
0.508000000000000229,-1.799339730380874913
0.509000000000000341,-1.844960650092250631
0.510000000000000231,-1.891332137336274144
0.511000000000000343,-1.938409205791909784
0.512000000000000233,-1.986147381305034987
0.513000000000000345,-2.034502720953630828
0.514000000000000234,-2.083431831065808648
0.515000000000000346,-2.132891884211042033
0.516000000000000236,-2.182840635184776890
0.517000000000000348,-2.233236436007514314
0.518000000000000238,-2.284038249959080336
0.519000000000000350,-2.335205664669771863
0.520000000000000240,-2.386698904289460188
0.521000000000000352,-2.438478840756771238
0.522000000000000242,-2.490507004189620233
0.523000000000000353,-2.542745592419580980
0.524000000000000243,-2.595157479691343916
0.525000000000000355,-2.647706224549852383
0.526000000000000245,-2.700356076936505367
0.527000000000000357,-2.753071984516819004
0.528000000000000247,-2.805819598260964831
0.529000000000000359,-2.858565277299262686
0.530000000000000249,-2.911276093074037341
0.531000000000000361,-2.963919832809534860
0.532000000000000250,-3.016465002321020883
0.533000000000000362,-3.068880828184579190
0.534000000000000252,-3.121137259288036425
0.535000000000000364,-3.173204967784555297
0.536000000000000254,-3.225055349468567645
0.537000000000000366,-3.276660523595133157
0.538000000000000256,-3.327993332162164197
0.539000000000000368,-3.379027338675746339
0.540000000000000258,-3.429736826417666862
0.541000000000000369,-3.480096796234785295
0.542000000000000259,-3.530082963868654389
0.543000000000000371,-3.579671756844499786
0.544000000000000261,-3.628840310937475611
0.545000000000000373,-3.677566466234397868
0.546000000000000263,-3.725828762808367944
0.547000000000000375,-3.773606436023939636
0.548000000000000265,-3.820879411489345845
0.549000000000000377,-3.867628299672895675
0.550000000000000266,-3.913834390199364854
0.551000000000000378,-3.959479645842733042
0.552000000000000268,-4.004546696230521619
0.553000000000000380,-4.049018831275196462
0.554000000000000270,-4.092879994347359940
0.555000000000000382,-4.136114775205408378
0.556000000000000272,-4.178708402695713531
0.557000000000000384,-4.220646737237187196
0.558000000000000274,-4.261916263103795011
0.559000000000000385,-4.302504080518002816
0.560000000000000275,-4.342397897568025300
0.561000000000000387,-4.381586021961348720
0.562000000000000277,-4.420057352626423963
0.563000000000000389,-4.457801371174578087
0.564000000000000279,-4.494808133233233249
0.565000000000000391,-4.531068259661815922
0.566000000000000281,-4.566572927660772052
0.567000000000000393,-4.601313861784450232
0.568000000000000282,-4.635283324867626398
0.569000000000000394,-4.668474108875732220
0.570000000000000284,-4.700879525687884808
0.571000000000000396,-4.732493397822318926
0.572000000000000286,-4.763310049112617683
0.573000000000000398,-4.793324295343580843
0.574000000000000288,-4.822531434854742116
0.575000000000000400,-4.850927239119751988
0.576000000000000290,-4.878507943308928674
0.577000000000000401,-4.905270236842726561
0.578000000000000291,-4.931211253942889172
0.579000000000000403,-4.956328564188349439
0.580000000000000293,-4.980620163082262408
0.581000000000000405,-5.004084462636647856
0.582000000000000295,-5.026720281980420424
0.583000000000000407,-5.048526837996937466
0.584000000000000297,-5.069503735996216953
0.585000000000000409,-5.089650960427515969
0.586000000000000298,-5.108968865636989598
0.587000000000000410,-5.127458166675540774
0.588000000000000300,-5.145119930161270894
0.589000000000000412,-5.161955565201075125
0.590000000000000302,-5.177966814375432492
0.591000000000000414,-5.193155744790496797
0.592000000000000304,-5.207524739201137898
0.593000000000000416,-5.221076487208558881
0.594000000000000306,-5.233813976535854451
0.595000000000000417,-5.245740484384766589
0.596000000000000307,-5.256859568876481426
0.597000000000000419,-5.267175060579483592
0.598000000000000309,-5.276691054127040204
0.599000000000000421,-5.285411899926744539
0.600000000000000311,-5.293342195964600982
0.601000000000000423,-5.300486779705683382
0.602000000000000313,-5.306850720093406082
0.603000000000000425,-5.312439309649398922
0.604000000000000314,-5.317258056675514766
0.605000000000000426,-5.321312677559728144
0.606000000000000316,-5.324609089187278599
0.607000000000000428,-5.327153401458368798
0.608000000000000318,-5.328951909913746121
0.609000000000000430,-5.330011088469047920
0.610000000000000320,-5.330337582259002005
0.611000000000000432,-5.329938200592270192
0.612000000000000322,-5.328819910017688066
0.613000000000000433,-5.326989827502482733
0.614000000000000323,-5.324455213723070734
0.615000000000000435,-5.321223466468783414
0.616000000000000325,-5.317302114158851012
0.617000000000000437,-5.312698809472983896
0.618000000000000327,-5.307421323095581123
0.619000000000000439,-5.301477537573672905
0.620000000000000329,-5.294875441288658280
0.621000000000000441,-5.287623122541604381
0.622000000000000330,-5.279728763752093990
0.623000000000000442,-5.271200635770290077
0.624000000000000332,-5.262047092301910034
0.625000000000000444,-5.252276564445811147
0.626000000000000334,-5.241897555343719262
0.627000000000000446,-5.230918634941553513
0.628000000000000336,-5.219348434861920794
0.629000000000000448,-5.207195643387077411
0.630000000000000338,-5.194469000551746873
0.631000000000000449,-5.181177293345077928
0.632000000000000339,-5.167329351021074046
0.633000000000000451,-5.152934040516527148
0.634000000000000341,-5.138000261975822269
0.635000000000000453,-5.122536944381645085
0.636000000000000343,-5.106553041290654349
0.637000000000000455,-5.090057526673259503
0.638000000000000345,-5.073059390856469619
0.639000000000000457,-5.055567636568799372
0.640000000000000346,-5.037591275086283460
0.641000000000000458,-5.019139322478388898
0.642000000000000348,-5.000220795952923680
0.643000000000000460,-4.980844710298626410
0.644000000000000350,-4.961020074424521198
0.645000000000000462,-4.940755887994655815
0.646000000000000352,-4.920061138157281633
0.647000000000000464,-4.898944796367075583
0.648000000000000353,-4.877415815299428914
0.649000000000000465,-4.855483125855286630
0.650000000000000355,-4.833155634255684951
0.651000000000000467,-4.810442219224339233
0.652000000000000357,-4.787351729257435018
0.653000000000000469,-4.763892979978944453
0.654000000000000359,-4.740074751580660717
0.655000000000000471,-4.715905786345228279
0.656000000000000361,-4.691394786251247062
0.657000000000000473,-4.666550410658905079
0.658000000000000362,-4.641381274075086161
0.659000000000000474,-4.615895943996442874
0.660000000000000364,-4.590102938829357271
