# Ag100_THYMINE
# h[nm],U(h)[kJ/mol]
0.149999999999999994,135.236279618875386177
0.150999999999999995,130.285411790365117213
0.151999999999999996,125.640781183967220613
0.152999999999999997,121.120207626579968974
0.153999999999999998,116.685462168857227994
0.154999999999999999,112.347669896141496793
0.156000000000000000,108.124767001500913466
0.157000000000000001,104.026217845607106938
0.158000000000000002,100.050733131627069383
0.159000000000000002,96.189174026588858624
0.160000000000000003,92.428659556457006374
0.161000000000000004,88.756089765307336847
0.162000000000000005,85.160488131587300131
0.163000000000000006,81.634159463598024331
0.164000000000000007,78.172909645869395945
0.165000000000000008,74.775638735675087787
0.166000000000000009,71.443593320354210618
0.167000000000000010,68.179501962245936397
0.168000000000000010,64.986748336095928380
0.169000000000000011,61.868674668854040988
0.170000000000000012,58.828058997102402827
0.171000000000000013,55.866774484101412668
0.172000000000000014,52.985616154410728029
0.173000000000000015,50.184267530871494500
0.174000000000000016,47.461374253627163000
0.175000000000000017,44.814691512928042982
0.176000000000000018,42.241275124818550069
0.177000000000000018,39.737690845730909928
0.178000000000000019,37.300221988146390117
0.179000000000000020,34.925060838502936633
0.180000000000000021,32.608474338046100627
0.181000000000000022,30.346938721665601690
0.182000000000000023,28.137241221401787072
0.183000000000000024,25.976549532762156502
0.184000000000000025,23.862451578343446101
0.185000000000000026,21.792969284141271658
0.186000000000000026,19.766550723521099542
0.187000000000000027,17.782045197277007276
0.188000000000000028,15.838665713055245732
0.189000000000000029,13.935942998708711116
0.190000000000000030,12.073674712171392542
0.191000000000000031,10.251872960332201856
0.192000000000000032,8.470712661854197023
0.193000000000000033,6.730482721642782273
0.194000000000000034,5.031541454227875576
0.195000000000000034,3.374277216852620942
0.196000000000000035,1.759074800235089997
0.197000000000000036,0.186287779636091055
0.198000000000000037,-1.343783249458675000
0.199000000000000038,-2.830906841608440416
0.200000000000000039,-4.274931725221239986
0.201000000000000040,-5.675793233421240203
0.202000000000000041,-7.033515757724072337
0.203000000000000042,-8.348211866148464111
0.204000000000000042,-9.620078724062771869
0.205000000000000043,-10.849392430109308094
0.206000000000000044,-12.036500836899030276
0.207000000000000045,-13.181815371996998820
0.208000000000000046,-14.285802313444031952
0.209000000000000047,-15.348973909341395938
0.210000000000000048,-16.371879665820110006
0.211000000000000049,-17.355098064329929741
0.212000000000000050,-18.299228909351253236
0.213000000000000050,-19.204886452577753175
0.214000000000000051,-20.072693390148103276
0.215000000000000052,-20.903275786062806674
0.216000000000000053,-21.697258937665793610
0.217000000000000054,-22.455264167930771180
0.218000000000000055,-23.177906504023322753
0.219000000000000056,-23.865793181838153458
0.220000000000000057,-24.519522901482353916
0.221000000000000058,-25.139685748465279147
0.222000000000000058,-25.726863689137132951
0.223000000000000059,-26.281631546130665100
0.224000000000000060,-26.804558359679504065
0.225000000000000061,-27.296209043198295774
0.226000000000000062,-27.757146245937168061
0.227000000000000063,-28.187932341432524908
0.228000000000000064,-28.589131467471048609
0.229000000000000065,-28.961311551020703092
0.230000000000000066,-29.305046259753709137
0.231000000000000066,-29.620916830137741016
0.232000000000000067,-29.909513730382723651
0.233000000000000068,-30.171438124624994970
0.234000000000000069,-30.407303112466383510
0.235000000000000070,-30.617734725252365280
0.236000000000000071,-30.803372667190370038
0.237000000000000072,-30.964870795521846958
0.238000000000000073,-31.102897339435834567
0.239000000000000073,-31.218134862230982662
0.240000000000000074,-31.311279975402442233
0.241000000000000075,-31.383042816858193191
0.242000000000000076,-31.434146308383645874
0.243000000000000077,-31.465325209804397844
0.244000000000000078,-31.477324989083381723
0.245000000000000079,-31.470900528870082269
0.246000000000000080,-31.446814690844860252
0.247000000000000081,-31.405836759612451914
0.248000000000000081,-31.348740787944887387
0.249000000000000082,-31.276303864898984841
0.250000000000000111,-31.189304327784117987
0.251000000000000112,-31.088519938171089052
0.252000000000000113,-30.974726041157602197
0.253000000000000114,-30.848693725971436663
0.254000000000000115,-30.711188004741138968
0.255000000000000115,-30.562966024919283825
0.256000000000000116,-30.404775329441537934
0.257000000000000117,-30.237352177265712783
0.258000000000000118,-30.061419935484366306
0.259000000000000119,-29.877687552761521772
0.260000000000000120,-29.686848122425704588
0.261000000000000121,-29.489577542171325319
0.262000000000000122,-29.286533275993207326
0.263000000000000123,-29.078353222710500603
0.264000000000000123,-28.865654694239299971
0.265000000000000124,-28.649033505648276332
0.266000000000000125,-28.429063177988648903
0.267000000000000126,-28.206294253926181170
0.268000000000000127,-27.981253725324556569
0.269000000000000128,-27.754444571133888076
0.270000000000000129,-27.526345403225757735
0.271000000000000130,-27.297410217185579029
0.272000000000000131,-27.068068244521498400
0.273000000000000131,-26.838723902273937227
0.274000000000000132,-26.609756835607772274
0.275000000000000133,-26.381522048637123135
0.276000000000000134,-26.154350118464691377
0.277000000000000135,-25.928547487212632916
0.278000000000000136,-25.704396826672216037
0.279000000000000137,-25.482157470103590668
0.280000000000000138,-25.262065905668581678
0.281000000000000139,-25.044336325975042001
0.282000000000000139,-24.829161228246533710
0.283000000000000140,-24.616712059701704618
0.284000000000000141,-24.407139902829783296
0.285000000000000142,-24.200576195378211253
0.286000000000000143,-23.997133480022206697
0.287000000000000144,-23.796906178859650538
0.288000000000000145,-23.599971388066563804
0.289000000000000146,-23.406389688253163683
0.290000000000000147,-23.216205966277918549
0.291000000000000147,-23.029450244501809664
0.292000000000000148,-22.846138513697365369
0.293000000000000149,-22.666273566062386635
0.294000000000000150,-22.489845825026524295
0.295000000000000151,-22.316834168777120340
0.296000000000000152,-22.147206744667190748
0.297000000000000153,-21.980921771903457085
0.298000000000000154,-21.817928330141416637
0.299000000000000155,-21.658167131840180275
0.300000000000000155,-21.501571276448629533
0.301000000000000156,-21.348066984706058236
0.302000000000000157,-21.197574311545285042
0.303000000000000158,-21.050007836282485840
0.304000000000000159,-20.905277328965670591
0.305000000000000160,-20.763288391932395172
0.306000000000000161,-20.623943075797296132
0.307000000000000162,-20.487140469250071817
0.308000000000000163,-20.352777262195512975
0.309000000000000163,-20.220748281908758059
0.310000000000000164,-20.090947002010910438
0.311000000000000165,-19.963266024193025316
0.312000000000000166,-19.837597532730207206
0.313000000000000167,-19.713833721932154219
0.314000000000000168,-19.591867196772618342
0.315000000000000169,-19.471591347027622732
0.316000000000000170,-19.352900695331850756
0.317000000000000171,-19.235691219633938687
0.318000000000000171,-19.119860650595178697
0.319000000000000172,-19.005308744533195409
0.320000000000000173,-18.891937532561421165
0.321000000000000174,-18.779651546618797653
0.322000000000000175,-18.668358023120887879
0.323000000000000176,-18.557967084995006246
0.324000000000000177,-18.448391902887202320
0.325000000000000178,-18.339548836349869987
0.326000000000000179,-18.231357555834208029
0.327000000000000179,-18.123741146322903006
0.328000000000000180,-18.016626193445439696
0.329000000000000181,-17.909942852922007717
0.330000000000000182,-17.803624904180772148
0.331000000000000183,-17.697609788990796176
0.332000000000000184,-17.591838635945219238
0.333000000000000185,-17.486256271621037683
0.334000000000000186,-17.380811219229578057
0.335000000000000187,-17.275455685558014807
0.336000000000000187,-17.170145536986929358
0.337000000000000188,-17.064840265350746051
0.338000000000000189,-16.959502944389676315
0.339000000000000190,-16.854100177521026183
0.340000000000000191,-16.748602037636224793
0.341000000000000192,-16.642981999608561949
0.342000000000000193,-16.537216866172204988
0.343000000000000194,-16.431286687810466418
0.344000000000000195,-16.325174677266581114
0.345000000000000195,-16.218867119265972576
0.346000000000000196,-16.112353276014140135
0.347000000000000197,-16.005625289009472567
0.348000000000000198,-15.898678077685726606
0.349000000000000199,-15.791509235373576203
0.350000000000000200,-15.684118923046838745
0.351000000000000201,-15.576509761294001777
0.352000000000000202,-15.468686720931966505
0.353000000000000203,-15.360657012655405396
0.354000000000000203,-15.252429976091672614
0.355000000000000204,-15.144016968608687179
0.356000000000000205,-15.035431254201020224
0.357000000000000206,-14.926687892757893650
0.358000000000000207,-14.817803629995410120
0.359000000000000208,-14.708796788315490645
0.360000000000000209,-14.599687158833901890
0.361000000000000210,-14.490495894800673682
0.362000000000000210,-14.381245406617901850
0.363000000000000211,-14.271959258642215929
0.364000000000000212,-14.162662067942065391
0.365000000000000213,-14.053379405163635596
0.366000000000000214,-13.944137697643693485
0.367000000000000215,-13.834964134892388188
0.368000000000000216,-13.725886576555291541
0.369000000000000217,-13.616933462949670997
0.370000000000000218,-13.508133728257769590
0.371000000000000218,-13.399516716447033460
0.372000000000000219,-13.291112099975993743
0.373000000000000220,-13.182949801333389672
0.374000000000000221,-13.075059917447788393
0.375000000000000222,-12.967472646995130248
0.376000000000000223,-12.860218220622751772
0.377000000000000224,-12.753326834099505405
0.378000000000000225,-12.646828584393865924
0.379000000000000226,-12.540753408674287783
0.380000000000000226,-12.435131026219265138
0.381000000000000227,-12.329990883217847752
0.382000000000000228,-12.225362100435777535
0.383000000000000229,-12.121273423716624862
0.384000000000000230,-12.017753177282282095
0.385000000000000231,-11.914829219792839154
0.386000000000000232,-11.812528903121316759
0.387000000000000233,-11.710879033795105642
0.388000000000000234,-11.609905837052554745
0.389000000000000234,-11.509634923460110301
0.390000000000000235,-11.410091258032382555
0.391000000000000236,-11.311299131795657047
0.392000000000000237,-11.213282135732676181
0.393000000000000238,-11.116063137045246734
0.394000000000000239,-11.019664257669194996
0.395000000000000240,-10.924106854975388359
0.396000000000000241,-10.829411504589224080
0.397000000000000242,-10.735597985260177722
0.398000000000000242,-10.642685265712676923
0.399000000000000243,-10.550691493408898225
0.400000000000000244,-10.459633985153951485
0.401000000000000245,-10.369529219474211246
0.402000000000000246,-10.280392830699195628
0.403000000000000247,-10.192239604677965303
0.404000000000000248,-10.105083476061642145
0.405000000000000249,-10.018937527083760841
0.406000000000000250,-9.933813987771216603
0.407000000000000250,-9.849724237519261294
0.408000000000000251,-9.766678807964778386
0.409000000000000252,-9.684687387093292799
0.410000000000000253,-9.603758824515939097
0.411000000000000254,-9.523901137854053900
0.412000000000000255,-9.445121520170019380
0.413000000000000256,-9.367426348384446655
0.414000000000000257,-9.290821192620844826
0.415000000000000258,-9.215310826420648027
0.416000000000000258,-9.140899237772506680
0.417000000000000259,-9.067589640901408288
0.418000000000000260,-8.995384488764615938
0.419000000000000261,-8.924285486202741424
0.420000000000000262,-8.854293603696044457
0.421000000000000263,-8.785409091677328419
0.422000000000000264,-8.717631495354378757
0.423000000000000265,-8.650959669996428403
0.424000000000000266,-8.585391796640802653
0.425000000000000266,-8.520925398177102039
0.426000000000000267,-8.457557355768065221
0.427000000000000268,-8.395283925567682104
0.428000000000000269,-8.334100755698587548
0.429000000000000270,-8.274002903452288393
0.430000000000000271,-8.214984852677227778
0.431000000000000272,-8.157040531321154475
0.432000000000000273,-8.100163329095618536
0.433000000000000274,-8.044346115231991945
0.434000000000000274,-7.989581256299574719
0.435000000000000275,-7.935860634057840812
0.436000000000000276,-7.883175663316277948
0.437000000000000277,-7.831517309776304891
0.438000000000000278,-7.780876107831358190
0.439000000000000279,-7.731242178302304424
0.440000000000000280,-7.682605246086507300
0.441000000000000281,-7.634954657700220082
0.442000000000000282,-7.588279398695073397
0.443000000000000282,-7.542568110930422343
0.444000000000000283,-7.497809109684675732
0.445000000000000284,-7.453990400589532328
0.446000000000000285,-7.411099696372211554
0.447000000000000286,-7.369124433391863072
0.448000000000000287,-7.328051787957015506
0.449000000000000288,-7.287868692412192040
0.450000000000000289,-7.248561850982544463
0.451000000000000290,-7.210117755366209913
0.452000000000000290,-7.172522700065092849
0.453000000000000291,-7.135762797445432959
0.454000000000000292,-7.099823992520418514
0.455000000000000293,-7.064692077447745078
0.456000000000000294,-7.030352705735890773
0.457000000000000295,-6.996791406153455739
0.458000000000000296,-6.963993596336599978
0.459000000000000297,-6.931944596090367838
0.460000000000000298,-6.900629640380112839
0.461000000000000298,-6.870033892009968390
0.462000000000000299,-6.840142453985862403
0.463000000000000300,-6.810940381561010781
0.464000000000000301,-6.782412693962427852
0.465000000000000302,-6.754544385797446537
0.466000000000000303,-6.727320438139743786
0.467000000000000304,-6.700725829294645663
0.468000000000000305,-6.674745545244171296
0.469000000000000306,-6.649364589772429390
0.470000000000000306,-6.624567994272489102
0.471000000000000307,-6.600340827236078844
0.472000000000000308,-6.576668203428011061
0.473000000000000309,-6.553535292747295848
0.474000000000000310,-6.530927328777306862
0.475000000000000311,-6.508829617027754644
0.476000000000000312,-6.487227542871259800
0.477000000000000313,-6.466106579177706593
0.478000000000000314,-6.445452293649735154
0.479000000000000314,-6.425250355863008522
0.480000000000000315,-6.405486544014882710
0.481000000000000316,-6.386146751385608056
0.482000000000000317,-6.367216992516004481
0.483000000000000318,-6.348683409105989384
0.484000000000000319,-6.330532275638264039
0.485000000000000320,-6.312750004731780606
0.486000000000000321,-6.295323152229544306
0.487000000000000322,-6.278238422025503418
0.488000000000000322,-6.261482670635359682
0.489000000000000323,-6.245042911516239137
0.490000000000000324,-6.228906319140106618
0.491000000000000325,-6.213060232826086882
0.492000000000000326,-6.197492160336614653
0.493000000000000327,-6.182189781242691140
0.494000000000000328,-6.167140950063291882
0.495000000000000329,-6.152333699184199034
0.496000000000000330,-6.137756241561336701
0.497000000000000330,-6.123396973213980132
0.498000000000000331,-6.109244475512883632
0.499000000000000332,-6.095287517268660693
0.500000000000000333,-6.081515056625545590
0.501000000000000334,-6.067916242765766022
0.502000000000000335,-6.054480417429635608
0.503000000000000336,-6.041197116256581623
0.504000000000000337,-6.028056069952134166
0.505000000000000338,-6.015047205286002452
0.506000000000000338,-6.002160645926254645
0.507000000000000339,-5.989386713114589256
0.508000000000000340,-5.976715926187643468
0.509000000000000341,-5.964139002949246482
0.510000000000000342,-5.951646859898410469
0.511000000000000343,-5.939230612317905056
0.512000000000000344,-5.926881574228089811
0.513000000000000345,-5.914591258210661451
0.514000000000000346,-5.902351375106993814
0.515000000000000346,-5.890153833595488386
0.516000000000000347,-5.877990739652432239
0.517000000000000348,-5.865854395900883311
0.518000000000000349,-5.853737300851650005
0.519000000000000350,-5.841632148040863726
0.520000000000000351,-5.829531825068186457
0.521000000000000352,-5.817429412539777189
0.522000000000000353,-5.805318182920034431
0.523000000000000353,-5.793191599296090288
0.524000000000000354,-5.781043314058909921
0.525000000000000355,-5.768867167504760474
0.526000000000000356,-5.756657186360798484
0.527000000000000357,-5.744407582238411969
0.528000000000000358,-5.732112750017845038
0.529000000000000359,-5.719767266167568920
0.530000000000000360,-5.707365887001865090
0.531000000000000361,-5.694903546879866774
0.532000000000000361,-5.682375356349334439
0.533000000000000362,-5.669776600238295217
0.534000000000000363,-5.657102735697704610
0.535000000000000364,-5.644349390198018845
0.536000000000000365,-5.631512359482708341
0.537000000000000366,-5.618587605481513592
0.538000000000000367,-5.605571254186223484
0.539000000000000368,-5.592459593491694747
0.540000000000000369,-5.579249071004706906
0.541000000000000369,-5.565936291823238236
0.542000000000000370,-5.552518016288617630
0.543000000000000371,-5.538991157712939817
0.544000000000000372,-5.525352780084164195
0.545000000000000373,-5.511600095751014727
0.546000000000000374,-5.497730463090046982
0.547000000000000375,-5.483741384156826548
0.548000000000000376,-5.469630502323462373
0.549000000000000377,-5.455395599904338866
0.550000000000000377,-5.441034595772034521
0.551000000000000378,-5.426545542965281577
0.552000000000000379,-5.411926626290797238
0.553000000000000380,-5.397176159920630489
0.554000000000000381,-5.382292584986797301
0.555000000000000382,-5.367274467174799391
0.556000000000000383,-5.352120494317484933
0.557000000000000384,-5.336829473990906791
0.558000000000000385,-5.321400331113484761
0.559000000000000385,-5.305832105549935562
0.560000000000000386,-5.290123949721245999
0.561000000000000387,-5.274275126222031318
0.562000000000000388,-5.258285005446444949
0.563000000000000389,-5.242153063223830678
0.564000000000000390,-5.225878878465250565
0.565000000000000391,-5.209462130821984616
0.566000000000000392,-5.192902598356957888
0.567000000000000393,-5.176200155230183952
0.568000000000000393,-5.159354769399026708
0.569000000000000394,-5.142366500334299317
0.570000000000000395,-5.125235496753001385
0.571000000000000396,-5.107961994368427128
0.572000000000000397,-5.090546313658542488
0.573000000000000398,-5.072988857653262684
0.574000000000000399,-5.055290109741329196
0.575000000000000400,-5.037450631497479847
0.576000000000000401,-5.019471060530436901
0.577000000000000401,-5.001352108352411285
0.578000000000000402,-4.983094558270524388
0.579000000000000403,-4.964699263300767385
0.580000000000000404,-4.946167144104903102
0.581000000000000405,-4.927499186950795362
0.582000000000000406,-4.908696441696544177
0.583000000000000407,-4.889760019798795376
0.584000000000000408,-4.870691092345653672
0.585000000000000409,-4.851490888114422084
0.586000000000000409,-4.832160691654509677
0.587000000000000410,-4.812701841395817581
0.588000000000000411,-4.793115727782742752
0.589000000000000412,-4.773403791434144061
0.590000000000000413,-4.753567521329338241
0.591000000000000414,-4.733608453020397455
0.592000000000000415,-4.713528166870869285
0.593000000000000416,-4.693328286320978648
0.594000000000000417,-4.673010476179532802
0.595000000000000417,-4.652576440942548963
0.596000000000000418,-4.632027923138617886
0.597000000000000419,-4.611366701701226312
0.598000000000000420,-4.590594590367825134
0.599000000000000421,-4.569713436105898197
0.600000000000000422,-4.548725117565836307
0.601000000000000423,-4.527631543560712402
0.602000000000000424,-4.506434651572872596
0.603000000000000425,-4.485136406287326238
0.604000000000000425,-4.463738798151794640
0.605000000000000426,-4.442243841963458451
0.606000000000000427,-4.420653575482234032
0.607000000000000428,-4.398970058070433176
0.608000000000000429,-4.377195369358835464
