# Ag100_BSAI28
# h[nm],U(h)[kJ/mol]
0.149999999999999994,128.711747193951424606
0.150999999999999995,123.466403639659120017
0.151999999999999996,119.618983181762544632
0.152999999999999997,116.061926835321102658
0.153999999999999998,112.418274099800214572
0.154999999999999999,108.641981386231236684
0.156000000000000000,104.807051203047421950
0.157000000000000001,101.005996077311763770
0.158000000000000002,97.308699485469901447
0.159000000000000002,93.752357642679839955
0.160000000000000003,90.345576521349954646
0.161000000000000004,87.077354161449761705
0.162000000000000005,83.926276469984571804
0.163000000000000006,80.867911839944156327
0.164000000000000007,77.879841161070288535
0.165000000000000008,74.944482704823741415
0.166000000000000009,72.050171125002776762
0.167000000000000010,69.191017431996144182
0.168000000000000010,66.366028607174385456
0.169000000000000011,63.577869770587518872
0.170000000000000012,60.831546378633241545
0.171000000000000013,58.133187994524789133
0.172000000000000014,55.489036817906288945
0.173000000000000015,52.904685179960971197
0.174000000000000016,50.384565143362429751
0.175000000000000017,47.931667285154631486
0.176000000000000018,45.547451383194335506
0.177000000000000018,43.231905940040171288
0.178000000000000019,40.983713563096230814
0.179000000000000020,38.800483000834830705
0.180000000000000021,36.679014451519613260
0.181000000000000022,34.615571410123223473
0.182000000000000023,32.606138978834550812
0.183000000000000024,30.646654715383554901
0.184000000000000025,28.733203437705828520
0.185000000000000026,26.862171814198063657
0.186000000000000026,25.030362030202930157
0.187000000000000027,23.235066390612388432
0.188000000000000028,21.474106495388006977
0.189000000000000029,19.745841729689061594
0.190000000000000030,18.049152368676281810
0.191000000000000031,16.383402729509008111
0.192000000000000032,14.748389619118707827
0.193000000000000033,13.144280921288265418
0.194000000000000034,11.571548620213011560
0.195000000000000034,10.030899934603670687
0.196000000000000035,8.523209586857378284
0.197000000000000036,7.049455593544976750
0.198000000000000037,5.610660363234720727
0.199000000000000038,4.207838343220769772
0.200000000000000039,2.841950978444277354
0.201000000000000040,1.513869338432961120
0.202000000000000041,0.224344431746637513
0.203000000000000042,-1.026015040650077204
0.204000000000000042,-2.236757946473713510
0.205000000000000043,-3.407599598960749709
0.206000000000000044,-4.538424948854798302
0.207000000000000045,-5.629286846542653322
0.208000000000000046,-6.680400149644621699
0.209000000000000047,-7.692132443175796475
0.210000000000000048,-8.664992108973711638
0.211000000000000049,-9.599614434040841360
0.212000000000000050,-10.496746388693930285
0.213000000000000050,-11.357230639145232232
0.214000000000000051,-12.181989288892697942
0.215000000000000052,-12.972007771941761689
0.216000000000000053,-13.728319250713408195
0.217000000000000054,-14.451989804276422547
0.218000000000000055,-15.144104629577853416
0.219000000000000056,-15.805755420537915157
0.220000000000000057,-16.438029037796951570
0.221000000000000058,-17.041997535834489952
0.222000000000000058,-17.618709574201393053
0.223000000000000059,-18.169183205592077002
0.224000000000000060,-18.694400005195365821
0.225000000000000061,-19.195300482849450674
0.226000000000000062,-19.672780701572811779
0.227000000000000063,-20.127690012590399249
0.228000000000000064,-20.560829807541772141
0.229000000000000065,-20.972953182660031501
0.230000000000000066,-21.364765406867824993
0.231000000000000066,-21.736925085493638221
0.232000000000000067,-22.090045913232110308
0.233000000000000068,-22.424698913657170607
0.234000000000000069,-22.741415067678030226
0.235000000000000070,-23.040688239475230148
0.236000000000000071,-23.322978315372356661
0.237000000000000072,-23.588714478532619268
0.238000000000000073,-23.838298550093121264
0.239000000000000073,-24.072108335174004168
0.240000000000000074,-24.290500919968042837
0.241000000000000075,-24.493815873694263274
0.242000000000000076,-24.682378316484935965
0.243000000000000077,-24.856501821186427037
0.244000000000000078,-25.016491123529920770
0.245000000000000079,-25.162644621123853028
0.246000000000000080,-25.295256647210969447
0.247000000000000081,-25.414619510103072741
0.248000000000000081,-25.521025293653874400
0.249000000000000082,-25.614767418061212823
0.250000000000000111,-25.696141963718623913
0.251000000000000112,-25.765448763782405450
0.252000000000000113,-25.822992273609422398
0.253000000000000114,-25.869082227279466935
0.254000000000000115,-25.904034093076994338
0.255000000000000115,-25.928169341099920331
0.256000000000000116,-25.941815537122003832
0.257000000000000117,-25.945306277492910851
0.258000000000000118,-25.938980980246761021
0.259000000000000119,-25.923184547739811734
0.260000000000000120,-25.898266916079052180
0.261000000000000121,-25.864582506363866798
0.262000000000000122,-25.822489592372630085
0.263000000000000123,-25.772349598805284643
0.264000000000000123,-25.714526343570106803
0.265000000000000124,-25.649385236894186590
0.266000000000000125,-25.577292449266266772
0.267000000000000126,-25.498614059401088383
0.268000000000000127,-25.413715192565373258
0.269000000000000128,-25.322959158737329943
0.270000000000000129,-25.226706599199374637
0.271000000000000130,-25.125314649295326319
0.272000000000000131,-25.019136124230289653
0.273000000000000131,-24.908518733958320723
0.274000000000000132,-24.793804332399481893
0.275000000000000133,-24.675328205456512620
0.276000000000000134,-24.553418401567224549
0.277000000000000135,-24.428395107835534361
0.278000000000000136,-24.300570074132703979
0.279000000000000137,-24.170246086953859788
0.280000000000000138,-24.037716494252986621
0.281000000000000139,-23.903264781962974439
0.282000000000000139,-23.767164202435964171
0.283000000000000140,-23.629677454612146192
0.284000000000000141,-23.491056415341194707
0.285000000000000142,-23.351541920939020258
0.286000000000000143,-23.211363597760922062
0.287000000000000144,-23.070739740309658572
0.288000000000000145,-22.929877235170710748
0.289000000000000146,-22.788971528875787698
0.290000000000000147,-22.648206637636665306
0.291000000000000147,-22.507755196762794014
0.292000000000000148,-22.367778547476056872
0.293000000000000149,-22.228426858761473284
0.294000000000000150,-22.089839281842110097
0.295000000000000151,-21.952144134838217582
0.296000000000000152,-21.815459115160805936
0.297000000000000153,-21.679891537199541318
0.298000000000000154,-21.545538592888558327
0.299000000000000155,-21.412487632773096635
0.300000000000000155,-21.280816465250417480
0.301000000000000156,-21.150593671720336886
0.302000000000000157,-21.021878935451468351
0.303000000000000158,-20.894723382047867943
0.304000000000000159,-20.769169929486139381
0.305000000000000160,-20.645253645782744911
0.306000000000000161,-20.523002112446331324
0.307000000000000162,-20.402435791966887280
0.308000000000000163,-20.283568397693034768
0.309000000000000163,-20.166407264549953027
0.310000000000000164,-20.050953719151241472
0.311000000000000165,-19.937203447959319647
0.312000000000000166,-19.825146862249290791
0.313000000000000167,-19.714769458729712426
0.314000000000000168,-19.606052174770972840
0.315000000000000169,-19.498971737286666439
0.316000000000000170,-19.393501004405319321
0.317000000000000171,-19.289609299159202749
0.318000000000000171,-19.187262734502674277
0.319000000000000172,-19.086424529055488364
0.320000000000000173,-18.987055313045214433
0.321000000000000174,-18.889113423998562524
0.322000000000000175,-18.792555191802961190
0.323000000000000176,-18.697335212827645989
0.324000000000000177,-18.603406612857536828
0.325000000000000178,-18.510721298653216138
0.326000000000000179,-18.419230198007124244
0.327000000000000179,-18.328883488218128406
0.328000000000000180,-18.239630812955883954
0.329000000000000181,-18.151421487531997911
0.330000000000000182,-18.064204692635726701
0.331000000000000183,-17.977929656631619793
0.332000000000000184,-17.892545826550200871
0.333000000000000185,-17.808003027935537688
0.334000000000000186,-17.724251613741596856
0.335000000000000187,-17.641242602495260883
0.336000000000000187,-17.558927805966845881
0.337000000000000188,-17.477259946608882046
0.338000000000000189,-17.396192765041845973
0.339000000000000190,-17.315681117880686202
0.340000000000000191,-17.235681066208559997
0.341000000000000192,-17.156149955015841613
0.342000000000000193,-17.077046483930079290
0.343000000000000194,-16.998330769570593191
0.344000000000000195,-16.919964399865563109
0.345000000000000195,-16.841910480673679018
0.346000000000000196,-16.764133675053972894
0.347000000000000197,-16.686600235528054270
0.348000000000000198,-16.609278029678513633
0.349000000000000199,-16.532136559424969846
0.350000000000000200,-16.455146974316672726
0.351000000000000201,-16.378282079176322839
0.352000000000000202,-16.301516336424995757
0.353000000000000203,-16.224825863412768001
0.354000000000000203,-16.148188425072714125
0.355000000000000204,-16.071583422209606340
0.356000000000000205,-15.994991875726778829
0.357000000000000206,-15.918396407086987665
0.358000000000000207,-15.841781215294128415
0.359000000000000208,-15.765132050674870001
0.360000000000000209,-15.688436185729443650
0.361000000000000210,-15.611682383312047051
0.362000000000000210,-15.534860862391814962
0.363000000000000211,-15.457963261635814689
0.364000000000000212,-15.380982601045904090
0.365000000000000213,-15.303913241871612172
0.366000000000000214,-15.226750845011594038
0.367000000000000215,-15.149492328106527239
0.368000000000000216,-15.072135821516928544
0.369000000000000217,-14.994680623369498917
0.370000000000000218,-14.917127153846786669
0.371000000000000218,-14.839476908885171014
0.372000000000000219,-14.761732413437488987
0.373000000000000220,-14.683897174447576361
0.374000000000000221,-14.605975633675294389
0.375000000000000222,-14.527973120502014837
0.376000000000000223,-14.449895804838510216
0.377000000000000224,-14.371750650248813486
0.378000000000000225,-14.293545367396015777
0.379000000000000226,-14.215288367908190281
0.380000000000000226,-14.136988718755620908
0.381000000000000227,-14.058656097222860026
0.382000000000000228,-13.980300746553023572
0.383000000000000229,-13.901933432334484309
0.384000000000000230,-13.823565399694228262
0.385000000000000231,-13.745208331355977194
0.386000000000000232,-13.666874306615289569
0.387000000000000233,-13.588575761278358200
0.388000000000000234,-13.510325448605939869
0.389000000000000234,-13.432136401298842898
0.390000000000000235,-13.354021894556405314
0.391000000000000236,-13.275995410235164940
0.392000000000000237,-13.198070602130181683
0.393000000000000238,-13.120261262397804103
0.394000000000000239,-13.042581289134485445
0.395000000000000240,-12.965044655122724748
0.396000000000000241,-12.887665377751858387
0.397000000000000242,-12.810457490118022150
0.398000000000000242,-12.733435013304845285
0.399000000000000243,-12.656611929843268882
0.400000000000000244,-12.580002158346543339
0.401000000000000245,-12.503619529314008219
0.402000000000000246,-12.427477762094698122
0.403000000000000247,-12.351590442999999198
0.404000000000000248,-12.275971004552577170
0.405000000000000249,-12.200632705856992999
0.406000000000000250,-12.125588614075715199
0.407000000000000250,-12.050851586992910924
0.408000000000000251,-11.976434256646925292
0.409000000000000252,-11.902349014011273098
0.410000000000000253,-11.828607994702597495
0.411000000000000254,-11.755223065693567008
0.412000000000000255,-11.682205813007238149
0.413000000000000256,-11.609567530369176325
0.414000000000000257,-11.537319208792643721
0.415000000000000258,-11.465471527071780855
0.416000000000000258,-11.394034843157205827
0.417000000000000259,-11.323019186388018298
0.418000000000000260,-11.252434250554069095
0.419000000000000261,-11.182289387761908728
0.420000000000000262,-11.112593603077918658
0.421000000000000263,-11.043355549921930248
0.422000000000000264,-10.974583526184535032
0.423000000000000265,-10.906285471041512025
0.424000000000000266,-10.838468962438932763
0.425000000000000266,-10.771141215222300502
0.426000000000000267,-10.704309079883669753
0.427000000000000268,-10.637979041900791799
0.428000000000000269,-10.572157221642477509
0.429000000000000270,-10.506849374814930087
0.430000000000000271,-10.442060893423917634
0.431000000000000272,-10.377796807228184761
0.432000000000000273,-10.314061785659831116
0.433000000000000274,-10.250860140187858960
0.434000000000000274,-10.188195827101484525
0.435000000000000275,-10.126072450690363880
0.436000000000000276,-10.064493266799308557
0.437000000000000277,-10.003461186735524535
0.438000000000000278,-9.942978781507081365
0.439000000000000279,-9.883048286371741042
0.440000000000000280,-9.823671605675681207
0.441000000000000281,-9.764850317962530113
0.442000000000000282,-9.706585681333368854
0.443000000000000282,-9.648878639038994010
0.444000000000000283,-9.591729825286444466
0.445000000000000284,-9.535139571242117640
0.446000000000000285,-9.479107911214464721
0.447000000000000286,-9.423634588999979300
0.448000000000000287,-9.368719064376369587
0.449000000000000288,-9.314360519727760135
0.450000000000000289,-9.260557866787035408
0.451000000000000290,-9.207309753481110803
0.452000000000000290,-9.154614570865462042
0.453000000000000291,-9.102470460134679087
0.454000000000000292,-9.050875319696496391
0.455000000000000293,-8.999826812297051504
0.456000000000000294,-8.949322372185900321
0.457000000000000295,-8.899359212309537526
0.458000000000000296,-8.849934331522916864
0.459000000000000297,-8.801044521808830012
0.460000000000000298,-8.752686375495354554
0.461000000000000298,-8.704856292462377354
0.462000000000000299,-8.657550487328299127
0.463000000000000300,-8.610764996608718747
0.464000000000000301,-8.564495685839137451
0.465000000000000302,-8.518738256654383889
0.466000000000000303,-8.473488253817615501
0.467000000000000304,-8.428741072192284634
0.468000000000000305,-8.384491963650933855
0.469000000000000306,-8.340736043914814601
0.470000000000000306,-8.297468299318998319
0.471000000000000307,-8.254683593497677663
0.472000000000000308,-8.212376673985058773
0.473000000000000309,-8.170542178727249194
0.474000000000000310,-8.129174642501039827
0.475000000000000311,-8.088268503235875428
0.476000000000000312,-8.047818108235377466
0.477000000000000313,-8.007817720295228980
0.478000000000000314,-7.968261523714542882
0.479000000000000314,-7.929143630198024262
0.480000000000000315,-7.890458084646437165
0.481000000000000316,-7.852198870833400512
0.482000000000000317,-7.814359916966433950
0.483000000000000318,-7.776935101130648675
0.484000000000000319,-7.739918256613629310
0.485000000000000320,-7.703303177110264244
0.486000000000000321,-7.667083621806478178
0.487000000000000322,-7.631253320340984025
0.488000000000000322,-7.595805977644461748
0.489000000000000323,-7.560735278655630331
0.490000000000000324,-7.526034892913966878
0.491000000000000325,-7.491698479028833901
0.492000000000000326,-7.457719689025074317
0.493000000000000327,-7.424092172565241121
0.494000000000000328,-7.390809581048669585
0.495000000000000329,-7.357865571587940856
0.496000000000000330,-7.325253810863102899
0.497000000000000330,-7.292967978854517419
0.498000000000000331,-7.261001772454887870
0.499000000000000332,-7.229348908961526377
0.500000000000000333,-7.198003129449713988
0.501000000000000334,-7.166958202028267166
0.502000000000000335,-7.136207924978433148
0.503000000000000336,-7.105746129777394060
0.504000000000000337,-7.075566684007631224
0.505000000000000338,-7.045663494153527218
0.506000000000000338,-7.016030508286688061
0.507000000000000339,-6.986661718641430596
0.508000000000000340,-6.957551164082026673
0.509000000000000341,-6.928692932463296650
0.510000000000000342,-6.900081162886174013
0.511000000000000343,-6.871710047849980185
0.512000000000000344,-6.843573835303087272
0.513000000000000345,-6.815666830593767322
0.514000000000000346,-6.787983398323016004
0.515000000000000346,-6.760517964101154575
0.516000000000000347,-6.733265016210021159
0.517000000000000348,-6.706219107172744387
0.518000000000000349,-6.679374855232765640
0.519000000000000350,-6.652726945744213083
0.520000000000000351,-6.626270132475385211
0.521000000000000352,-6.599999238827348513
0.522000000000000353,-6.573909158969490463
0.523000000000000353,-6.547994858893986247
0.524000000000000354,-6.522251377391159899
0.525000000000000355,-6.496673826947507280
0.526000000000000356,-6.471257394568462828
0.527000000000000357,-6.445997342527729934
0.528000000000000358,-6.420889009045104956
0.529000000000000359,-6.395927808894668942
0.530000000000000360,-6.371109233945281503
0.531000000000000361,-6.346428853635202927
0.532000000000000361,-6.321882315382739037
0.533000000000000362,-6.297465344934714437
0.534000000000000363,-6.273173746654659766
0.535000000000000364,-6.249003403752467989
0.536000000000000365,-6.224950278457356490
0.537000000000000366,-6.201010412135882888
0.538000000000000367,-6.177179925356769630
0.539000000000000368,-6.153455017904299496
0.540000000000000369,-6.129831968741951798
0.541000000000000369,-6.106307135927988128
0.542000000000000370,-6.082876956484652098
0.543000000000000371,-6.059537946222609328
0.544000000000000372,-6.036286699522258381
0.545000000000000373,-6.013119889073496260
0.546000000000000374,-5.990034265575497230
0.547000000000000375,-5.967026657398010414
0.548000000000000376,-5.944093970205790001
0.549000000000000377,-5.921233186547520511
0.550000000000000377,-5.898441365410752368
0.551000000000000378,-5.875715641744268858
0.552000000000000379,-5.853053225949316207
0.553000000000000380,-5.830451403340994432
0.554000000000000381,-5.807907533581229131
0.555000000000000382,-5.785419050084630754
0.556000000000000383,-5.762983459398465236
0.557000000000000384,-5.740598340558104695
0.558000000000000385,-5.718261344419092396
0.559000000000000385,-5.695970192967105383
0.560000000000000386,-5.673722678606936576
0.561000000000000387,-5.651516663431690901
0.562000000000000388,-5.629350078473290608
0.563000000000000389,-5.607220922935390206
0.564000000000000390,-5.585127263409791709
0.565000000000000391,-5.563067233077363838
0.566000000000000392,-5.541039030894528317
0.567000000000000393,-5.519040920766261848
0.568000000000000393,-5.497071230706585432
0.569000000000000394,-5.475128351987482489
0.570000000000000395,-5.453210738277197933
0.571000000000000396,-5.431316904768670462
0.572000000000000397,-5.409445427299163001
0.573000000000000398,-5.387594941461718356
0.574000000000000399,-5.365764141709393975
0.575000000000000400,-5.343951780453005895
0.576000000000000401,-5.322156667153125298
0.577000000000000401,-5.300377667407127902
0.578000000000000402,-5.278613702031968558
0.579000000000000403,-5.256863746143325855
0.580000000000000404,-5.235126828231945417
0.581000000000000405,-5.213402029237622415
0.582000000000000406,-5.191688481621627105
0.583000000000000407,-5.169985368438050344
0.584000000000000408,-5.148291922404753862
0.585000000000000409,-5.126607424974412019
0.586000000000000409,-5.104931205406216144
0.587000000000000410,-5.083262639838798336
0.588000000000000411,-5.061601150364801072
0.589000000000000412,-5.039946204107665473
0.590000000000000413,-5.018297312301029933
0.591000000000000414,-4.996654029371237371
0.592000000000000415,-4.975015952023359667
0.593000000000000416,-4.953382718331137191
0.594000000000000417,-4.931754006831257975
0.595000000000000417,-4.910129535622375307
0.596000000000000418,-4.888509061469095585
0.597000000000000419,-4.866892378911511940
0.598000000000000420,-4.845279319380358274
0.599000000000000421,-4.823669750318305915
0.600000000000000422,-4.802063574307571692
0.601000000000000423,-4.780460728204189991
0.602000000000000424,-4.758861182279195745
0.603000000000000425,-4.737264939366982119
0.604000000000000425,-4.715672034021059389
0.605000000000000426,-4.694082531677479686
0.606000000000000427,-4.672496527826147883
0.607000000000000428,-4.650914147190118975
0.608000000000000429,-4.629335542913276313
