# Ag100_OXIDOLAMBDA4SULFANE-AC
# h[nm],U(h)[kJ/mol]
0.149999999999999994,131.368676554492765263
0.150999999999999995,130.876355074471860007
0.151999999999999996,127.306780284999234709
0.152999999999999997,123.109532242886160702
0.153999999999999998,119.231647479303475734
0.154999999999999999,115.884332162125701871
0.156000000000000000,112.970515798079233605
0.157000000000000001,110.307393530719963337
0.158000000000000002,107.729508184385736058
0.159000000000000002,105.125757642222041000
0.160000000000000003,102.442715524265466343
0.161000000000000004,99.673176478576763770
0.162000000000000005,96.840370687304940134
0.163000000000000006,93.983119154333479628
0.164000000000000007,91.144158963598400192
0.165000000000000008,88.362175848603740747
0.166000000000000009,85.667223170981387170
0.167000000000000010,83.078844355089671581
0.168000000000000010,80.606133841258468919
0.169000000000000011,78.249034614792719822
0.170000000000000012,76.000296662651038559
0.171000000000000013,73.847663229995418988
0.172000000000000014,71.775985352617681201
0.173000000000000015,69.769078185808780290
0.174000000000000016,67.811221463075440852
0.175000000000000017,65.888271741716451402
0.176000000000000018,63.988398855133311827
0.177000000000000018,62.102486959121463883
0.178000000000000019,60.224255557757956581
0.179000000000000020,58.350161402360392060
0.180000000000000021,56.479141122658802487
0.181000000000000022,54.612249243848374647
0.182000000000000023,52.752238688661428512
0.183000000000000024,50.903122298903596743
0.184000000000000025,49.069745271845931711
0.185000000000000026,47.257390306961823967
0.186000000000000026,45.471430063172206815
0.187000000000000027,43.717035417540941467
0.188000000000000028,41.998943044020286663
0.189000000000000029,40.321281957888587044
0.190000000000000030,38.687455805034041134
0.191000000000000031,37.100075691509701414
0.192000000000000032,35.560937111123550380
0.193000000000000033,34.071033899915036613
0.194000000000000034,32.630601996404905663
0.195000000000000034,31.239185998070190919
0.196000000000000035,29.895721975141078985
0.197000000000000036,28.598630645873601708
0.198000000000000037,27.345915761773994745
0.199000000000000038,26.135263340166630996
0.200000000000000039,24.964138171361874186
0.201000000000000040,23.829874786200996084
0.202000000000000041,22.729760774281281499
0.203000000000000042,21.661110979019412071
0.204000000000000042,20.621331654644926346
0.205000000000000043,19.607974149034756550
0.206000000000000044,18.618778075631528424
0.207000000000000045,17.651704260981784245
0.208000000000000046,16.704958007062963077
0.209000000000000047,15.777003396169636318
0.210000000000000048,14.866569498005286931
0.211000000000000049,13.972649421332420161
0.212000000000000050,13.094493193538085052
0.213000000000000050,12.231595457929742565
0.214000000000000051,11.383678957145566102
0.215000000000000052,10.550674727820313237
0.216000000000000053,9.732699872014460851
0.217000000000000054,8.930033699643200151
0.218000000000000055,8.143092957324327585
0.219000000000000056,7.372406776153553665
0.220000000000000057,6.618591886766672872
0.221000000000000058,5.882328566978689999
0.222000000000000058,5.164337707109315723
0.223000000000000059,4.465359302206834080
0.224000000000000060,3.786132609763970258
0.225000000000000061,3.127378146863886599
0.226000000000000062,2.489781642404667483
0.227000000000000063,1.873980008303480771
0.228000000000000064,1.280549348371093465
0.229000000000000065,0.709994984715258237
0.230000000000000066,0.162743448814992225
0.231000000000000066,-0.360863642550460384
0.232000000000000067,-0.860573927940759709
0.233000000000000068,-1.336226976592676419
0.234000000000000069,-1.787755428865231311
0.235000000000000070,-2.215184740523832296
0.236000000000000071,-2.618631674436703971
0.237000000000000072,-2.998301685074064249
0.238000000000000073,-3.354485340428432494
0.239000000000000073,-3.687553923023321634
0.240000000000000074,-3.997954346931151370
0.241000000000000075,-4.286203521524926785
0.242000000000000076,-4.552882285362679582
0.243000000000000077,-4.798629025431954354
0.244000000000000078,-5.024133088216593990
0.245000000000000079,-5.230128079910802974
0.246000000000000080,-5.417385143788821189
0.247000000000000081,-5.586706293406423107
0.248000000000000081,-5.738917871101124391
0.249000000000000082,-5.874864192286539222
0.250000000000000111,-5.995401427396433114
0.251000000000000112,-6.101391765098478359
0.252000000000000113,-6.193697892624306256
0.253000000000000114,-6.273177821790239861
0.254000000000000115,-6.340680082542369256
0.255000000000000115,-6.397039299663193290
0.256000000000000116,-6.443072162633614042
0.257000000000000117,-6.479573793549144867
0.258000000000000118,-6.507314513433638758
0.259000000000000119,-6.527037003262928572
0.260000000000000120,-6.539453852483566365
0.261000000000000121,-6.545245484764670607
0.262000000000000122,-6.545058448128282969
0.263000000000000123,-6.539504054435734126
0.264000000000000123,-6.529157351436400525
0.265000000000000124,-6.514556409178777763
0.266000000000000125,-6.496201901513697585
0.267000000000000126,-6.474556962653108094
0.268000000000000127,-6.450047298258150263
0.269000000000000128,-6.423061530286171994
0.270000000000000129,-6.393951754802311704
0.271000000000000130,-6.363034292129228220
0.272000000000000131,-6.330590609045277262
0.273000000000000131,-6.296868393221803473
0.274000000000000132,-6.262082760694000605
0.275000000000000133,-6.226417577865580810
0.276000000000000134,-6.190026880336989556
0.277000000000000135,-6.153036371703331397
0.278000000000000136,-6.115544986375450520
0.279000000000000137,-6.077626501421745431
0.280000000000000138,-6.039331183397318448
0.281000000000000139,-6.000687457108442757
0.282000000000000139,-5.961703584245520382
0.283000000000000140,-5.922369340796806547
0.284000000000000141,-5.882657683121155223
0.285000000000000142,-5.842526393504401838
0.286000000000000143,-5.801919696944858096
0.287000000000000144,-5.760769841804160407
0.288000000000000145,-5.718998637817199082
0.289000000000000146,-5.676518945774786218
0.290000000000000147,-5.633236113974084525
0.291000000000000147,-5.589049357271677287
0.292000000000000148,-5.543853075272396680
0.293000000000000149,-5.497538106841876271
0.294000000000000150,-5.449992918742702308
0.295000000000000151,-5.401104726763199082
0.296000000000000152,-5.350760548233729708
0.297000000000000153,-5.298848185310295555
0.298000000000000154,-5.245257138848190337
0.299000000000000155,-5.189879453092624217
0.300000000000000155,-5.132610491778319961
0.301000000000000156,-5.073349646558568793
0.302000000000000157,-5.012000978977229515
0.303000000000000158,-4.948473797456477641
0.304000000000000159,-4.882683171000683053
0.305000000000000160,-4.814550381513456934
0.306000000000000161,-4.744003316794145775
0.307000000000000162,-4.670976806421747618
0.308000000000000163,-4.595412902851277792
0.309000000000000163,-4.517261110141801872
0.310000000000000164,-4.436478562807673498
0.311000000000000165,-4.353030157337093975
0.312000000000000166,-4.266888638956897850
0.313000000000000167,-4.178034646240126548
0.314000000000000168,-4.086456716155825397
0.315000000000000169,-3.992151252149530372
0.316000000000000170,-3.895122457819872430
0.317000000000000171,-3.795382238722337487
0.318000000000000171,-3.692950074787332504
0.319000000000000172,-3.587852865787133361
0.320000000000000173,-3.480124752226294138
0.321000000000000174,-3.369806913963290462
0.322000000000000175,-3.256947348799420716
0.323000000000000176,-3.141600633194066017
0.324000000000000177,-3.023827667184924906
0.325000000000000178,-2.903695405508337934
0.326000000000000179,-2.781276576829034841
0.327000000000000179,-2.656649392900911177
0.328000000000000180,-2.529897249391717118
0.329000000000000181,-2.401108420015956479
0.330000000000000182,-2.270375745529929823
0.331000000000000183,-2.137796319055146110
0.332000000000000184,-2.003471169107248429
0.333000000000000185,-1.867504941621148884
0.334000000000000186,-1.730005582177220891
0.335000000000000187,-1.591084019549516837
0.336000000000000187,-1.450853851615123258
0.337000000000000188,-1.309431034583755649
0.338000000000000189,-1.166933576429400876
0.339000000000000190,-1.023481235330589545
0.340000000000000191,-0.879195223853342922
0.341000000000000192,-0.734197919541466848
0.342000000000000193,-0.588612582511033877
0.343000000000000194,-0.442563080582562995
0.344000000000000195,-0.296173622422114702
0.345000000000000195,-0.149568499104632463
0.346000000000000196,-0.002871834456743527
0.347000000000000197,0.143792655516530282
0.348000000000000198,0.290301893866574012
0.349000000000000199,0.436533664390478193
0.350000000000000200,0.582366823611910833
0.351000000000000201,0.727681502932893021
0.352000000000000202,0.872359300874533061
0.353000000000000203,1.016283465361570437
0.354000000000000203,1.159339066039729804
0.355000000000000204,1.301413156646267222
0.356000000000000205,1.442394927483540812
0.357000000000000206,1.582175848072443713
0.358000000000000207,1.720649800087267423
0.359000000000000208,1.857713200696307965
0.360000000000000209,1.993265116453186492
0.361000000000000210,2.127207367902619772
0.362000000000000210,2.259444625081264757
0.363000000000000211,2.389884494109340451
0.364000000000000212,2.518437595082235525
0.365000000000000213,2.645017631483171705
0.366000000000000214,2.769541451348250582
0.367000000000000215,2.891929100424264210
0.368000000000000216,3.012103867567076598
0.369000000000000217,3.129992322634810087
0.370000000000000218,3.245524347135101628
0.371000000000000218,3.358633157889737042
0.372000000000000219,3.469255323982859629
0.373000000000000220,3.577330777261054529
0.374000000000000221,3.682802816654441980
0.375000000000000222,3.785618106588448661
0.376000000000000223,3.885726669755079854
0.377000000000000224,3.983081874511523957
0.378000000000000225,4.077640417171663145
0.379000000000000226,4.169362299453896803
0.380000000000000226,4.258210801345272856
0.381000000000000227,4.344152449638565727
0.382000000000000228,4.427156982394762963
0.383000000000000229,4.507197309578966582
0.384000000000000230,4.584249470113082481
0.385000000000000231,4.658292585583208911
0.386000000000000232,4.729308810834504051
0.387000000000000233,4.797283281680515543
0.388000000000000234,4.862204059948032508
0.389000000000000234,4.924062076072447169
0.390000000000000235,4.982851069452575388
0.391000000000000236,5.038567526767134375
0.392000000000000237,5.091210618449137471
0.393000000000000238,5.140782133507492802
0.394000000000000239,5.187286412878772346
0.395000000000000240,5.230730281485501010
0.396000000000000241,5.271122979170600686
0.397000000000000242,5.308476090671121916
0.398000000000000242,5.342803474787765516
0.399000000000000243,5.374121192900202182
0.400000000000000244,5.402447436971816508
0.401000000000000245,5.427802457180726847
0.402000000000000246,5.450208489308172588
0.403000000000000247,5.469689682008652021
0.404000000000000248,5.486272024080260046
0.405000000000000249,5.499983271847635358
0.406000000000000250,5.510852876764024799
0.407000000000000250,5.518911913333096386
0.408000000000000251,5.524193007445639125
0.409000000000000252,5.526730265220547444
0.410000000000000253,5.526559202434370377
0.411000000000000254,5.523716674618133204
0.412000000000000255,5.518240807895431921
0.413000000000000256,5.510170930630394537
0.414000000000000257,5.499547505949778703
0.415000000000000258,5.486412065198384980
0.416000000000000258,5.470807142382808408
0.417000000000000259,5.452776209653936057
0.418000000000000260,5.432363613874592545
0.419000000000000261,5.409614514314574407
0.420000000000000262,5.384574821511430187
0.421000000000000263,5.357291137331587905
0.422000000000000264,5.327810696262923251
0.423000000000000265,5.296181307966245200
0.424000000000000266,5.262451301109932089
0.425000000000000266,5.226669468508840843
0.426000000000000267,5.188885013585482930
0.427000000000000268,5.149147498168576753
0.428000000000000269,5.107506791641375443
0.429000000000000270,5.064013021449538243
0.430000000000000271,5.018716524975658011
0.431000000000000272,4.971667802785428414
0.432000000000000273,4.922917473247969689
0.433000000000000274,4.872516228530830773
0.434000000000000274,4.820514791967980273
0.435000000000000275,4.766963876797514210
0.436000000000000276,4.711914146263660896
0.437000000000000277,4.655416175076159568
0.438000000000000278,4.597520412218520036
0.439000000000000279,4.538277145095086063
0.440000000000000280,4.477736465005461852
0.441000000000000281,4.415948233933672640
0.442000000000000282,4.352962052637972867
0.443000000000000282,4.288827230026452497
0.444000000000000283,4.223592753802151378
0.445000000000000284,4.157307262360791178
0.446000000000000285,4.090019017923134825
0.447000000000000286,4.021775880883246224
0.448000000000000287,3.952625285353196460
0.449000000000000288,3.882614215884147235
0.450000000000000289,3.811789185342949970
0.451000000000000290,3.740196213923170809
0.452000000000000290,3.667880809268672770
0.453000000000000291,3.594887947687675389
0.454000000000000292,3.521262056434739662
0.455000000000000293,3.447046997037834792
0.456000000000000294,3.372286049647426953
0.457000000000000295,3.297021898384286942
0.458000000000000296,3.221296617662436468
0.459000000000000297,3.145151659463803817
0.460000000000000298,3.068627841540636947
0.461000000000000298,2.991765336522246521
0.462000000000000299,2.914603661901979059
0.463000000000000300,2.837181670880917661
0.464000000000000301,2.759537544044493806
0.465000000000000302,2.681708781848497036
0.466000000000000303,2.603732197890807676
0.467000000000000304,2.525643912945686687
0.468000000000000305,2.447479349737275989
0.469000000000000306,2.369273228429302325
0.470000000000000306,2.291059562808247296
0.471000000000000307,2.212871657137252868
0.472000000000000308,2.134742103658532120
0.473000000000000309,2.056702780722073243
0.474000000000000310,1.978784851518989196
0.475000000000000311,1.901018763397675615
0.476000000000000312,1.823434247742014680
0.477000000000000313,1.746060320390177001
0.478000000000000314,1.668925282573886282
0.479000000000000314,1.592056722357627185
0.480000000000000315,1.515481516557992459
0.481000000000000316,1.439225833123597420
0.482000000000000317,1.363315133956361613
0.483000000000000318,1.287774178155335347
0.484000000000000319,1.212627025664585023
0.485000000000000320,1.137897041307105450
0.486000000000000321,1.063606899186974930
0.487000000000000322,0.989778587442499136
0.488000000000000322,0.916433413333314406
0.489000000000000323,0.843592008645020597
0.490000000000000324,0.771274335395004895
0.491000000000000325,0.699499691823800118
0.492000000000000326,0.628286718656487886
0.493000000000000327,0.557653405619194631
0.494000000000000328,0.487617098195984422
0.495000000000000329,0.418194504611927975
0.496000000000000330,0.349401703028480892
0.497000000000000330,0.281254148937623349
0.498000000000000331,0.213766682741688113
0.499000000000000332,0.146953537506168269
0.500000000000000333,0.080828346872978601
0.501000000000000334,0.015404153122293440
0.502000000000000335,-0.049306584628771376
0.503000000000000336,-0.113291982101871122
0.504000000000000337,-0.176540721418601360
0.505000000000000338,-0.239042042557584267
0.506000000000000338,-0.300785734717832931
0.507000000000000339,-0.361762127598312222
0.508000000000000340,-0.421962082603227262
0.509000000000000341,-0.481376983982351958
0.510000000000000342,-0.539998729915328268
0.511000000000000343,-0.597819723548580817
0.512000000000000344,-0.654832863993141556
0.513000000000000345,-0.711031537291374027
0.514000000000000346,-0.766409607360425738
0.515000000000000346,-0.820961406919663572
0.516000000000000347,-0.874681728409369419
0.517000000000000348,-0.927565814907469033
0.518000000000000349,-0.979609351050941157
0.519000000000000350,-1.030808453968117266
0.520000000000000351,-1.081159664228046990
0.521000000000000352,-1.130659936812626887
0.522000000000000353,-1.179306632117026021
0.523000000000000353,-1.227097506983826580
0.524000000000000354,-1.274030705775750949
0.525000000000000355,-1.320104751491979922
0.526000000000000356,-1.365318536932504712
0.527000000000000357,-1.409671315914968970
0.528000000000000358,-1.453162694548226996
0.529000000000000359,-1.495792622566332941
0.530000000000000360,-1.537561384726982450
0.531000000000000361,-1.578469592277753408
0.532000000000000361,-1.618518174493615236
0.533000000000000362,-1.657708370288764055
0.534000000000000363,-1.696041719905870604
0.535000000000000364,-1.733520056685483812
0.536000000000000365,-1.770145498918217486
0.537000000000000366,-1.805920441782225883
0.538000000000000367,-1.840847549368225700
0.539000000000000368,-1.874929746794256946
0.540000000000000369,-1.908170212412142686
0.541000000000000369,-1.940572370107523925
0.542000000000000370,-1.972139881695132768
0.543000000000000371,-2.002876639410944293
0.544000000000000372,-2.032786758502579616
0.545000000000000373,-2.061874569919287303
0.546000000000000374,-2.090144613102725479
0.547000000000000375,-2.117601628879538733
0.548000000000000376,-2.144250552456762549
0.549000000000000377,-2.170096506520809321
0.550000000000000377,-2.195144794440866409
0.551000000000000378,-2.219400893577218703
0.552000000000000379,-2.242870448695152952
0.553000000000000380,-2.265559265484765383
0.554000000000000381,-2.287473304187086498
0.555000000000000382,-2.308618673326779280
0.556000000000000383,-2.329001623551513855
0.557000000000000384,-2.348628541578205109
0.558000000000000385,-2.367505944246039107
0.559000000000000385,-2.385640472676290980
0.560000000000000386,-2.403038886538754859
0.561000000000000387,-2.419708058424623331
0.562000000000000388,-2.435654968325501102
0.563000000000000389,-2.450886698218304627
0.564000000000000390,-2.465410426755551665
0.565000000000000391,-2.479233424060697022
0.566000000000000392,-2.492363046627963374
0.567000000000000393,-2.504806732326132934
0.568000000000000393,-2.516571995505681336
0.569000000000000394,-2.527666422208657337
0.570000000000000395,-2.538097665480590237
0.571000000000000396,-2.547873440783663401
0.572000000000000397,-2.557001521510468223
0.573000000000000398,-2.565489734597475202
0.574000000000000399,-2.573345956237375276
0.575000000000000400,-2.580578107689475154
0.576000000000000401,-2.587194151187171887
0.577000000000000401,-2.593202085941659796
0.578000000000000402,-2.598609944240824365
0.579000000000000403,-2.603425787642403400
0.580000000000000404,-2.607657703260394477
0.581000000000000405,-2.611313800143643782
0.582000000000000406,-2.614402205745650409
0.583000000000000407,-2.616931062484391113
0.584000000000000408,-2.618908524391247106
0.585000000000000409,-2.620342753847781481
0.586000000000000409,-2.621241918409331628
0.587000000000000410,-2.621614187714321531
0.588000000000000411,-2.621467730478033165
0.589000000000000412,-2.620810711569865781
0.590000000000000413,-2.619651289172753028
0.591000000000000414,-2.617997612023692522
0.592000000000000415,-2.615857816734186603
0.593000000000000416,-2.613240025189379256
0.594000000000000417,-2.610152342024762540
0.595000000000000417,-2.606602852179256580
0.596000000000000418,-2.602599618523425473
0.597000000000000419,-2.598150679561743281
0.598000000000000420,-2.593264047207599177
0.599000000000000421,-2.587947704629965706
0.600000000000000422,-2.582209604170460082
0.601000000000000423,-2.576057665329649637
0.602000000000000424,-2.569499772821411288
0.603000000000000425,-2.562543774694194365
0.604000000000000425,-2.555197480517917619
0.605000000000000426,-2.547468659635444777
0.606000000000000427,-2.539365039477403219
0.607000000000000428,-2.530894303939159595
0.608000000000000429,-2.522064091818896792
0.609000000000000430,-2.512881995315507488
0.610000000000000431,-2.503355558585298013
0.611000000000000432,-2.493492276356242598
0.612000000000000433,-2.483299592598751548
0.613000000000000433,-2.472784899251804891
0.614000000000000434,-2.461955535003329310
0.615000000000000435,-2.450818784123702798
0.616000000000000436,-2.439381875351352758
