# Ag100_NMETHYLMETHANAMINE-AC
# h[nm],U(h)[kJ/mol]
0.149999999999999994,145.848915258293516217
0.150999999999999995,145.175053434999341562
0.151999999999999996,141.373463536325942869
0.152999999999999997,136.925101081975498118
0.153999999999999998,132.797489892446179738
0.154999999999999999,129.212191536979617013
0.156000000000000000,126.075037211545989635
0.157000000000000001,123.201587998317634742
0.158000000000000002,120.422641260398407326
0.159000000000000002,117.622947972970024466
0.160000000000000003,114.745561224458896277
0.161000000000000004,111.780864068738239325
0.162000000000000005,108.750882750942579946
0.163000000000000006,105.694303723898130443
0.164000000000000007,102.654540327822090262
0.165000000000000008,99.671470136523652172
0.166000000000000009,96.776576097050536873
0.167000000000000010,93.990838763203967687
0.168000000000000010,91.324627427413446412
0.169000000000000011,88.778889082654899312
0.170000000000000012,86.347053181423262913
0.171000000000000013,84.017208913655565539
0.172000000000000014,81.774244039648209537
0.173000000000000015,79.601747695356124268
0.174000000000000016,77.483569700776598665
0.175000000000000017,75.404996001621114488
0.176000000000000018,73.353546549399467835
0.177000000000000018,71.319431720944947983
0.178000000000000019,69.295719993219066168
0.179000000000000020,67.278276439053257718
0.180000000000000021,65.265531625873080657
0.181000000000000022,63.258136066183581647
0.182000000000000023,61.258548337805677875
0.183000000000000024,59.270596741027773646
0.184000000000000025,57.299045865858673210
0.185000000000000026,55.349191358583780698
0.186000000000000026,53.426498904097648790
0.187000000000000027,51.536297191372639759
0.188000000000000028,49.683529480114557941
0.189000000000000029,47.872564319770802399
0.190000000000000030,46.107062909910396797
0.191000000000000031,44.389898420843408644
0.192000000000000032,42.723121185849429082
0.193000000000000033,41.107962898652289141
0.194000000000000034,39.544872674125933543
0.195000000000000034,38.033577939610452745
0.196000000000000035,36.573163515324345951
0.197000000000000036,35.162162826783372793
0.198000000000000037,33.798655896461390569
0.199000000000000038,32.480369526954184778
0.200000000000000039,31.204775867366215891
0.201000000000000040,29.969186313690606482
0.202000000000000041,28.770838407547234539
0.203000000000000042,27.606974048933473398
0.204000000000000042,26.474907917464008733
0.205000000000000043,25.372085498088665645
0.206000000000000044,24.296130530737631403
0.207000000000000045,23.244882051079059693
0.208000000000000046,22.216421466083573932
0.209000000000000047,21.209090319335892616
0.210000000000000048,20.221499553838569341
0.211000000000000049,19.252531181652990711
0.212000000000000050,18.301333327398214834
0.213000000000000050,17.367309633456500251
0.214000000000000051,16.450104005384439176
0.215000000000000052,15.549581642652521296
0.216000000000000053,14.665807247984057327
0.217000000000000054,13.799021243150793481
0.218000000000000055,12.949614744383685760
0.219000000000000056,12.118103970223611299
0.220000000000000057,11.305104671723011478
0.221000000000000058,10.511307091932664548
0.222000000000000058,9.737451880566551310
0.223000000000000059,8.984307312206155416
0.224000000000000060,8.252648083544720237
0.225000000000000061,7.543235897815034896
0.226000000000000062,6.856801983228431929
0.227000000000000063,6.194031637271689483
0.228000000000000064,5.555550840158000270
0.229000000000000065,4.941914938535406421
0.230000000000000066,4.353599364530257532
0.231000000000000066,3.790992325044555855
0.232000000000000067,3.254389371573994882
0.233000000000000068,2.743989741249537762
0.234000000000000069,2.259894344887737994
0.235000000000000070,1.802105267101796526
0.236000000000000071,1.370526636516229413
0.237000000000000072,0.964966720387568144
0.238000000000000073,0.585141097024926005
0.239000000000000073,0.230676760911492890
0.240000000000000074,-0.098882981042095114
0.241000000000000075,-0.404072958486362932
0.242000000000000076,-0.685500061711231790
0.243000000000000077,-0.943836763102548937
0.244000000000000078,-1.179814349942774676
0.245000000000000079,-1.394215973672049858
0.246000000000000080,-1.587869611559171945
0.247000000000000081,-1.761641027427736317
0.248000000000000081,-1.916426808795027581
0.249000000000000082,-2.053147548640247511
0.250000000000000111,-2.172741231131885886
0.251000000000000112,-2.276156872097834682
0.252000000000000113,-2.364348456885982053
0.253000000000000114,-2.438269210588012825
0.254000000000000115,-2.498866228425381752
0.255000000000000115,-2.547075487445929376
0.256000000000000116,-2.583817254569409805
0.257000000000000117,-2.609991900452738101
0.258000000000000118,-2.626476123618688430
0.259000000000000119,-2.634119584795207025
0.260000000000000120,-2.633741947430725094
0.261000000000000121,-2.626130316863519720
0.262000000000000122,-2.612037067608333096
0.263000000000000123,-2.592178045653625862
0.264000000000000123,-2.567231130512094950
0.265000000000000124,-2.537835140004592649
0.266000000000000125,-2.504589059356292946
0.267000000000000126,-2.468051575111416707
0.268000000000000127,-2.428740893602463480
0.269000000000000128,-2.387134823210640633
0.270000000000000129,-2.343671099399592617
0.271000000000000130,-2.298747931466706973
0.272000000000000131,-2.252724750110475238
0.273000000000000131,-2.205923135233063270
0.274000000000000132,-2.158627903863001407
0.275000000000000133,-2.111088338671089026
0.276000000000000134,-2.063519538243827611
0.277000000000000135,-2.016103871055086483
0.278000000000000136,-1.968992515920404696
0.279000000000000137,-1.922307072614876544
0.280000000000000138,-1.876141227270930356
0.281000000000000139,-1.830562458133238035
0.282000000000000139,-1.785613768224501685
0.283000000000000140,-1.741315432456967516
0.284000000000000141,-1.697666747701926937
0.285000000000000142,-1.654647775295791323
0.286000000000000143,-1.612221066409447845
0.287000000000000144,-1.570333361632089364
0.288000000000000145,-1.528917257017472497
0.289000000000000146,-1.487892829704264175
0.290000000000000147,-1.447169217051343937
0.291000000000000147,-1.406646144019525924
0.292000000000000148,-1.366215394282708662
0.293000000000000149,-1.325762221261407525
0.294000000000000150,-1.285166695939834014
0.295000000000000151,-1.244304988953966351
0.296000000000000152,-1.203050585021171237
0.297000000000000153,-1.161275428324121561
0.298000000000000154,-1.118850997961409188
0.299000000000000155,-1.075649313037239763
0.300000000000000155,-1.031543867382618940
0.301000000000000156,-0.986410494282143668
0.302000000000000157,-0.940128161925598227
0.303000000000000158,-0.892579700612932569
0.304000000000000159,-0.843652463017066645
0.305000000000000160,-0.793238919052002500
0.306000000000000161,-0.741237187107157136
0.307000000000000162,-0.687551503592643165
0.308000000000000163,-0.632092632897224505
0.309000000000000163,-0.574778219992604478
0.310000000000000164,-0.515533088025432962
0.311000000000000165,-0.454289483324463894
0.312000000000000166,-0.390987270316048519
0.313000000000000167,-0.325574078887823415
0.314000000000000168,-0.258005406770166590
0.315000000000000169,-0.188244679518804775
0.316000000000000170,-0.116263270681616543
0.317000000000000171,-0.042040484719227944
0.318000000000000171,0.034436494776103513
0.319000000000000172,0.113172689054108905
0.320000000000000173,0.194165437908127181
0.321000000000000174,0.277404540693168111
0.322000000000000175,0.362872422308534559
0.323000000000000176,0.450544321859207841
0.324000000000000177,0.540388501781520980
0.325000000000000178,0.632366475294109387
0.326000000000000179,0.726433250114202678
0.327000000000000179,0.822537586461555725
0.328000000000000180,0.920622267456504773
0.329000000000000181,1.020624380103889006
0.330000000000000182,1.122475605142352340
0.331000000000000183,1.226102514124726373
0.332000000000000184,1.331426872183355758
0.333000000000000185,1.438365945020739334
0.334000000000000186,1.546832808752157673
0.335000000000000187,1.656736661312165904
0.336000000000000187,1.767983134220385777
0.337000000000000188,1.880474603584331161
0.338000000000000189,1.994110499297007122
0.339000000000000190,2.108787611465344103
0.340000000000000191,2.224400393181537261
0.341000000000000192,2.340841258822503157
0.342000000000000193,2.458000877134484341
0.343000000000000194,2.575768458427490692
0.344000000000000195,2.694032035270925274
0.345000000000000195,2.812678736144289982
0.346000000000000196,2.931595051557641884
0.347000000000000197,3.050667092214130349
0.348000000000000198,3.169780838841603998
0.349000000000000199,3.288822383372887348
0.350000000000000200,3.407678161203231859
0.351000000000000201,3.526235174300764719
0.352000000000000202,3.644381204989338929
0.353000000000000203,3.762005020264918009
0.354000000000000203,3.878996566545592994
0.355000000000000204,3.995247154791514710
0.356000000000000205,4.110649635965138771
0.357000000000000206,4.225098566833848324
0.358000000000000207,4.338490366146197985
0.359000000000000208,4.450723461240261081
0.360000000000000209,4.561698425167394433
0.361000000000000210,4.671318104437832019
0.362000000000000210,4.779487737515291101
0.363000000000000211,4.886115064206928871
0.364000000000000212,4.991110426112147280
0.365000000000000213,5.094386858309373878
0.366000000000000214,5.195860172473662608
0.367000000000000215,5.295449031630400150
0.368000000000000216,5.393075016761104123
0.369000000000000217,5.488662685486785264
0.370000000000000218,5.582139623062413847
0.371000000000000218,5.673436485922854544
0.372000000000000219,5.762487038026231190
0.373000000000000220,5.849228180245362729
0.374000000000000221,5.933599973061218336
0.375000000000000222,6.015545652815097455
0.376000000000000223,6.095011641777661637
0.377000000000000224,6.171947552293931771
0.378000000000000225,6.246306185263160948
0.379000000000000226,6.318043523212014456
0.380000000000000226,6.387118718217879021
0.381000000000000227,6.453494074937320413
0.382000000000000228,6.517135028992098178
0.383000000000000229,6.578010120961929275
0.384000000000000230,6.636090966230024257
0.385000000000000231,6.691352220923056038
0.386000000000000232,6.743771544183208455
0.387000000000000233,6.793329557005134411
0.388000000000000234,6.840009797865787000
0.389000000000000234,6.883798675369701137
0.390000000000000235,6.924685418127157099
0.391000000000000236,6.962662022076540502
0.392000000000000237,6.997723195456950762
0.393000000000000238,7.029866301630631753
0.394000000000000239,7.059091299949083798
0.395000000000000240,7.085400684850396757
0.396000000000000241,7.108799423369157822
0.397000000000000242,7.129294891233961096
0.398000000000000242,7.146896807721368816
0.399000000000000243,7.161617169428697416
0.400000000000000244,7.173470183122015342
0.401000000000000245,7.182472197808943193
0.402000000000000246,7.188641636180285843
0.403000000000000247,7.191998925557804512
0.404000000000000248,7.192566428479632457
0.405000000000000249,7.190368373048689143
0.406000000000000250,7.185430783163591073
0.407000000000000250,7.177781408745571134
0.408000000000000251,7.167449656069393882
0.409000000000000252,7.154466518300343303
0.410000000000000253,7.138864506334110516
0.411000000000000254,7.120677580030840836
0.412000000000000255,7.099941079929410925
0.413000000000000256,7.076691659522779787
0.414000000000000257,7.050967218170448803
0.415000000000000258,7.022806834718896773
0.416000000000000258,6.992250701896482568
0.417000000000000259,6.959340061544371459
0.418000000000000260,6.924117140740898790
0.419000000000000261,6.886625088872252221
0.420000000000000262,6.846907915698364100
0.421000000000000263,6.805010430458693804
0.422000000000000264,6.760978182059008468
0.423000000000000265,6.714857400376189389
0.424000000000000266,6.666694938714714525
0.425000000000000266,6.616538217445006254
0.426000000000000267,6.564435168850454083
0.427000000000000268,6.510434183206716519
0.428000000000000269,6.454584056113970014
0.429000000000000270,6.396933937099853473
0.430000000000000271,6.337533279507852946
0.431000000000000272,6.276431791683565464
0.432000000000000273,6.213679389468498293
0.433000000000000274,6.149326150008730174
0.434000000000000274,6.083422266883419915
0.435000000000000275,6.016018006556140385
0.436000000000000276,5.947163666149761774
0.437000000000000277,5.876909532543686865
0.438000000000000278,5.805305842790597026
0.439000000000000279,5.732402745847859471
0.440000000000000280,5.658250265617260411
0.441000000000000281,5.582898265285259676
0.442000000000000282,5.506396412954273956
0.443000000000000282,5.428794148554478838
0.444000000000000283,5.350140652024025556
0.445000000000000284,5.270484812744665071
0.446000000000000285,5.189875200218539320
0.447000000000000286,5.108360035970887836
0.448000000000000287,5.025987166662549299
0.449000000000000288,4.942804038395292920
0.450000000000000289,4.858857672192028687
0.451000000000000290,4.774194640633579567
0.452000000000000290,4.688861045632680025
0.453000000000000291,4.602902497325522368
0.454000000000000292,4.516364094060561385
0.455000000000000293,4.429290403463718384
0.456000000000000294,4.341725444558941938
0.457000000000000295,4.253712670922493722
0.458000000000000296,4.165294954849048992
0.459000000000000297,4.076514572507660361
0.460000000000000298,3.987413190064962087
0.461000000000000298,3.898031850753418404
0.462000000000000299,3.808410962861618287
0.463000000000000300,3.718590288624098683
0.464000000000000301,3.628608933987717222
0.465000000000000302,3.538505339231880154
0.466000000000000303,3.448317270419532399
0.467000000000000304,3.358081811656375315
0.468000000000000305,3.267835358135383395
0.469000000000000306,3.177613609944004214
0.470000000000000306,3.087451566611607134
0.471000000000000307,2.997383522374628129
0.472000000000000308,2.907443062137349710
0.473000000000000309,2.817663058106137264
0.474000000000000310,2.728075667075498423
0.475000000000000311,2.638712328344015035
0.476000000000000312,2.549603762239313287
0.477000000000000313,2.460779969230353803
0.478000000000000314,2.372270229606726399
0.479000000000000314,2.284103103704074211
0.480000000000000315,2.196306432655546814
0.481000000000000316,2.108907339649264578
0.482000000000000317,2.021932231672203706
0.483000000000000318,1.935406801721168524
0.484000000000000319,1.849356031461881100
0.485000000000000320,1.763804194317597718
0.486000000000000321,1.678774858968882011
0.487000000000000322,1.594290893246694818
0.488000000000000322,1.510374468401123327
0.489000000000000323,1.427047063728672738
0.490000000000000324,1.344329471541091170
0.491000000000000325,1.262241802459387996
0.492000000000000326,1.180803491016825024
0.493000000000000327,1.100033301555199072
0.494000000000000328,1.019949334398982499
0.495000000000000329,0.940569032292318696
0.496000000000000330,0.861909187084273443
0.497000000000000330,0.783985946647957510
0.498000000000000331,0.706814822019717459
0.499000000000000332,0.630410694744860001
0.500000000000000333,0.554787824416582032
0.501000000000000334,0.479959856395448692
0.502000000000000335,0.405939829696857157
0.503000000000000336,0.332740185034462066
0.504000000000000337,0.260372773007677361
0.505000000000000338,0.188848862421997221
0.506000000000000338,0.118179148730976680
0.507000000000000339,0.048373762589131751
0.508000000000000340,-0.020557721494544445
0.509000000000000341,-0.088606276412570711
0.510000000000000342,-0.155763413634181391
0.511000000000000343,-0.222021174309185332
0.512000000000000344,-0.287372120309527856
0.513000000000000345,-0.351809325217325219
0.514000000000000346,-0.415326365267971287
0.515000000000000346,-0.477917310256294692
0.516000000000000347,-0.539576714413809055
0.517000000000000348,-0.600299607264556889
0.518000000000000349,-0.660081484466908064
0.519000000000000350,-0.718918298648250520
0.520000000000000351,-0.776806450239436841
0.521000000000000352,-0.833742778315390232
0.522000000000000353,-0.889724551448063616
0.523000000000000353,-0.944749458577867407
0.524000000000000354,-0.998815599909059437
0.525000000000000355,-1.051921477834784735
0.526000000000000356,-1.104065987896808210
0.527000000000000357,-1.155248409785033292
0.528000000000000358,-1.205468398381650541
0.529000000000000359,-1.254725974854202786
0.530000000000000360,-1.303021517802191553
0.531000000000000361,-1.350355754461133095
0.532000000000000361,-1.396729751968108335
0.533000000000000362,-1.442144908692374772
0.534000000000000363,-1.486602945634695194
0.535000000000000364,-1.530105897898640155
0.536000000000000365,-1.572656106236974605
0.537000000000000366,-1.614256208676165816
0.538000000000000367,-1.654909132221715096
0.539000000000000368,-1.694618084647013134
0.540000000000000369,-1.733386546368107517
0.541000000000000369,-1.771218262406713206
0.542000000000000370,-1.808117234443567201
0.543000000000000371,-1.844087712964183057
0.544000000000000372,-1.879134189498780305
0.545000000000000373,-1.913261388958125808
0.546000000000000374,-1.946474262066886451
0.547000000000000375,-1.978777977895852747
0.548000000000000376,-2.010177916494445327
0.549000000000000377,-2.040679661624585695
0.550000000000000377,-2.070288993597129146
0.551000000000000378,-2.099011882211661906
0.552000000000000379,-2.126854479800676323
0.553000000000000380,-2.153823114378723425
0.554000000000000381,-2.179924282897254262
0.555000000000000382,-2.205164644605716262
0.556000000000000383,-2.229551014519239427
0.557000000000000384,-2.253090356993410204
0.558000000000000385,-2.275789779406269364
0.559000000000000385,-2.297656525947812778
0.560000000000000386,-2.318697971517043488
0.561000000000000387,-2.338921615726622161
0.562000000000000388,-2.358335077015037307
0.563000000000000389,-2.376946086866251306
0.564000000000000390,-2.394762484136506497
0.565000000000000391,-2.411792209488170080
0.566000000000000392,-2.428043299930215060
0.567000000000000393,-2.443523883465000601
0.568000000000000393,-2.458242173840891720
0.569000000000000394,-2.472206465410265785
0.570000000000000395,-2.485425128092369818
0.571000000000000396,-2.497906602440369994
0.572000000000000397,-2.509659394812078670
0.573000000000000398,-2.520692072643599957
0.574000000000000399,-2.531013259825175332
0.575000000000000400,-2.540631632178534716
0.576000000000000401,-2.549555913034874166
0.577000000000000401,-2.557794868912727004
0.578000000000000402,-2.565357305294763357
0.579000000000000403,-2.572252062502707215
0.580000000000000404,-2.578488011669413105
0.581000000000000405,-2.584074050807131151
0.582000000000000406,-2.589019100971054588
0.583000000000000407,-2.593332102517032833
0.584000000000000408,-2.597022011452591261
0.585000000000000409,-2.600097795880039087
0.586000000000000409,-2.602568432530731890
0.587000000000000410,-2.604442903389380781
0.588000000000000411,-2.605730192407243351
0.589000000000000412,-2.606439282303219862
0.590000000000000413,-2.606579151451585474
0.591000000000000414,-2.606158770855333984
0.592000000000000415,-2.605187101203961575
0.593000000000000416,-2.603673090014475999
0.594000000000000417,-2.601625668854554263
0.595000000000000417,-2.599053750646652450
0.596000000000000418,-2.595966227051820674
0.597000000000000419,-2.592371965932191547
0.598000000000000420,-2.588279808890777023
0.599000000000000421,-2.583698568887556668
0.600000000000000422,-2.578637027930535730
0.601000000000000423,-2.573103934840650364
0.602000000000000424,-2.567108003089310753
0.603000000000000425,-2.560657908707428376
0.604000000000000425,-2.553762288264623592
0.605000000000000426,-2.546429736917580122
0.606000000000000427,-2.538668806526253263
0.607000000000000428,-2.530488003836758537
0.608000000000000429,-2.521895788729841215
0.609000000000000430,-2.512900572533620203
0.610000000000000431,-2.503510716399600433
0.611000000000000432,-2.493734529740625039
0.612000000000000433,-2.483580268729726814
0.613000000000000433,-2.473056134858702571
0.614000000000000434,-2.462170273555234878
0.615000000000000435,-2.450930772857431439
0.616000000000000436,-2.439345662144701166
0.617000000000000437,-2.427422910923819011
