# Ag100_13THIAZOLE-AC
# h[nm],U(h)[kJ/mol]
0.149999999999999994,142.601333087692324852
0.150999999999999995,140.032533194947376387
0.151999999999999996,135.647411502060009525
0.152999999999999997,130.910075606966898931
0.153999999999999998,126.411876995758944986
0.154999999999999999,122.300725876483824095
0.156000000000000000,118.528299122898033602
0.157000000000000001,114.983914037918381723
0.158000000000000002,111.560142880949797473
0.159000000000000002,108.179140171773767065
0.160000000000000003,104.797848474605373781
0.161000000000000004,101.403104964502787766
0.162000000000000005,98.003036045008883548
0.163000000000000006,94.618190162312927782
0.164000000000000007,91.274055195479689928
0.165000000000000008,87.995546648907662757
0.166000000000000009,84.803470097420813545
0.167000000000000010,81.712676362576672773
0.168000000000000010,78.731521473436004044
0.169000000000000011,75.862237912839262322
0.170000000000000012,73.101869645532147501
0.171000000000000013,70.443490703303240252
0.172000000000000014,67.877498002154979417
0.173000000000000015,65.392834076407922339
0.174000000000000016,62.978050146043258906
0.175000000000000017,60.622163088692573751
0.176000000000000018,58.315291921114635443
0.177000000000000018,56.049081653364012823
0.178000000000000019,53.816936565041928020
0.179000000000000020,51.614092808085914044
0.180000000000000021,49.437563368549085396
0.181000000000000022,47.285988203996517143
0.182000000000000023,45.159419948756521990
0.183000000000000024,43.059071839375022250
0.184000000000000025,40.987050131723343327
0.185000000000000026,38.946088746743711795
0.186000000000000026,36.939299527655407474
0.187000000000000027,34.969947529797750008
0.188000000000000028,33.041257314230577435
0.189000000000000029,31.156253328066760844
0.190000000000000030,29.317635129910502911
0.191000000000000031,27.527686426736352132
0.192000000000000032,25.788215577908477627
0.193000000000000033,24.100524330861148314
0.194000000000000034,22.465401015346078140
0.195000000000000034,20.883134174005732575
0.196000000000000035,19.353542585262523801
0.197000000000000036,17.876017784908686536
0.198000000000000037,16.449575467035320031
0.199000000000000038,15.072912501964589538
0.200000000000000039,13.744466714651224493
0.201000000000000040,12.462476994246841855
0.202000000000000041,11.225041732849456722
0.203000000000000042,10.030174002868799121
0.204000000000000042,8.875852266453694739
0.205000000000000043,7.760065759406654884
0.206000000000000044,6.680854001422753541
0.207000000000000045,5.636340152317542262
0.208000000000000046,4.624758160062663492
0.209000000000000047,3.644473832303771754
0.210000000000000048,2.694000111010267595
0.211000000000000049,1.772006943126768208
0.212000000000000050,0.877326222107760900
0.213000000000000050,0.008952329781914691
0.214000000000000051,-0.833961161107855120
0.215000000000000052,-1.652108052412637917
0.216000000000000053,-2.446038788399644837
0.217000000000000054,-3.216171878923899552
0.218000000000000055,-3.962806960034442660
0.219000000000000056,-4.686139010797897519
0.220000000000000057,-5.386273287165791679
0.221000000000000058,-6.063240579104390626
0.222000000000000058,-6.717012444275377803
0.223000000000000059,-7.347516118892556847
0.224000000000000060,-7.954648852857888919
0.225000000000000061,-8.538291460997246674
0.226000000000000062,-9.098320924486454686
0.227000000000000063,-9.634621915881178111
0.228000000000000064,-10.147097157196153461
0.229000000000000065,-10.635676553018658552
0.230000000000000066,-11.100325069590944338
0.231000000000000066,-11.541049356164160500
0.232000000000000067,-11.957903126784731995
0.233000000000000068,-12.350991339162488813
0.234000000000000069,-12.720473222566869964
0.235000000000000070,-13.066564219017383408
0.236000000000000071,-13.389536911611340742
0.237000000000000072,-13.689721020914351612
0.238000000000000073,-13.967502555178729295
0.239000000000000073,-14.223322203004249431
0.240000000000000074,-14.457673058163589275
0.241000000000000075,-14.671097765914925759
0.242000000000000076,-14.864185178444691005
0.243000000000000077,-15.037566604334955400
0.244000000000000078,-15.191911733326794121
0.245000000000000079,-15.327924313332967898
0.246000000000000080,-15.446337651802974023
0.247000000000000081,-15.547910008306242702
0.248000000000000081,-15.633419939703941282
0.249000000000000082,-15.703661653640057949
0.250000000000000111,-15.759440420397826443
0.251000000000000112,-15.801568087519527239
0.252000000000000113,-15.830858736051714786
0.253000000000000114,-15.848124511907268896
0.254000000000000115,-15.854171660684869494
0.255000000000000115,-15.849796789387093909
0.256000000000000116,-15.835783373863838719
0.257000000000000117,-15.812898526497070506
0.258000000000000118,-15.781890034649038057
0.259000000000000119,-15.743483676729351117
0.260000000000000120,-15.698380819396650310
0.261000000000000121,-15.647256296396571784
0.262000000000000122,-15.590756566844794051
0.263000000000000123,-15.529498148380477929
0.264000000000000123,-15.464066318532781352
0.265000000000000124,-15.395014075844915880
0.266000000000000125,-15.322861350773987255
0.267000000000000126,-15.248094455111672829
0.268000000000000127,-15.171165757636245530
0.269000000000000128,-15.092493572891140019
0.270000000000000129,-15.012462249372825696
0.271000000000000130,-14.931422442982867693
0.272000000000000131,-14.849691561339692925
0.273000000000000131,-14.767554364436241698
0.274000000000000132,-14.685263707155741031
0.275000000000000133,-14.603041409303338938
0.276000000000000134,-14.521079239060497912
0.277000000000000135,-14.439539996109598263
0.278000000000000136,-14.358558681093592568
0.279000000000000137,-14.278243738558170861
0.280000000000000138,-14.198678361060675712
0.281000000000000139,-14.119921842709350912
0.282000000000000139,-14.042010971010418174
0.283000000000000140,-13.964961446538762146
0.284000000000000141,-13.888769320603334023
0.285000000000000142,-13.813412441744208792
0.286000000000000143,-13.738851902566981522
0.287000000000000144,-13.665033479086801549
0.288000000000000145,-13.591889055414972276
0.289000000000000146,-13.519338027268711144
0.290000000000000147,-13.447288678418775731
0.291000000000000147,-13.375639524804375569
0.292000000000000148,-13.304280621639591686
0.293000000000000149,-13.233094829406502058
0.294000000000000150,-13.161959035176773014
0.295000000000000151,-13.090745326224018541
0.296000000000000152,-13.019322113382179040
0.297000000000000153,-12.947555202070896385
0.298000000000000154,-12.875308809345792582
0.299000000000000155,-12.802446525740592165
0.300000000000000155,-12.728832221048767437
0.301000000000000156,-12.654330893544843306
0.302000000000000157,-12.578809462470870173
0.303000000000000158,-12.502137503911788130
0.304000000000000159,-12.424187930455698137
0.305000000000000160,-12.344837615281516463
0.306000000000000161,-12.263967961539240292
0.307000000000000162,-12.181465418086833807
0.308000000000000163,-12.097221942824143426
0.309000000000000163,-12.011135415019738915
0.310000000000000164,-11.923109998161461220
0.311000000000000165,-11.833056454977178618
0.312000000000000166,-11.740892416370465767
0.313000000000000167,-11.646542606096804917
0.314000000000000168,-11.549939023071152278
0.315000000000000169,-11.451021083248452470
0.316000000000000170,-11.349735723055781378
0.317000000000000171,-11.246037466379165792
0.318000000000000171,-11.139888457121225329
0.319000000000000172,-11.031258459348169509
0.320000000000000173,-10.920124827037572146
0.321000000000000174,-10.806472445422301121
0.322000000000000175,-10.690293645902485764
0.323000000000000176,-10.571588096466502549
0.324000000000000177,-10.450362669524981385
0.325000000000000178,-10.326631289019365667
0.326000000000000179,-10.200414758619384514
0.327000000000000179,-10.071740572772059252
0.328000000000000180,-9.940642712310003404
0.329000000000000181,-9.807161426269127347
0.330000000000000182,-9.671343001504578041
0.331000000000000183,-9.533239521632467017
0.332000000000000184,-9.392908616760109908
0.333000000000000185,-9.250413205403241079
0.334000000000000186,-9.105821229922643312
0.335000000000000187,-8.959205386746855737
0.336000000000000187,-8.810642852581645812
0.337000000000000188,-8.660215007741077997
0.338000000000000189,-8.508007157670133935
0.339000000000000190,-8.354108253664211503
0.340000000000000191,-8.198610613727337793
0.341000000000000192,-8.041609644449343008
0.342000000000000193,-7.883203564720244749
0.343000000000000194,-7.723493132041876486
0.344000000000000195,-7.562581372137886504
0.345000000000000195,-7.400573312507964019
0.346000000000000196,-7.237575720517190447
0.347000000000000197,-7.073696846559181850
0.348000000000000198,-6.909046172781222239
0.349000000000000199,-6.743734167810555569
0.350000000000000200,-6.577872047874949502
0.351000000000000201,-6.411571544665333633
0.352000000000000202,-6.244944680246300450
0.353000000000000203,-6.078103549279296303
0.354000000000000203,-5.911160108784739187
0.355000000000000204,-5.744225975632831549
0.356000000000000205,-5.577412231918118302
0.357000000000000206,-5.410829238340035374
0.358000000000000207,-5.244586455680959602
0.359000000000000208,-5.078792274444337451
0.360000000000000209,-4.913553852688301582
0.361000000000000210,-4.748976962064761942
0.362000000000000210,-4.585165842050431984
0.363000000000000211,-4.422223062334189159
0.364000000000000212,-4.260249393304944121
0.365000000000000213,-4.099343684565182500
0.366000000000000214,-3.939602751378370016
0.367000000000000215,-3.781121268942281066
0.368000000000000216,-3.623991674366121796
0.369000000000000217,-3.468304076216023990
0.370000000000000218,-3.314146171481809233
0.371000000000000218,-3.161603169807170932
0.372000000000000219,-3.010757724816076841
0.373000000000000220,-2.861689872359778342
0.374000000000000221,-2.714476975501610490
0.375000000000000222,-2.569193676050261388
0.376000000000000223,-2.425911852447047323
0.377000000000000224,-2.284700583808037422
0.378000000000000225,-2.145626119918422336
0.379000000000000226,-2.008751856973409744
0.380000000000000226,-1.874138318858060703
0.381000000000000227,-1.741843143756771184
0.382000000000000228,-1.611921075882499776
0.383000000000000229,-1.484423962115586804
0.384000000000000230,-1.359400753342166812
0.385000000000000231,-1.236897510283427426
0.386000000000000232,-1.116957413607913674
0.387000000000000233,-0.999620778121050990
0.388000000000000234,-0.884925070828207594
0.389000000000000234,-0.772904932670209988
0.390000000000000235,-0.663592203732870090
0.391000000000000236,-0.557015951735702508
0.392000000000000237,-0.453202503607868123
0.393000000000000238,-0.352175479963707572
0.394000000000000239,-0.253955832293602080
0.395000000000000240,-0.158561882690353928
0.396000000000000241,-0.066009365935392209
0.397000000000000242,0.023688526226461271
0.398000000000000242,0.110521098790298741
0.399000000000000243,0.194480105334604664
0.400000000000000244,0.275559698162371525
0.401000000000000245,0.353756376892066515
0.402000000000000246,0.429068935646463145
0.403000000000000247,0.501498408982045007
0.404000000000000248,0.571048016696819039
0.405000000000000249,0.637723107649669996
0.406000000000000250,0.701531102719298749
0.407000000000000250,0.762481437025990361
0.408000000000000251,0.820585501534646156
0.409000000000000252,0.875856584152487905
0.410000000000000253,0.928309810430439142
0.411000000000000254,0.977962083972032659
0.412000000000000255,1.024832026649447503
0.413000000000000256,1.068939918721333981
0.414000000000000257,1.110307638942924280
0.415000000000000258,1.148958604754130253
0.416000000000000258,1.184917712627325814
0.417000000000000259,1.218211278651978313
0.418000000000000260,1.248866979429283486
0.419000000000000261,1.276913793345897163
0.420000000000000262,1.302381942291734873
0.421000000000000263,1.325302833883086118
0.422000000000000264,1.345709004248520468
0.423000000000000265,1.363634061431315603
0.424000000000000266,1.379112629458555617
0.425000000000000266,1.392180293123783885
0.426000000000000267,1.402873543526540701
0.427000000000000268,1.411229724408973540
0.428000000000000269,1.417286979326570773
0.429000000000000270,1.421084199687088656
0.430000000000000271,1.422660973688652186
0.431000000000000272,1.422057536185465043
0.432000000000000273,1.419314719506612477
0.433000000000000274,1.414473905250988484
0.434000000000000274,1.407576977078753178
0.435000000000000275,1.398666274517507579
0.436000000000000276,1.387784547798847523
0.437000000000000277,1.374974913738923554
0.438000000000000278,1.360280812674463657
0.439000000000000279,1.343745966463685271
0.440000000000000280,1.325414337559609024
0.441000000000000281,1.305330089161550466
0.442000000000000282,1.283537546448582090
0.443000000000000282,1.260081158897448095
0.444000000000000283,1.235005463685471483
0.445000000000000284,1.208355050177797985
0.446000000000000285,1.180174525496770821
0.447000000000000286,1.150508481169866259
0.448000000000000287,1.119401460851480623
0.449000000000000288,1.086897929112575767
0.450000000000000289,1.053042241291080039
0.451000000000000290,1.017878614394982950
0.452000000000000290,0.981451099048972986
0.453000000000000291,0.943803552474621332
0.454000000000000292,0.904979612493238328
0.455000000000000293,0.865022672539726090
0.456000000000000294,0.823975857675043444
0.457000000000000295,0.781882001584229824
0.458000000000000296,0.738783624546190176
0.459000000000000297,0.694722912361102063
0.460000000000000298,0.649741696220466070
0.461000000000000298,0.603881433504732668
0.462000000000000299,0.557183189492553743
0.463000000000000300,0.509687619965745187
0.464000000000000301,0.461434954693397958
0.465000000000000302,0.412464981778485285
0.466000000000000303,0.362817032849767518
0.467000000000000304,0.312529969081974612
0.468000000000000305,0.261642168026599398
0.469000000000000306,0.210191511235800071
0.470000000000000306,0.158215372661665882
0.471000000000000307,0.105750607812924807
0.472000000000000308,0.052833543651233536
0.473000000000000309,-0.000500030790971007
0.474000000000000310,-0.054214873088943218
0.475000000000000311,-0.108276295418660198
0.476000000000000312,-0.162650171881994154
0.477000000000000313,-0.217302945182353074
0.478000000000000314,-0.272201632668320870
0.479000000000000314,-0.327313831763242136
0.480000000000000315,-0.382607724798309845
0.481000000000000316,-0.438052083266763925
0.482000000000000317,-0.493616271516532479
0.483000000000000318,-0.549270249898609952
0.484000000000000319,-0.604984577388226308
0.485000000000000320,-0.660730413695718277
0.486000000000000321,-0.716479520883821608
0.487000000000000322,-0.772204264507869831
0.488000000000000322,-0.827877614295259412
0.489000000000000323,-0.883473144380147568
0.490000000000000324,-0.938965033109382619
0.491000000000000325,-0.994328062435161142
0.492000000000000326,-1.049537616909854476
0.493000000000000327,-1.104569682298085720
0.494000000000000328,-1.159400843820959315
0.495000000000000329,-1.214008284047038977
0.496000000000000330,-1.268369780444406514
0.497000000000000330,-1.322463702607916458
0.498000000000000331,-1.376269009175435043
0.499000000000000332,-1.429765244446528749
0.500000000000000333,-1.482932534717008810
0.501000000000000334,-1.535751584342186504
0.502000000000000335,-1.588203671541591699
0.503000000000000336,-1.640270643957544960
0.504000000000000337,-1.691934913979795896
0.505000000000000338,-1.743179453847996996
0.506000000000000338,-1.793987790543647876
0.507000000000000339,-1.844344000482839974
0.508000000000000340,-1.894232704020758717
0.509000000000000341,-1.943639059778717648
0.510000000000000342,-1.992548758804224551
0.511000000000000343,-2.040948018574236578
0.512000000000000344,-2.088823576851563946
0.513000000000000345,-2.136162685404012773
0.514000000000000346,-2.182953103595781652
0.515000000000000346,-2.229183091860077237
0.516000000000000347,-2.274841405061921229
0.517000000000000348,-2.319917285759715675
0.518000000000000349,-2.364400457373919906
0.519000000000000350,-2.408281117270882010
0.520000000000000351,-2.451549929769771818
0.521000000000000352,-2.494198019080109852
0.522000000000000353,-2.536216962177265000
0.523000000000000353,-2.577598781623131607
0.524000000000000354,-2.618335938338704150
0.525000000000000355,-2.658421324335372926
0.526000000000000356,-2.697848255411200213
0.527000000000000357,-2.736610463818477612
0.528000000000000358,-2.774702090908591767
0.529000000000000359,-2.812117679759748690
0.530000000000000360,-2.848852167793364920
0.531000000000000361,-2.884900879384299621
0.532000000000000361,-2.920259518470166515
0.533000000000000362,-2.954924161164572016
0.534000000000000363,-2.988891248379142773
0.535000000000000364,-3.022157578458819494
0.536000000000000365,-3.054720299834806418
0.537000000000000366,-3.086576903699392638
0.538000000000000367,-3.117725216706626501
0.539000000000000368,-3.148163393702699597
0.540000000000000369,-3.177889910489710257
0.541000000000000369,-3.206903556626291341
0.542000000000000370,-3.235203428268451198
0.543000000000000371,-3.262788921053835001
0.544000000000000372,-3.289659723032401395
0.545000000000000373,-3.315815807646399715
0.546000000000000374,-3.341257426762426430
0.547000000000000375,-3.365985103758073471
0.548000000000000376,-3.389999626665711752
0.549000000000000377,-3.413302041375648521
0.550000000000000377,-3.435893644900928301
0.551000000000000378,-3.457775978705756703
0.552000000000000379,-3.478950822099560192
0.553000000000000380,-3.499420185698462582
0.554000000000000381,-3.519186304955874256
0.555000000000000382,-3.538251633763842108
0.556000000000000383,-3.556618838126561766
0.557000000000000384,-3.574290789907498045
0.558000000000000385,-3.591270560651344645
0.559000000000000385,-3.607561415482037237
0.560000000000000386,-3.623166807077839557
0.561000000000000387,-3.638090369724573669
0.562000000000000388,-3.652335913447787075
0.563000000000000389,-3.665907418224786163
0.564000000000000390,-3.678809028277137738
0.565000000000000391,-3.691045046444382471
0.566000000000000392,-3.702619928639483415
0.567000000000000393,-3.713538278386499858
0.568000000000000393,-3.723804841440907953
0.569000000000000394,-3.733424500492934950
0.570000000000000395,-3.742402269954188565
0.571000000000000396,-3.750743290827737386
0.572000000000000397,-3.758452825661906083
0.573000000000000398,-3.765536253587794757
0.574000000000000399,-3.771999065440569066
0.575000000000000400,-3.777846858964561960
0.576000000000000401,-3.783085334102027186
0.577000000000000401,-3.787720288365519217
0.578000000000000402,-3.791757612293651825
0.579000000000000403,-3.795203284990052772
0.580000000000000404,-3.798063369745270812
0.581000000000000405,-3.800344009741287721
0.582000000000000406,-3.802051423838337829
0.583000000000000407,-3.803191902443598060
0.584000000000000408,-3.803771803461421630
0.585000000000000409,-3.803797548324530986
0.586000000000000409,-3.803275618105797840
0.587000000000000410,-3.802212549710055178
0.588000000000000411,-3.800614932145335079
0.589000000000000412,-3.798489402873067355
0.590000000000000413,-3.795842644236510743
0.591000000000000414,-3.792681379966887256
0.592000000000000415,-3.789012371766514953
0.593000000000000416,-3.784842415968259211
0.594000000000000417,-3.780178340270635484
0.595000000000000417,-3.775027000547832579
0.596000000000000418,-3.769395277733882388
0.597000000000000419,-3.763290074780315742
0.598000000000000420,-3.756718313686414401
0.599000000000000421,-3.749686932601382416
0.600000000000000422,-3.742202882997571756
0.601000000000000423,-3.734273126913958407
0.602000000000000424,-3.725904634269078919
0.603000000000000425,-3.717104380242583606
0.604000000000000425,-3.707879342724498262
0.605000000000000426,-3.698236499831449642
0.606000000000000427,-3.688182827488918569
0.607000000000000428,-3.677725297078648481
0.608000000000000429,-3.666870873150405608
0.609000000000000430,-3.655626511197107131
0.610000000000000431,-3.643999155492561037
0.611000000000000432,-3.631995736990782042
0.612000000000000433,-3.619623171286108665
