# Montmorillonite-001-NaCEC143_CYMSCA-AC
# h[nm],U(h)[kJ/mol]
0.149999999999999994,58.541949792897788996
0.150999999999999995,56.591088764209999340
0.151999999999999996,55.296086923848214667
0.152999999999999997,54.139611850915073887
0.153999999999999998,52.930142622061723046
0.154999999999999999,51.632308699580519828
0.156000000000000000,50.273513298080217737
0.157000000000000001,48.896248764396908371
0.158000000000000002,47.536731280913912201
0.159000000000000002,46.217864577370718848
0.160000000000000003,44.949330250813318344
0.161000000000000004,43.730652765606336629
0.162000000000000005,42.554987309611128410
0.163000000000000006,41.412527531347720355
0.164000000000000007,40.293096693470253911
0.165000000000000008,39.187849227283926723
0.166000000000000009,38.090188052092564419
0.167000000000000010,36.996072765228930734
0.168000000000000010,35.903903441754877690
0.169000000000000011,34.814144316723940165
0.170000000000000012,33.728818954896105708
0.171000000000000013,32.650973760924514977
0.172000000000000014,31.584175085980508157
0.173000000000000015,30.532079019524825725
0.174000000000000016,29.498092773885787210
0.175000000000000017,28.485132004923258364
0.176000000000000018,27.495468659538609302
0.177000000000000018,26.530658052265533087
0.178000000000000019,25.591530921630571527
0.179000000000000020,24.678235379262599025
0.180000000000000021,23.790314255224295437
0.181000000000000022,22.926804818410627007
0.182000000000000023,22.086349799399126681
0.183000000000000024,21.267310766745527673
0.184000000000000025,20.467877001650819579
0.185000000000000026,19.686164949085004139
0.186000000000000026,18.920305020708219956
0.187000000000000027,18.168513952084595076
0.188000000000000028,17.429152068200345127
0.189000000000000029,16.700765700606368114
0.190000000000000030,15.982115651603844952
0.191000000000000031,15.272193046862032162
0.192000000000000032,14.570224190961567956
0.193000000000000033,13.875666173359178401
0.194000000000000034,13.188194995739076276
0.195000000000000034,12.507687933012368475
0.196000000000000035,11.834201723037825360
0.197000000000000036,11.167948024362537751
0.198000000000000037,10.509267403157810605
0.199000000000000038,9.858602922920313816
0.200000000000000039,9.216474223279782052
0.201000000000000040,8.583452794659573115
0.202000000000000041,7.960138988639963387
0.203000000000000042,7.347141152937368247
0.204000000000000042,6.745057146747329924
0.205000000000000043,6.154458377490013454
0.206000000000000044,5.575876403569894890
0.207000000000000045,5.009792068823981204
0.208000000000000046,4.456627071660442141
0.209000000000000047,3.916737823986204514
0.210000000000000048,3.390411420243506946
0.211000000000000049,2.877863513526206951
0.212000000000000050,2.379237882148173888
0.213000000000000050,1.894607464588702994
0.214000000000000051,1.423976641943833554
0.215000000000000052,0.967284553506724820
0.216000000000000053,0.524409241662208592
0.217000000000000054,0.095172435837100972
0.218000000000000055,-0.320655199128901447
0.219000000000000056,-0.723348507923215811
0.220000000000000057,-1.113222123218756243
0.221000000000000058,-1.490624700244854051
0.222000000000000058,-1.855933212797894694
0.223000000000000059,-2.209547399423465563
0.224000000000000060,-2.551884432832332017
0.225000000000000061,-2.883373871042766545
0.226000000000000062,-3.204452935387931412
0.227000000000000063,-3.515562148454371538
0.228000000000000064,-3.817141354248061447
0.229000000000000065,-4.109626133409099324
0.230000000000000066,-4.393444618075745822
0.231000000000000066,-4.669014703979025072
0.232000000000000067,-4.936741651456896918
0.233000000000000068,-5.197016062232211020
0.234000000000000069,-5.450212214912987463
0.235000000000000070,-5.696686739156997525
0.236000000000000071,-5.936777606203199831
0.237000000000000072,-6.170803411922757498
0.238000000000000073,-6.399062927593274885
0.239000000000000073,-6.621834893170925440
0.240000000000000074,-6.839378027849721597
0.241000000000000075,-7.051931233081826456
0.242000000000000076,-7.259713963923840829
0.243000000000000077,-7.462926745511377469
0.244000000000000078,-7.661751812594253863
0.245000000000000079,-7.856353851339969552
0.246000000000000080,-8.046880823991994447
0.247000000000000081,-8.233464858415649346
0.248000000000000081,-8.416223186045723281
0.249000000000000082,-8.595259113240446780
0.250000000000000111,-8.770663012523710833
0.251000000000000112,-8.942513321641744284
0.252000000000000113,-9.110877539759236754
0.253000000000000114,-9.275813211457421659
0.254000000000000115,-9.437368890468578186
0.255000000000000115,-9.595585076276559988
0.256000000000000116,-9.750495117830187297
0.257000000000000117,-9.902126079651090151
0.258000000000000118,-10.050499566569024879
0.259000000000000119,-10.195632504186756151
0.260000000000000120,-10.337537872963753927
0.261000000000000121,-10.476225394515257250
0.262000000000000122,-10.611702169354666481
0.263000000000000123,-10.743973265864458000
0.264000000000000123,-10.873042260769526735
0.265000000000000124,-10.998911731809442927
0.266000000000000125,-11.121583703668346033
0.267000000000000126,-11.241060048526165360
0.268000000000000127,-11.357342842848385800
0.269000000000000128,-11.470434682236456680
0.270000000000000129,-11.580338956322997035
0.271000000000000130,-11.687060085818476551
0.272000000000000131,-11.790603723903101852
0.273000000000000131,-11.890976924213562782
0.274000000000000132,-11.988188277701954831
0.275000000000000133,-12.082248020648066245
0.276000000000000134,-12.173168116088294965
0.277000000000000135,-12.260962310888405824
0.278000000000000136,-12.345646170636268124
0.279000000000000137,-12.427237094465965583
0.280000000000000138,-12.505754311849697658
0.281000000000000139,-12.581218863310226652
0.282000000000000139,-12.653653566916160500
0.283000000000000140,-12.723082972327032891
0.284000000000000141,-12.789533304056121210
0.285000000000000142,-12.853032395518079412
0.286000000000000143,-12.913609615326132385
0.287000000000000144,-12.971295787201716720
0.288000000000000145,-13.026123104758505988
0.289000000000000146,-13.078125042322866989
0.290000000000000147,-13.127336262856285742
0.291000000000000147,-13.173792523950613287
0.292000000000000148,-13.217530582776296555
0.293000000000000149,-13.258588100776368179
0.294000000000000150,-13.297003548815586882
0.295000000000000151,-13.332816113414983406
0.296000000000000152,-13.366065604626822250
0.297000000000000153,-13.396792366034679489
0.298000000000000154,-13.425037187296684493
0.299000000000000155,-13.450841219588394182
0.300000000000000155,-13.474245894243967570
0.301000000000000156,-13.495292844841031865
0.302000000000000157,-13.514023832925641244
0.303000000000000158,-13.530480677528297306
0.304000000000000159,-13.544705188581115607
0.305000000000000160,-13.556739104308496380
0.306000000000000161,-13.566624032629885477
0.307000000000000162,-13.574401396582839396
0.308000000000000163,-13.580112383747183102
0.309000000000000163,-13.583797899627072070
0.310000000000000164,-13.585498524926478581
0.311000000000000165,-13.585254476634943899
0.312000000000000166,-13.583105572824589302
0.313000000000000167,-13.579091201045486059
0.314000000000000168,-13.573250290195181478
0.315000000000000169,-13.565621285728459711
0.316000000000000170,-13.556242128066042341
0.317000000000000171,-13.545150234054711191
0.318000000000000171,-13.532382481327072554
0.319000000000000172,-13.517975195406293665
0.320000000000000173,-13.501964139399074583
0.321000000000000174,-13.484384506119971192
0.322000000000000175,-13.465270912490188593
0.323000000000000176,-13.444657396055649912
0.324000000000000177,-13.422577413471117325
0.325000000000000178,-13.399063840799854574
0.326000000000000179,-13.374148975482205159
0.327000000000000179,-13.347864539829823016
0.328000000000000180,-13.320241685907209472
0.329000000000000181,-13.291311001666798575
0.330000000000000182,-13.261102518208740975
0.331000000000000183,-13.229645718042235103
0.332000000000000184,-13.196969544230338300
0.333000000000000185,-13.163102410306143142
0.334000000000000186,-13.128072210853696689
0.335000000000000187,-13.091906332652943235
0.336000000000000187,-13.054631666293653680
0.337000000000000188,-13.016274618168996113
0.338000000000000189,-12.976861122765217971
0.339000000000000190,-12.936416655169409751
0.340000000000000191,-12.894966243722659982
0.341000000000000192,-12.852534482751684308
0.342000000000000193,-12.809145545316676262
0.343000000000000194,-12.764823195918747700
0.344000000000000195,-12.719590803114645183
0.345000000000000195,-12.673471351991784317
0.346000000000000196,-12.626487456460500525
0.347000000000000197,-12.578661371325306817
0.348000000000000198,-12.530015004100771847
0.349000000000000199,-12.480569926541679848
0.350000000000000200,-12.430347385860871512
0.351000000000000201,-12.379368315611760210
0.352000000000000202,-12.327653346215699415
0.353000000000000203,-12.275222815117796671
0.354000000000000203,-12.222096776557503262
0.355000000000000204,-12.168295010943150913
0.356000000000000205,-12.113837033822226985
0.357000000000000206,-12.058742104441643406
0.358000000000000207,-12.003029233894206840
0.359000000000000208,-11.946717192849991562
0.360000000000000209,-11.889824518872812220
0.361000000000000210,-11.832369523324000937
0.362000000000000210,-11.774370297857114309
0.363000000000000211,-11.715844720508721721
0.364000000000000212,-11.656810461391795997
0.365000000000000213,-11.597284987999161743
0.366000000000000214,-11.537285570125833445
0.367000000000000215,-11.476829284419627797
0.368000000000000216,-11.415933018570679991
0.369000000000000217,-11.354613475150717505
0.370000000000000218,-11.292887175114040943
0.371000000000000218,-11.230770460972191671
0.372000000000000219,-11.168279499655147546
0.373000000000000220,-11.105430285071927088
0.374000000000000221,-11.042238640383860826
0.375000000000000222,-10.978720220003962638
0.376000000000000223,-10.914890511336002632
0.377000000000000224,-10.850764836266876046
0.378000000000000225,-10.786358352425878593
0.379000000000000226,-10.721686054224525364
0.380000000000000226,-10.656762773690406476
0.381000000000000227,-10.591603181108373732
0.382000000000000228,-10.526221785482364979
0.383000000000000229,-10.460632934830730534
0.384000000000000230,-10.394850816327846132
0.385000000000000231,-10.328889456304533923
0.386000000000000232,-10.262762720119351201
0.387000000000000233,-10.196484311912721310
0.388000000000000234,-10.130067774255335777
0.389000000000000234,-10.063526487702100454
0.390000000000000235,-9.996873670262312217
0.391000000000000236,-9.930122376796626682
0.392000000000000237,-9.863285498350744973
0.393000000000000238,-9.796375761435601959
0.394000000000000239,-9.729405727263173986
0.395000000000000240,-9.662387790946850075
0.396000000000000241,-9.595334180674859326
0.397000000000000242,-9.528256956864655791
0.398000000000000242,-9.461168011306060777
0.399000000000000243,-9.394079066300397685
0.400000000000000244,-9.327001673802307380
0.401000000000000245,-9.259947214570964036
0.402000000000000246,-9.192926897336587189
0.403000000000000247,-9.125951757987978752
0.404000000000000248,-9.059032658786463799
0.405000000000000249,-8.992180287611187595
0.406000000000000250,-8.925405157240296816
0.407000000000000250,-8.858717604672415646
0.408000000000000251,-8.792127790492122230
0.409000000000000252,-8.725645698283287288
0.410000000000000253,-8.659281134093276933
0.411000000000000254,-8.593043725951195810
0.412000000000000255,-8.526942923442735633
0.413000000000000256,-8.460987997344030731
0.414000000000000257,-8.395188039316639816
0.415000000000000258,-8.329551961665455195
0.416000000000000258,-8.264088497161235836
0.417000000000000259,-8.198806198928888733
0.418000000000000260,-8.133713440402903672
0.419000000000000261,-8.068818415350524020
0.420000000000000262,-8.004129137963550633
0.421000000000000263,-7.939653443019139445
0.422000000000000264,-7.875398986109924060
0.423000000000000265,-7.811373243943466882
0.424000000000000266,-7.747583514711140040
0.425000000000000266,-7.684036918526027549
0.426000000000000267,-7.620740397929536059
0.427000000000000268,-7.557700718466216827
0.428000000000000269,-7.494924469326051053
0.429000000000000270,-7.432418064053519124
0.430000000000000271,-7.370187741322399511
0.431000000000000272,-7.308239565775471291
0.432000000000000273,-7.246579428927818256
0.433000000000000274,-7.185213050132685630
0.434000000000000274,-7.124145977608479896
0.435000000000000275,-7.063383589525615847
0.436000000000000276,-7.002931095151772922
0.437000000000000277,-6.942793536053983416
0.438000000000000278,-6.882975787356082620
0.439000000000000279,-6.823482559049885765
0.440000000000000280,-6.764318397358382917
0.441000000000000281,-6.705487686149313120
0.442000000000000282,-6.646994648397397398
0.443000000000000282,-6.588843347693409846
0.444000000000000283,-6.531037689798354862
0.445000000000000284,-6.473581424240967053
0.446000000000000285,-6.416478145956593160
0.447000000000000286,-6.359731296965863478
0.448000000000000287,-6.303344168091028266
0.449000000000000288,-6.247319900708392382
0.450000000000000289,-6.191661488534815128
0.451000000000000290,-6.136371779446550434
0.452000000000000290,-6.081453477328576440
0.453000000000000291,-6.026909143952576819
0.454000000000000292,-5.972741200881825918
0.455000000000000293,-5.918951931401116084
0.456000000000000294,-5.865543482470035208
0.457000000000000295,-5.812517866697803015
0.458000000000000296,-5.759876964337945715
0.459000000000000297,-5.707622525301127681
0.460000000000000298,-5.655756171184424197
0.461000000000000298,-5.604279397315447220
0.462000000000000299,-5.553193574809659694
0.463000000000000300,-5.502499952639272607
0.464000000000000301,-5.452199659712237079
0.465000000000000302,-5.402293706959762964
0.466000000000000303,-5.352782989430842520
0.467000000000000304,-5.303668288392387353
0.468000000000000305,-5.254950273433519392
0.469000000000000306,-5.206629504572617861
0.470000000000000306,-5.158706434365832649
0.471000000000000307,-5.111181410015649185
0.472000000000000308,-5.064054675478351086
0.473000000000000309,-5.017326373569032327
0.474000000000000310,-4.970996548063034481
0.475000000000000311,-4.925065145792575372
0.476000000000000312,-4.879532018737571697
0.477000000000000313,-4.834396926109360670
0.478000000000000314,-4.789659536426477793
0.479000000000000314,-4.745319429581371651
0.480000000000000315,-4.701376098897056544
0.481000000000000316,-4.657828953172874265
0.482000000000000317,-4.614677318718324983
0.483000000000000318,-4.571920441374227373
0.484000000000000319,-4.529557488520272734
0.485000000000000320,-4.487587551068275893
0.486000000000000321,-4.446009645440299529
0.487000000000000322,-4.404822715530928079
0.488000000000000322,-4.364025634653040164
0.489000000000000323,-4.323617207466402768
0.490000000000000324,-4.283596171888465420
0.491000000000000325,-4.243961200986776205
0.492000000000000326,-4.204710904852411169
0.493000000000000327,-4.165843832453981932
0.494000000000000328,-4.127358473471641531
0.495000000000000329,-4.089253260110669252
0.496000000000000330,-4.051526568894191271
0.497000000000000330,-4.014176722434611655
0.498000000000000331,-3.977201991183379359
0.499000000000000332,-3.940600595158794128
0.500000000000000333,-3.904370705651441398
0.501000000000000334,-3.868510446906996414
0.502000000000000335,-3.833017897786145767
0.503000000000000336,-3.797891093401373208
0.504000000000000337,-3.763128026730329090
0.505000000000000338,-3.728726650205663962
0.506000000000000338,-3.694684877281103841
0.507000000000000339,-3.661000583973603284
0.508000000000000340,-3.627671610381470124
0.509000000000000341,-3.594695762178348186
0.510000000000000342,-3.562070812082934967
0.511000000000000343,-3.529794501304381438
0.512000000000000344,-3.497864540963324664
0.513000000000000345,-3.466278613488493310
0.514000000000000346,-3.435034373988899326
0.515000000000000346,-3.404129451601581202
0.516000000000000347,-3.373561450814910323
0.517000000000000348,-3.343327952767558120
0.518000000000000349,-3.313426516523030330
0.519000000000000350,-3.283854680319996167
0.520000000000000351,-3.254609962798330258
0.521000000000000352,-3.225689864201069845
0.522000000000000353,-3.197091867552309452
0.523000000000000353,-3.168813439811164923
0.524000000000000354,-3.140852033001970689
0.525000000000000355,-3.113205085320757348
0.526000000000000356,-3.085870022218238695
0.527000000000000357,-3.058844257459418348
0.528000000000000358,-3.032125194159956294
0.529000000000000359,-3.005710225799542723
0.530000000000000360,-2.979596737212375501
0.531000000000000361,-2.953782105554986437
0.532000000000000361,-2.928263701251585083
0.533000000000000362,-2.903038888917137683
0.534000000000000363,-2.878105028258392206
0.535000000000000364,-2.853459474953038644
0.536000000000000365,-2.829099581507271033
0.537000000000000366,-2.805022698091958144
0.538000000000000367,-2.781226173357622677
0.539000000000000368,-2.757707355228563806
0.540000000000000369,-2.734463591676223881
0.541000000000000369,-2.711492231472194536
0.542000000000000370,-2.688790624921010508
0.543000000000000371,-2.666356124573010966
0.544000000000000372,-2.644186085917564988
0.545000000000000373,-2.622277868056866357
0.546000000000000374,-2.600628834360591224
0.547000000000000375,-2.579236353101669099
0.548000000000000376,-2.558097798073471374
0.549000000000000377,-2.537210549188637199
0.550000000000000377,-2.516571993059812051
0.551000000000000378,-2.496179523562626734
0.552000000000000379,-2.476030542381124633
0.553000000000000380,-2.456122459535937885
0.554000000000000381,-2.436452693895490906
0.555000000000000382,-2.417018673670512818
0.556000000000000383,-2.397817836892083943
0.557000000000000384,-2.378847631873573842
0.558000000000000385,-2.360105517656666763
0.559000000000000385,-2.341588964441801313
0.560000000000000386,-2.323295454003263316
0.561000000000000387,-2.305222480089232473
0.562000000000000388,-2.287367548807041739
0.563000000000000389,-2.269728178993907886
0.564000000000000390,-2.252301902573431658
0.565000000000000391,-2.235086264898111352
0.566000000000000392,-2.218078825078144689
0.567000000000000393,-2.201277156296801429
0.568000000000000393,-2.184678846112591888
0.569000000000000394,-2.168281496748524884
0.570000000000000395,-2.152082725368726024
0.571000000000000396,-2.136080164342613497
0.572000000000000397,-2.120271461496980869
0.573000000000000398,-2.104654280356139662
0.574000000000000399,-2.089226300370464529
0.575000000000000400,-2.073985217133517800
0.576000000000000401,-2.058928742588045147
0.577000000000000401,-2.044054605221081289
0.578000000000000402,-2.029360550248384687
0.579000000000000403,-2.014844339788456118
0.580000000000000404,-2.000503753026395604
0.581000000000000405,-1.986336586367794865
0.582000000000000406,-1.972340653582925540
0.583000000000000407,-1.958513785941441654
0.584000000000000408,-1.944853832337815946
0.585000000000000409,-1.931358659407749867
0.586000000000000409,-1.918026151635764176
0.587000000000000410,-1.904854211454187096
0.588000000000000411,-1.891840759333760946
0.589000000000000412,-1.878983733866082417
0.590000000000000413,-1.866281091838065009
0.591000000000000414,-1.853730808298653443
0.592000000000000415,-1.841330876617985002
0.593000000000000416,-1.829079308539178772
0.594000000000000417,-1.816974134222975490
0.595000000000000417,-1.805013402285426283
0.596000000000000418,-1.793195179828764640
0.597000000000000419,-1.781517552465736287
0.598000000000000420,-1.769978624337493756
0.599000000000000421,-1.758576518125280375
0.600000000000000422,-1.747309375056070646
0.601000000000000423,-1.736175354902342205
0.602000000000000424,-1.725172635976149893
0.603000000000000425,-1.714299415117676473
0.604000000000000425,-1.703553907678420742
0.605000000000000426,-1.692934347499191361
0.606000000000000427,-1.682438986883078913
0.607000000000000428,-1.672066096563513016
0.608000000000000429,-1.661813965667654713
0.609000000000000430,-1.651680901675153690
0.610000000000000431,-1.641665230372543860
