# Montmorillonite-001-NaCEC143_NULLCHEM
# h[nm],U(h)[kJ/mol]
0.149999999999999994,39.626680663503080382
0.150999999999999995,38.936835436463347548
0.151999999999999996,38.151171873849122562
0.152999999999999997,37.387117842959774805
0.153999999999999998,36.670603463043732972
0.154999999999999999,35.991814432683362668
0.156000000000000000,35.332611947297692723
0.157000000000000001,34.678170937357130299
0.158000000000000002,34.020385462838000024
0.159000000000000002,33.357423816577444597
0.160000000000000003,32.691854022683386916
0.161000000000000004,32.028577678772450099
0.162000000000000005,31.373123002589476727
0.163000000000000006,30.730469596644297781
0.164000000000000007,30.104386212620624974
0.165000000000000008,29.497180802418018430
0.166000000000000009,28.909740523938751267
0.167000000000000010,28.341748275309974758
0.168000000000000010,27.791984173586001816
0.169000000000000011,27.258645347778838186
0.170000000000000012,26.739640447594034356
0.171000000000000013,26.232834203784751281
0.172000000000000014,25.736231662616489757
0.173000000000000015,25.248101656714137420
0.174000000000000016,24.767045353416577314
0.175000000000000017,24.292019139386063387
0.176000000000000018,23.822322423524365576
0.177000000000000018,23.357560833325994309
0.178000000000000019,22.897594279207641677
0.179000000000000020,22.442477876772208845
0.180000000000000021,21.992402044725885446
0.181000000000000022,21.547636438022635730
0.182000000000000023,21.108480858658584367
0.183000000000000024,20.675224980646834894
0.184000000000000025,20.248117660455186240
0.185000000000000026,19.827345780934876984
0.186000000000000026,19.413021978926305877
0.187000000000000027,19.005180207391322966
0.188000000000000028,18.603777850387974269
0.189000000000000029,18.208703010806964073
0.190000000000000030,17.819785595403569545
0.191000000000000031,17.436810901214251146
0.192000000000000032,17.059534537699846624
0.193000000000000033,16.687697679752304225
0.194000000000000034,16.321041821893846446
0.195000000000000034,15.959322381143049796
0.196000000000000035,15.602320665965709878
0.197000000000000036,15.249853885121812169
0.198000000000000037,14.901783009043384709
0.199000000000000038,14.558018415479612173
0.200000000000000039,14.218523349826654112
0.201000000000000040,13.883315309203911880
0.202000000000000041,13.552465519106501546
0.203000000000000042,13.226096714028443557
0.204000000000000042,12.904379460792473111
0.205000000000000043,12.587527277564353412
0.206000000000000044,12.275790804810952750
0.207000000000000045,11.969451278852702103
0.208000000000000046,11.668813546092028588
0.209000000000000047,11.374198838226359243
0.210000000000000048,11.085937507332008778
0.211000000000000049,10.804361895980454378
0.212000000000000050,10.529799492658854732
0.213000000000000050,10.262566497654237452
0.214000000000000051,10.002961899977412585
0.215000000000000052,9.751262142437216340
0.216000000000000053,9.507716430063513968
0.217000000000000054,9.272542717025711312
0.218000000000000055,9.045924389196798643
0.219000000000000056,8.828007643673888794
0.220000000000000057,8.618899552908159123
0.221000000000000058,8.418666789586783494
0.222000000000000058,8.227334978960296752
0.223000000000000059,8.044888637804280762
0.224000000000000060,7.871271653498570053
0.225000000000000061,7.706388252640321568
0.226000000000000062,7.550104406008929736
0.227000000000000063,7.402249615398984517
0.228000000000000064,7.262619027659674487
0.229000000000000065,7.130975822060467983
0.230000000000000066,7.007053818685323954
0.231000000000000066,6.890560257793660881
0.232000000000000067,6.781178702840260364
0.233000000000000068,6.678572022994089252
0.234000000000000069,6.582385414427565529
0.235000000000000070,6.492249423264484065
0.236000000000000071,6.407782936791261541
0.237000000000000072,6.328596113278416979
0.238000000000000073,6.254293224464988477
0.239000000000000073,6.184475388375927807
0.240000000000000074,6.118743173628426568
0.241000000000000075,6.056699059704935273
0.242000000000000076,5.997949740801693963
0.243000000000000077,5.942108263783495659
0.244000000000000078,5.888795993475343771
0.245000000000000079,5.837644400992387794
0.246000000000000080,5.788296673048050067
0.247000000000000081,5.740409142187628433
0.248000000000000081,5.693652539675387203
0.249000000000000082,5.647713074323753801
0.250000000000000111,5.602293341902695900
0.251000000000000112,5.557113070916699371
0.252000000000000113,5.511909711496771003
0.253000000000000114,5.466438874939383297
0.254000000000000115,5.420474632045236163
0.255000000000000115,5.373809678882123464
0.256000000000000116,5.326255378931360696
0.257000000000000117,5.277641690789025120
0.258000000000000118,5.227816990695068000
0.259000000000000119,5.176647799167165331
0.260000000000000120,5.124018420934024043
0.261000000000000121,5.069830507206273928
0.262000000000000122,5.014002549102155371
0.263000000000000123,4.956469310770366121
0.264000000000000123,4.897181210432450804
0.265000000000000124,4.836103657210761853
0.266000000000000125,4.773216351222682619
0.267000000000000126,4.708512554014918194
0.268000000000000127,4.641998335989018010
0.269000000000000128,4.573691807037143953
0.270000000000000129,4.503622336169976315
0.271000000000000130,4.431829765481221095
0.272000000000000131,4.358363623359254646
0.273000000000000131,4.283282341429439199
0.274000000000000132,4.206652479293202518
0.275000000000000133,4.128547960724636035
0.276000000000000134,4.049049324594176547
0.277000000000000135,3.968242993413367170
0.278000000000000136,3.886220562035936688
0.279000000000000137,3.803078108709699645
0.280000000000000138,3.718915530351603937
0.281000000000000139,3.633835903614913043
0.282000000000000139,3.547944873033493707
0.283000000000000140,3.461350067263423202
0.284000000000000141,3.374160544196344258
0.285000000000000142,3.286486265492125192
0.286000000000000143,3.198437600869884712
0.287000000000000144,3.110124862305933213
0.288000000000000145,3.021657868113786005
0.289000000000000146,2.933145536725114688
0.290000000000000147,2.844695509849639592
0.291000000000000147,2.756413804566915093
0.292000000000000148,2.668404493791855625
0.293000000000000149,2.580769414458866429
0.294000000000000150,2.493607902685009758
0.295000000000000151,2.407016555100471855
0.296000000000000152,2.321089015473605244
0.297000000000000153,2.235915785707454084
0.298000000000000154,2.151584060243828311
0.299000000000000155,2.068177582879350052
0.300000000000000155,1.985776524974324442
0.301000000000000156,1.904457384019423216
0.302000000000000157,1.824292901515941256
0.303000000000000158,1.745351999122731090
0.304000000000000159,1.667699732025504034
0.305000000000000160,1.591397258492161182
0.306000000000000161,1.516501824589961744
0.307000000000000162,1.443066763056681134
0.308000000000000163,1.371141505337639455
0.309000000000000163,1.300771605823220378
0.310000000000000164,1.231998777346889895
0.311000000000000165,1.164860937031309884
0.312000000000000166,1.099392261599537290
0.313000000000000167,1.035623251299264025
0.314000000000000168,0.973580801620170910
0.315000000000000169,0.913288282017512998
0.316000000000000170,0.854765620888775168
0.317000000000000171,0.798029396084334652
0.318000000000000171,0.743092930267500340
0.319000000000000172,0.689966390473484403
0.320000000000000173,0.638656891251299874
0.321000000000000174,0.589168600806301623
0.322000000000000175,0.541502849594651781
0.323000000000000176,0.495658240853885990
0.324000000000000177,0.451630762585987278
0.325000000000000178,0.409413900540976594
0.326000000000000179,0.368998751779512524
0.327000000000000179,0.330374138423052355
0.328000000000000180,0.293526721228753118
0.329000000000000181,0.258441112654254734
0.330000000000000182,0.225099989104394105
0.331000000000000183,0.193484202077553208
0.332000000000000184,0.163572887954262919
0.333000000000000185,0.135343576194251553
0.334000000000000186,0.108772295730773655
0.335000000000000187,0.083833679372596670
0.336000000000000187,0.060501066044433748
0.337000000000000188,0.038746600716139133
0.338000000000000189,0.018541331889215230
0.339000000000000190,-0.000144693473390589
0.340000000000000191,-0.017342337671847653
0.341000000000000192,-0.033083282730736484
0.342000000000000193,-0.047399943664924039
0.343000000000000194,-0.060325384604489149
0.344000000000000195,-0.071893237820409614
0.345000000000000195,-0.082137625681204085
0.346000000000000196,-0.091093085559612777
0.347000000000000197,-0.098794497698451528
0.348000000000000198,-0.105277016035397603
0.349000000000000199,-0.110576001977864810
0.350000000000000200,-0.114726961111306203
0.351000000000000201,-0.117765482817025285
0.352000000000000202,-0.119727182769024942
0.353000000000000203,-0.120647648273531166
0.354000000000000203,-0.120562386409387837
0.355000000000000204,-0.119506774922726502
0.356000000000000205,-0.117516015825039594
0.357000000000000206,-0.114625091639978999
0.358000000000000207,-0.110868724240773625
0.359000000000000208,-0.106281336217375968
0.360000000000000209,-0.100897014709855876
0.361000000000000210,-0.094749477642455032
0.362000000000000210,-0.087872042290971925
0.363000000000000211,-0.080297596114688827
0.364000000000000212,-0.072058569782972981
0.365000000000000213,-0.063186912325794792
0.366000000000000214,-0.053714068336878106
0.367000000000000215,-0.043670957157872795
0.368000000000000216,-0.033087953971849694
0.369000000000000217,-0.021994872734492077
0.370000000000000218,-0.010420950871762003
0.371000000000000218,0.001605164326836395
0.372000000000000219,0.014055427689492462
0.373000000000000220,0.026902406587238480
0.374000000000000221,0.040119289871448950
0.375000000000000222,0.053679895391153212
0.376000000000000223,0.067558676156418501
0.377000000000000224,0.081730725212897856
0.378000000000000225,0.096171779291288756
0.379000000000000226,0.110858221294103026
0.380000000000000226,0.125767081680640824
0.381000000000000227,0.140876038809689241
0.382000000000000228,0.156163418297779077
0.383000000000000229,0.171608191449390546
0.384000000000000230,0.187189972813842864
0.385000000000000231,0.202889016921947996
0.386000000000000232,0.218686214253970057
0.387000000000000233,0.234563086488654093
0.388000000000000234,0.250501781081582553
0.389000000000000234,0.266485065219323747
0.390000000000000235,0.282496319194311785
0.391000000000000236,0.298519529243672310
0.392000000000000237,0.314539279893650214
0.393000000000000238,0.330540745849638107
0.394000000000000239,0.346509683470260677
0.395000000000000240,0.362432421862358467
0.396000000000000241,0.378295853632205414
0.397000000000000242,0.394087425326794805
0.398000000000000242,0.409795127597458730
0.399000000000000243,0.425407485116740425
0.400000000000000244,0.440913546277957924
0.401000000000000245,0.456302872705448670
0.402000000000000246,0.471565528602257089
0.403000000000000247,0.486692069960595775
0.404000000000000248,0.501673533659133364
0.405000000000000249,0.516501426469975988
0.406000000000000250,0.531167713996918089
0.407000000000000250,0.545664809565379327
0.408000000000000251,0.559985563083339577
0.409000000000000252,0.574123249891405285
0.410000000000000253,0.588071559619129935
0.411000000000000254,0.601824585063656992
0.412000000000000255,0.615376811105731614
0.413000000000000256,0.628723103677200967
0.414000000000000257,0.641858698793194571
0.415000000000000258,0.654779191661217785
0.416000000000000258,0.667480525878654030
0.417000000000000259,0.679958982729223949
0.418000000000000260,0.692211170588230784
0.419000000000000261,0.704234014445665246
0.420000000000000262,0.716024745555463360
0.421000000000000263,0.727580891218579051
0.422000000000000264,0.738900264706818577
0.423000000000000265,0.749980955333809929
0.424000000000000266,0.760821318678773895
0.425000000000000266,0.771419966968319937
0.426000000000000267,0.781775759620822130
0.427000000000000268,0.791887793957476327
0.428000000000000269,0.801755396083638106
0.429000000000000270,0.811378111943511060
0.430000000000000271,0.820755698550915236
0.431000000000000272,0.829888115398324189
0.432000000000000273,0.838775516046057157
0.433000000000000274,0.847418239893060865
0.434000000000000274,0.855816804130420494
0.435000000000000275,0.863971895878352547
0.436000000000000276,0.871884364507134357
0.437000000000000277,0.879555214142160979
0.438000000000000278,0.886985596352968253
0.439000000000000279,0.894176803025873435
0.440000000000000280,0.901130259419593238
0.441000000000000281,0.907847517402997184
0.442000000000000282,0.914330248873914009
0.443000000000000282,0.920580239357750130
0.444000000000000283,0.926599381784458109
0.445000000000000284,0.932389670442233309
0.446000000000000285,0.937953195106203785
0.447000000000000286,0.943292135340135451
0.448000000000000287,0.948408754969172874
0.449000000000000288,0.953305396721380482
0.450000000000000289,0.957984477035862314
0.451000000000000290,0.962448481035040992
0.452000000000000290,0.966699957658645248
0.453000000000000291,0.970741514956857565
0.454000000000000292,0.974575815539989954
0.455000000000000293,0.978205572182017868
0.456000000000000294,0.981633543575221035
0.457000000000000295,0.984862530233152400
0.458000000000000296,0.987895370539096818
0.459000000000000297,0.990734936937171518
0.460000000000000298,0.993384132263165021
0.461000000000000298,0.995845886212214482
0.462000000000000299,0.998123151940374931
0.463000000000000300,1.000218902797176845
0.464000000000000301,1.002136129186185887
0.465000000000000302,1.003877835550647690
0.466000000000000303,1.005447037481263850
0.467000000000000304,1.006846758943174880
0.468000000000000305,1.008080029619204510
0.469000000000000306,1.009149882366477735
0.470000000000000306,1.010059350783504950
0.471000000000000307,1.010811466884874221
0.472000000000000308,1.011409258880685558
0.473000000000000309,1.011855749057929632
0.474000000000000310,1.012153951760990767
0.475000000000000311,1.012306871468541258
0.476000000000000312,1.012317500964066586
0.477000000000000313,1.012188819597350520
0.478000000000000314,1.011923791634259384
0.479000000000000314,1.011525364692182238
0.480000000000000315,1.010996468258578806
0.481000000000000316,1.010340012290062095
0.482000000000000317,1.009558885889541013
0.483000000000000318,1.008655956058948089
0.484000000000000319,1.007634066525146421
0.485000000000000320,1.006496036636639335
0.486000000000000321,1.005244660328763917
0.487000000000000322,1.003882705155074717
0.488000000000000322,1.002412911382703609
0.489000000000000323,1.000837991149469808
0.490000000000000324,0.999160627680636515
0.491000000000000325,0.997383474563177996
0.492000000000000326,0.995509155075530394
0.493000000000000327,0.993540261570808658
0.494000000000000328,0.991479354911524391
0.495000000000000329,0.989328963953896134
0.496000000000000330,0.987091585079887368
0.497000000000000330,0.984769681775124917
0.498000000000000331,0.982365684250955384
0.499000000000000332,0.979881989108862705
0.500000000000000333,0.977320959045588133
0.501000000000000334,0.974684922597299441
0.502000000000000335,0.971976173921187625
0.503000000000000336,0.969196972612958008
0.504000000000000337,0.966349543558681745
0.505000000000000338,0.963436076819530696
0.506000000000000338,0.960458727547969460
0.507000000000000339,0.957419615934008261
0.508000000000000340,0.954320827180154985
0.509000000000000341,0.951164411503767737
0.510000000000000342,0.947952384165514084
0.511000000000000343,0.944686725522714044
0.512000000000000344,0.941369381106361813
0.513000000000000345,0.938002261720662256
0.514000000000000346,0.934587243563953840
0.515000000000000346,0.931126168369936780
0.516000000000000347,0.927620843568138120
0.517000000000000348,0.924073042462591920
0.518000000000000349,0.920484504427757977
0.519000000000000350,0.916856935120711092
0.520000000000000351,0.913192006708675286
0.521000000000000352,0.909491358111020665
0.522000000000000353,0.905756595254852526
0.523000000000000353,0.901989291343355482
0.524000000000000354,0.898190987136108787
0.525000000000000355,0.894363191240565292
0.526000000000000356,0.890507380413987804
0.527000000000000357,0.886624999875077813
0.528000000000000358,0.882717463624644316
0.529000000000000359,0.878786154774615857
0.530000000000000360,0.874832425884767950
0.531000000000000361,0.870857599306537944
0.532000000000000361,0.866862967533347684
0.533000000000000362,0.862849793556837552
0.534000000000000363,0.858819311228494642
0.535000000000000364,0.854772725626115282
0.536000000000000365,0.850711213424629187
0.537000000000000366,0.846635923270768642
0.538000000000000367,0.842547976161144851
0.539000000000000368,0.838448465823266154
0.540000000000000369,0.834338459099083662
0.541000000000000369,0.830218996330653880
0.542000000000000370,0.826091091747523931
0.543000000000000371,0.821955733855475046
0.544000000000000372,0.817813885826256026
0.545000000000000373,0.813666485887983848
0.546000000000000374,0.809514447715867669
0.547000000000000375,0.805358660822970363
0.548000000000000376,0.801199990950688501
0.549000000000000377,0.797039280458694654
0.550000000000000377,0.792877348714061680
0.551000000000000378,0.788714992479318533
0.552000000000000379,0.784552986299210109
0.553000000000000380,0.780392082885912552
0.554000000000000381,0.776233013502511393
0.555000000000000382,0.772076488344526579
0.556000000000000383,0.767923196919296558
0.557000000000000384,0.763773808423034106
0.558000000000000385,0.759628972115402035
0.559000000000000385,0.755489317691420581
0.560000000000000386,0.751355455650582149
0.561000000000000387,0.747227977663015519
0.562000000000000388,0.743107456932573740
0.563000000000000389,0.738994448556724359
0.564000000000000390,0.734889489883116753
0.565000000000000391,0.730793100862734635
0.566000000000000392,0.726705784399527710
0.567000000000000393,0.722628026696416681
0.568000000000000393,0.718560297597620967
0.569000000000000394,0.714503050927187799
0.570000000000000395,0.710456724823696595
0.571000000000000396,0.706421742071037029
0.572000000000000397,0.702398510425218503
0.573000000000000398,0.698387422937168822
0.574000000000000399,0.694388858271443921
0.575000000000000400,0.690403181020842194
0.576000000000000401,0.686430742016864492
0.577000000000000401,0.682471878635990681
0.578000000000000402,0.678526915101747452
0.579000000000000403,0.674596162782560294
0.580000000000000404,0.670679920485335979
0.581000000000000405,0.666778474744797789
0.582000000000000406,0.662892100108543270
0.583000000000000407,0.659021059417815080
0.584000000000000408,0.655165604084001707
0.585000000000000409,0.651325974360843829
0.586000000000000409,0.647502399612369439
0.587000000000000410,0.643695098576545943
0.588000000000000411,0.639904279624682770
0.589000000000000412,0.636130141016567507
0.590000000000000413,0.632372871151373861
0.591000000000000414,0.628632648814347439
0.592000000000000415,0.624909643419292449
0.593000000000000416,0.621204015246875296
0.594000000000000417,0.617515915678776284
0.595000000000000417,0.613845487427712166
0.596000000000000418,0.610192864763352327
0.597000000000000419,0.606558173734166983
0.598000000000000420,0.602941532385229850
0.599000000000000421,0.599343050972012348
0.600000000000000422,0.595762832170196877
0.601000000000000423,0.592200971281559019
0.602000000000000424,0.588657556435934648
0.603000000000000425,0.585132668789320576
0.604000000000000425,0.581626382718152812
0.605000000000000426,0.578138766009789196
0.606000000000000427,0.574669880049239579
0.607000000000000428,0.571219780002200084
0.608000000000000429,0.567788514994400417
0.609000000000000430,0.564376128287351286
0.610000000000000431,0.560982657450490363
0.611000000000000432,0.557608134529800958
0.612000000000000433,0.554252586212939713
0.613000000000000433,0.550916033990905274
0.614000000000000434,0.547598494316316908
0.615000000000000435,0.544299978758324920
0.616000000000000436,0.541020494154214160
0.617000000000000437,0.537760042757738810
0.618000000000000438,0.534518622384235753
0.619000000000000439,0.531296226552567030
0.620000000000000440,0.528092844623929580
0.621000000000000441,0.524908461937587445
