# Montmorillonite-001-NaCEC143_GLNSCA-AC
# h[nm],U(h)[kJ/mol]
0.149999999999999994,104.285416411998113517
0.150999999999999995,103.298507039360487170
0.151999999999999996,102.047240963962366322
0.152999999999999997,100.777386645179163338
0.153999999999999998,99.567031750727508665
0.154999999999999999,98.419946766040283137
0.156000000000000000,97.314491892553647290
0.157000000000000001,96.226800874844300893
0.158000000000000002,95.139802982142981591
0.159000000000000002,94.045018814579336208
0.160000000000000003,92.941134426018066961
0.161000000000000004,91.831541423803713542
0.162000000000000005,90.721936645627579310
0.163000000000000006,89.618441793068896573
0.164000000000000007,88.526357714140885946
0.165000000000000008,87.449496711248727365
0.166000000000000009,86.389966609918573681
0.167000000000000010,85.348266610166461987
0.168000000000000010,84.323569136524383794
0.169000000000000011,83.314087470228031407
0.170000000000000012,82.317456654001574634
0.171000000000000013,81.331080298131880113
0.172000000000000014,80.352416489656192766
0.173000000000000015,79.379191564032382189
0.174000000000000016,78.409541403838460383
0.175000000000000017,77.442086912382151809
0.176000000000000018,76.475954208856592231
0.177000000000000018,75.510751707661441401
0.178000000000000019,74.546516275279486763
0.179000000000000020,73.583639672096694540
0.180000000000000021,72.622784923104219956
0.181000000000000022,71.664800443527809648
0.182000000000000023,70.710637898096223353
0.183000000000000024,69.761278042293966450
0.184000000000000025,68.817667266616609822
0.185000000000000026,67.880666282199896955
0.186000000000000026,66.951011358601860479
0.187000000000000027,66.029287741605585893
0.188000000000000028,65.115914317580887882
0.189000000000000029,64.211138221358794453
0.190000000000000030,63.315037874395102335
0.191000000000000031,62.427532857276617051
0.192000000000000032,61.548399035637750387
0.193000000000000033,60.677287444863466703
0.194000000000000034,59.813745573899005592
0.195000000000000034,58.957239853274089114
0.196000000000000035,58.107178332005176458
0.197000000000000036,57.262932710682662218
0.198000000000000037,56.423859075086511439
0.199000000000000038,55.589316839968773820
0.200000000000000039,54.758685562174527206
0.201000000000000040,53.931379413737829509
0.202000000000000041,53.106859218018804825
0.203000000000000042,52.284642045395990806
0.204000000000000042,51.464308440283900836
0.205000000000000043,50.645507409613898631
0.206000000000000044,49.827959346021643228
0.207000000000000045,49.011457088626897871
0.208000000000000046,48.195865342333490844
0.209000000000000047,47.381118684851529110
0.210000000000000048,46.567218390901459202
0.211000000000000049,45.754228296919450258
0.212000000000000050,44.942269918510049820
0.213000000000000050,44.131517018189740043
0.214000000000000051,43.322189803754028503
0.215000000000000052,42.514548918849456527
0.216000000000000053,41.708889367835823236
0.217000000000000054,40.905534497440378061
0.218000000000000055,40.104830138552060248
0.219000000000000056,39.307138993183393438
0.220000000000000057,38.512835334431791523
0.221000000000000058,37.722300071415290290
0.222000000000000058,36.935916216760567465
0.223000000000000059,36.154064781361476832
0.224000000000000060,35.377121109812946997
0.225000000000000061,34.605451660138591308
0.226000000000000062,33.839411223112485061
0.227000000000000063,33.079340569548115525
0.228000000000000064,32.325564508294981181
0.229000000000000065,31.578390333237059906
0.230000000000000066,30.838106634218000579
0.231000000000000066,30.104982444405969488
0.232000000000000067,29.379266695046588609
0.233000000000000068,28.661187947721600722
0.234000000000000069,27.950954374029247873
0.235000000000000070,27.248753952930314881
0.236000000000000071,26.554754856769630322
0.237000000000000072,25.869105998101144195
0.238000000000000073,25.191937710840875297
0.239000000000000073,24.523362540878444804
0.240000000000000074,23.863476123030352483
0.241000000000000075,23.212358123071528127
0.242000000000000076,22.570073225483348267
0.243000000000000077,21.936672149472336457
0.244000000000000078,21.312192677711291111
0.245000000000000079,20.696660684105061989
0.246000000000000080,20.090091148669010579
0.247000000000000081,19.492489149307807850
0.248000000000000081,18.903850821888216416
0.249000000000000082,18.324164281498752871
0.250000000000000111,17.753410499177778803
0.251000000000000112,17.191564129666073057
0.252000000000000113,16.638594286898175767
0.253000000000000114,16.094465264992322773
0.254000000000000115,15.559137203430234209
0.255000000000000115,15.032566695942787049
0.256000000000000116,14.514707343337715173
0.257000000000000117,14.005510251127486043
0.258000000000000118,13.504924473346070712
0.259000000000000119,13.012897404386393418
0.260000000000000120,12.529375121054973974
0.261000000000000121,12.054302677331879323
0.262000000000000122,11.587624354548708538
0.263000000000000123,11.129283869863307643
0.264000000000000123,10.679224546020737563
0.265000000000000124,10.237389445454551762
0.266000000000000125,9.803721471804234255
0.267000000000000126,9.378163441910540854
0.268000000000000127,8.960658131304084506
0.269000000000000128,8.551148296130804738
0.270000000000000129,8.149576674362545958
0.271000000000000130,7.755885969027815463
0.272000000000000131,7.370018816070173173
0.273000000000000131,6.991917739302134116
0.274000000000000132,6.621525094774828979
0.275000000000000133,6.258783006730157972
0.276000000000000134,5.903633297144819103
0.277000000000000135,5.556017410717912774
0.278000000000000136,5.215876336994944573
0.279000000000000137,4.883150531165343367
0.280000000000000138,4.557779834917981887
0.281000000000000139,4.239703398590032535
0.282000000000000139,3.928859605701762625
0.283000000000000140,3.625186000832107514
0.284000000000000141,3.328619221659466998
0.285000000000000142,3.039094935867952874
0.286000000000000143,2.756547783503147997
0.287000000000000144,2.480911325252347588
0.288000000000000145,2.212117997022391869
0.289000000000000146,1.950099071095237280
0.290000000000000147,1.694784624054079147
0.291000000000000147,1.446103511594863500
0.292000000000000148,1.203983350265624308
0.293000000000000149,0.968350506112154230
0.294000000000000150,0.739130090150129981
0.295000000000000151,0.516245960532765169
0.296000000000000152,0.299620731237758342
0.297000000000000153,0.089175787058123748
0.298000000000000154,-0.115168695352547881
0.299000000000000155,-0.313493720658142572
0.300000000000000155,-0.505881442543129944
0.301000000000000156,-0.692415126261480829
0.302000000000000157,-0.873179106367545033
0.303000000000000158,-1.048258739975896692
0.304000000000000159,-1.217740355905205352
0.305000000000000160,-1.381711200065458778
0.306000000000000161,-1.540259377449681111
0.307000000000000162,-1.693473791090192915
0.308000000000000163,-1.841444078336131440
0.309000000000000163,-1.984260544803563509
0.310000000000000164,-2.122014096342386136
0.311000000000000165,-2.254796169355171465
0.312000000000000166,-2.382698659793214713
0.313000000000000167,-2.505813851143441351
0.314000000000000168,-2.624234341707599061
0.315000000000000169,-2.738052971461945706
0.316000000000000170,-2.847362748772094942
0.317000000000000171,-2.952256777222989292
0.318000000000000171,-3.052828182809685043
0.319000000000000172,-3.149170041719741242
0.320000000000000173,-3.241375308922807452
0.321000000000000174,-3.329536747768169214
0.322000000000000175,-3.413746860776141201
0.323000000000000176,-3.494097821794214465
0.324000000000000177,-3.570681409674567597
0.325000000000000178,-3.643588943614949560
0.326000000000000179,-3.712911220291509551
0.327000000000000179,-3.778738452898083633
0.328000000000000180,-3.841160212193653223
0.329000000000000181,-3.900265369647097025
0.330000000000000182,-3.956142042755834698
0.331000000000000183,-4.008877542603793032
0.332000000000000184,-4.058558323712559535
0.333000000000000185,-4.105269936229288597
0.334000000000000186,-4.149096980484691777
0.335000000000000187,-4.190123063945072168
0.336000000000000187,-4.228430760573397507
0.337000000000000188,-4.264101572605757617
0.338000000000000189,-4.297215894742114628
0.339000000000000190,-4.327852980742546762
0.340000000000000191,-4.356090912413497662
0.341000000000000192,-4.382006570962269976
0.342000000000000193,-4.405675610692156852
0.343000000000000194,-4.427172435005358508
0.344000000000000195,-4.446570174675691156
0.345000000000000195,-4.463940668349214214
0.346000000000000196,-4.479354445226337411
0.347000000000000197,-4.492880709875867851
0.348000000000000198,-4.504587329128088236
0.349000000000000199,-4.514540820991188141
0.350000000000000200,-4.522806345533081362
0.351000000000000201,-4.529447697668421924
0.352000000000000202,-4.534527301788978448
0.353000000000000203,-4.538106208174091272
0.354000000000000203,-4.540244091116797165
0.355000000000000204,-4.540999248700209989
0.356000000000000205,-4.540428604158316617
0.357000000000000206,-4.538587708754922012
0.358000000000000207,-4.535530746114109668
0.359000000000000208,-4.531310537935931748
0.360000000000000209,-4.525978551031132113
0.361000000000000210,-4.519584905609053571
0.362000000000000210,-4.512178384753594784
0.363000000000000211,-4.503806445022684457
0.364000000000000212,-4.494515228107698768
0.365000000000000213,-4.484349573490110430
0.366000000000000214,-4.473353032033843490
0.367000000000000215,-4.461567880452887991
0.368000000000000216,-4.449035136595147044
0.369000000000000217,-4.435794575484626634
0.370000000000000218,-4.421884746065740224
0.371000000000000218,-4.407342988594685096
0.372000000000000219,-4.392205452624651230
0.373000000000000220,-4.376507115532989545
0.374000000000000221,-4.360281801540166313
0.375000000000000222,-4.343562201171788040
0.376000000000000223,-4.326379891116941323
0.377000000000000224,-4.308765354437388062
0.378000000000000225,-4.290748001084020657
0.379000000000000226,-4.272356188678616995
0.380000000000000226,-4.253617243520617208
0.381000000000000227,-4.234557481780138133
0.382000000000000228,-4.215202230840380260
0.383000000000000229,-4.195575850753922253
0.384000000000000230,-4.175701755779141600
0.385000000000000231,-4.155602435964652841
0.386000000000000232,-4.135299478751051971
0.387000000000000233,-4.114813590560970624
0.388000000000000234,-4.094164618349776852
0.389000000000000234,-4.073371571090946830
0.390000000000000235,-4.052452641171369052
0.391000000000000236,-4.031425225673421764
0.392000000000000237,-4.010305947521912273
0.393000000000000238,-3.989110676475448258
0.394000000000000239,-3.967854549942954723
0.395000000000000240,-3.946551993607459785
0.396000000000000241,-3.925216741840441337
0.397000000000000242,-3.903861857891150144
0.398000000000000242,-3.882499753836661682
0.399000000000000243,-3.861142210279273179
0.400000000000000244,-3.839800395779146669
0.401000000000000245,-3.818484886011050516
0.402000000000000246,-3.797205682634967161
0.403000000000000247,-3.775972231871459250
0.404000000000000248,-3.754793442773451950
0.405000000000000249,-3.733677705187072426
0.406000000000000250,-3.712632907394918025
0.407000000000000250,-3.691666453436091011
0.408000000000000251,-3.670785280097919490
0.409000000000000252,-3.649995873575190508
0.410000000000000253,-3.629304285793294671
0.411000000000000254,-3.608716150392407229
0.412000000000000255,-3.588236698370450117
0.413000000000000256,-3.567870773383203353
0.414000000000000257,-3.547622846700408950
0.415000000000000258,-3.527497031817420581
0.416000000000000258,-3.507497098722240025
0.417000000000000259,-3.487626487818479948
0.418000000000000260,-3.467888323505056380
0.419000000000000261,-3.448285427413993354
0.420000000000000262,-3.428820331307957048
0.421000000000000263,-3.409495289639713267
0.422000000000000264,-3.390312291775816611
0.423000000000000265,-3.371273073887318450
0.424000000000000266,-3.352379130510629857
0.425000000000000266,-3.333631725781694310
0.426000000000000267,-3.315031904347215175
0.427000000000000268,-3.296580501956662967
0.428000000000000269,-3.278278155739125399
0.429000000000000270,-3.260125314169277200
0.430000000000000271,-3.242122246726797385
0.431000000000000272,-3.224269053253931983
0.432000000000000273,-3.206565673015828732
0.433000000000000274,-3.189011893468582937
0.434000000000000274,-3.171607358739923388
0.435000000000000275,-3.154351577827652076
0.436000000000000276,-3.137243932521014411
0.437000000000000277,-3.120283685050210476
0.438000000000000278,-3.103469985469414993
0.439000000000000279,-3.086801878778654196
0.440000000000000280,-3.070278311789938375
0.441000000000000281,-3.053898139743097317
0.442000000000000282,-3.037660132676847091
0.443000000000000282,-3.021562981560437233
0.444000000000000283,-3.005605304191536042
0.445000000000000284,-2.989785650865690592
0.446000000000000285,-2.974102509822874829
0.447000000000000286,-2.958554312476680437
0.448000000000000287,-2.943139438431395583
0.449000000000000288,-2.927856220292569311
0.450000000000000289,-2.912702948276249870
0.451000000000000290,-2.897677874622343275
0.452000000000000290,-2.882779217817331041
0.453000000000000291,-2.868005166631524716
0.454000000000000292,-2.853353883976104122
0.455000000000000293,-2.838823510584978838
0.456000000000000294,-2.824412168526559519
0.457000000000000295,-2.810117964550427061
0.458000000000000296,-2.795938993273753059
0.459000000000000297,-2.781873340212380974
0.460000000000000298,-2.767919084661274010
0.461000000000000298,-2.754074302429064147
0.462000000000000299,-2.740337068431290213
0.463000000000000300,-2.726705459146818722
0.464000000000000301,-2.713177554941977210
0.465000000000000302,-2.699751442266701051
0.466000000000000303,-2.686425215726982341
0.467000000000000304,-2.673196980037843673
0.468000000000000305,-2.660064851860926893
0.469000000000000306,-2.647026961530716704
0.470000000000000306,-2.634081454673390166
0.471000000000000307,-2.621226493722051742
0.472000000000000308,-2.608460259332205933
0.473000000000000309,-2.595780951701120998
0.474000000000000310,-2.583186791794650716
0.475000000000000311,-2.570676022485037571
0.476000000000000312,-2.558246909603171471
0.477000000000000313,-2.545897742908546313
0.478000000000000314,-2.533626836980219732
0.479000000000000314,-2.521432532031981033
0.480000000000000315,-2.509313194654708035
0.481000000000000316,-2.497267218489054752
0.482000000000000317,-2.485293024831241482
0.483000000000000318,-2.473389063174919134
0.484000000000000319,-2.461553811691782556
0.485000000000000320,-2.449785777653666230
0.486000000000000321,-2.438083497798694932
0.487000000000000322,-2.426445538644057542
0.488000000000000322,-2.414870496747780315
0.489000000000000323,-2.403356998922004717
0.490000000000000324,-2.391903702399956977
0.491000000000000325,-2.380509294958922162
0.492000000000000326,-2.369172495001332202
0.493000000000000327,-2.357892051596134131
0.494000000000000328,-2.346666744482404532
0.495000000000000329,-2.335495384037213462
0.496000000000000330,-2.324376811209598603
0.497000000000000330,-2.313309897422567207
0.498000000000000331,-2.302293544444748541
0.499000000000000332,-2.291326684233591315
0.500000000000000333,-2.280408278751640871
0.501000000000000334,-2.269537319757474414
0.502000000000000335,-2.258712828572943643
0.503000000000000336,-2.247933855828097460
0.504000000000000337,-2.237199481185274674
0.505000000000000338,-2.226508813043709178
0.506000000000000338,-2.215860988226005190
0.507000000000000339,-2.205255171647718893
0.508000000000000340,-2.194690555971269497
0.509000000000000341,-2.184166361245446719
0.510000000000000342,-2.173681834531486334
0.511000000000000343,-2.163236249516953258
0.512000000000000344,-2.152828906118366525
0.513000000000000345,-2.142459130073621765
0.514000000000000346,-2.132126272525169508
0.515000000000000346,-2.121829709594820645
0.516000000000000347,-2.111568841951085407
0.517000000000000348,-2.101343094369935383
0.518000000000000349,-2.091151915289672036
0.519000000000000350,-2.080994776360796994
0.520000000000000351,-2.070871171991518711
0.521000000000000352,-2.060780618889672233
0.522000000000000353,-2.050722655601657340
0.523000000000000353,-2.040696842049042115
0.524000000000000354,-2.030702759063492291
0.525000000000000355,-2.020740007920515779
0.526000000000000356,-2.010808209872615215
0.527000000000000357,-2.000907005682394768
0.528000000000000358,-1.991036055156023110
0.529000000000000359,-1.981195036677645405
0.530000000000000360,-1.971383646745039853
0.531000000000000361,-1.961601599507075022
0.532000000000000361,-1.951848626303255063
0.533000000000000362,-1.942124475205796230
0.534000000000000363,-1.932428910564526259
0.535000000000000364,-1.922761712554994062
0.536000000000000365,-1.913122676730041549
0.537000000000000366,-1.903511613575182837
0.538000000000000367,-1.893928348067983602
0.539000000000000368,-1.884372719241818928
0.540000000000000369,-1.874844579754080032
0.541000000000000369,-1.865343795459225573
0.542000000000000370,-1.855870244986718376
0.543000000000000371,-1.846423819324154225
0.544000000000000372,-1.837004421405699972
0.545000000000000373,-1.827611965706018804
0.546000000000000374,-1.818246377839801919
0.547000000000000375,-1.808907594167074917
0.548000000000000376,-1.799595561404385702
0.549000000000000377,-1.790310236241970943
0.550000000000000377,-1.781051584967012769
0.551000000000000378,-1.771819583093053652
0.552000000000000379,-1.762614214995678497
0.553000000000000380,-1.753435473554500801
0.554000000000000381,-1.744283359801489963
0.555000000000000382,-1.735157882575778299
0.556000000000000383,-1.726059058184844286
0.557000000000000384,-1.716986910072254791
0.558000000000000385,-1.707941468491855019
0.559000000000000385,-1.698922770188523446
0.560000000000000386,-1.689930858085438192
0.561000000000000387,-1.680965780977888402
0.562000000000000388,-1.672027593233589071
0.563000000000000389,-1.663116354499554417
0.564000000000000390,-1.654232129415436292
0.565000000000000391,-1.645374987333359629
0.566000000000000392,-1.636545002044193620
0.567000000000000393,-1.627742251510279292
0.568000000000000393,-1.618966817604496011
0.569000000000000394,-1.610218785855692447
0.570000000000000395,-1.601498245200432269
0.571000000000000396,-1.592805287740947984
0.572000000000000397,-1.584140008509342890
0.573000000000000398,-1.575502505237893924
0.574000000000000399,-1.566892878135472067
0.575000000000000400,-1.558311229669961495
0.576000000000000401,-1.549757664356637088
0.577000000000000401,-1.541232288552478513
0.578000000000000402,-1.532735210256254144
0.579000000000000403,-1.524266538914376801
0.580000000000000404,-1.515826385232474927
0.581000000000000405,-1.507414860992514649
0.582000000000000406,-1.499032078875507157
0.583000000000000407,-1.490678152289626412
0.584000000000000408,-1.482353195203738094
0.585000000000000409,-1.474057321986195435
0.586000000000000409,-1.465790647248867540
0.587000000000000410,-1.457553285696304046
0.588000000000000411,-1.449345351979921315
0.589000000000000412,-1.441166960557207721
0.590000000000000413,-1.433018225555755532
0.591000000000000414,-1.424899260642123133
0.592000000000000415,-1.416810178895429262
0.593000000000000416,-1.408751092685525119
0.594000000000000417,-1.400722113555749715
0.595000000000000417,-1.392723352110161184
0.596000000000000418,-1.384754917905077987
0.597000000000000419,-1.376816919344985291
0.598000000000000420,-1.368909463582586694
0.599000000000000421,-1.361032656423014853
0.600000000000000422,-1.353186602232056890
0.601000000000000423,-1.345371403848332870
0.602000000000000424,-1.337587162499352944
0.603000000000000425,-1.329833977721355254
0.604000000000000425,-1.322111947282835098
0.605000000000000426,-1.314421167111698097
0.606000000000000427,-1.306761731225989154
0.607000000000000428,-1.299133731667980074
0.608000000000000429,-1.291537258441782132
0.609000000000000430,-1.283972399454095026
0.610000000000000431,-1.276439240458310920
0.611000000000000432,-1.268937865001679821
0.612000000000000433,-1.261468354375549605
0.613000000000000433,-1.254030787568627181
