# Montmorillonite-001-NaCEC143_CS-61465-AC
# h[nm],U(h)[kJ/mol]
0.149999999999999994,123.325277695224670538
0.150999999999999995,122.294584164327488907
0.151999999999999996,121.086817931119298919
0.152999999999999997,119.815370617278404097
0.153999999999999998,118.537131376056407817
0.154999999999999999,117.275896579141857501
0.156000000000000000,116.037456001354911450
0.157000000000000001,114.818948384394133200
0.158000000000000002,113.614365536588621808
0.159000000000000002,112.417542587521623432
0.160000000000000003,111.223567846470785980
0.161000000000000004,110.029248994319004851
0.162000000000000005,108.833058205151090192
0.163000000000000006,107.634827103693879735
0.164000000000000007,106.435357240015079583
0.165000000000000008,105.236040556666765156
0.166000000000000009,104.038537597984102945
0.167000000000000010,102.844531771105195617
0.168000000000000010,101.655560468348937775
0.169000000000000011,100.472914393071761197
0.170000000000000012,99.297592187573215483
0.171000000000000013,98.130296462024759307
0.172000000000000014,96.971458202865804310
0.173000000000000015,95.821278382362919501
0.174000000000000016,94.679777806010065433
0.175000000000000017,93.546848457017887313
0.176000000000000018,92.422301620324503801
0.177000000000000018,91.305909790749495869
0.178000000000000019,90.197440757590442217
0.179000000000000020,89.096683319335454598
0.180000000000000021,88.003464848998419257
0.181000000000000022,86.917661445900691319
0.182000000000000023,85.839201719918875710
0.183000000000000024,84.768065404146682340
0.184000000000000025,83.704278022141892279
0.185000000000000026,82.647902781379713133
0.186000000000000026,81.599030754133920595
0.187000000000000027,80.557770263830349222
0.188000000000000028,79.524236236737849026
0.189000000000000029,78.498540118814418065
0.190000000000000030,77.480780804856081545
0.191000000000000031,76.471036887883471422
0.192000000000000032,75.469360414519485403
0.193000000000000033,74.475772228618566828
0.194000000000000034,73.490258900852751367
0.195000000000000034,72.512771175582500405
0.196000000000000035,71.543223816729579312
0.197000000000000036,70.581496699705155606
0.198000000000000037,69.627436974717639373
0.199000000000000038,68.680862115930054301
0.200000000000000039,67.741563668956331412
0.201000000000000040,66.809311514208587823
0.202000000000000041,65.883858473940733802
0.203000000000000042,64.964945104984721524
0.204000000000000042,64.052304535859036605
0.205000000000000043,63.145667225066553385
0.206000000000000044,62.244765536106534398
0.207000000000000045,61.349338043297528600
0.208000000000000046,60.459133500404007577
0.209000000000000047,59.573914420872611686
0.210000000000000048,58.693460233936626480
0.211000000000000049,57.817569994758251539
0.212000000000000050,56.946064639051449774
0.213000000000000050,56.078788783239247095
0.214000000000000051,55.215612080170309639
0.215000000000000052,54.356430147817420107
0.216000000000000053,53.501165094303452463
0.217000000000000054,52.649765667158405336
0.218000000000000055,51.802207058039030585
0.219000000000000056,50.958490396368638642
0.220000000000000057,50.118641966618227457
0.221000000000000058,49.282712184385040644
0.222000000000000058,48.450774366152927541
0.223000000000000059,47.622923326769083019
0.224000000000000060,46.799273837346547111
0.225000000000000061,45.979958974608379663
0.226000000000000062,45.165128390714862405
0.227000000000000063,44.354946530441722530
0.228000000000000064,43.549590820275795977
0.229000000000000065,42.749249851622288077
0.230000000000000066,41.954121577931275056
0.231000000000000066,41.164411543187924281
0.232000000000000067,40.380331156909932133
0.233000000000000068,39.602096028582799647
0.234000000000000069,38.829924372361546148
0.235000000000000070,38.064035490891328095
0.236000000000000071,37.304648345262350517
0.237000000000000072,36.551980216420609793
0.238000000000000073,35.806245461811855080
0.239000000000000073,35.067654369641346079
0.240000000000000074,34.336412111882118836
0.241000000000000075,33.612717796060081810
0.242000000000000076,32.896763614876846304
0.243000000000000077,32.188734091893437039
0.244000000000000078,31.488805420785883626
0.245000000000000079,30.797144895084592520
0.246000000000000080,30.113910424819032130
0.247000000000000081,29.439250136094422317
0.248000000000000081,28.773302049323490337
0.249000000000000082,28.116193831612406484
0.250000000000000111,27.468042618647711350
0.251000000000000112,26.828954901343973205
0.252000000000000113,26.199026472479467031
0.253000000000000114,25.578342428566305244
0.254000000000000115,24.966977222260382518
0.255000000000000115,24.364994760713102551
0.256000000000000116,23.772448545393210395
0.257000000000000117,23.189381849057760121
0.258000000000000118,22.615827925723355207
0.259000000000000119,22.051810249675039444
0.260000000000000120,21.497342779749203601
0.261000000000000121,20.952430245333978576
0.262000000000000122,20.417068450742647201
0.263000000000000123,19.891244594830489234
0.264000000000000123,19.374937602940338621
0.265000000000000124,18.868118468475177707
0.266000000000000125,18.370750601605713825
0.267000000000000126,17.882790182825559100
0.268000000000000127,17.404186519264570165
0.269000000000000128,16.934882401862893175
0.270000000000000129,16.474814461691337897
0.271000000000000130,16.023913523878462684
0.272000000000000131,15.582104957771528930
0.273000000000000131,15.149309022114973544
0.274000000000000132,14.725441204178228105
0.275000000000000133,14.310412551902985001
0.276000000000000134,13.904129998269089796
0.277000000000000135,13.506496677199047340
0.278000000000000136,13.117412230431364506
0.279000000000000137,12.736773104896016662
0.280000000000000138,12.364472840219564276
0.281000000000000139,12.000402346072744919
0.282000000000000139,11.644450169152577246
0.283000000000000140,11.296502749661106790
0.284000000000000141,10.956444667207501098
0.285000000000000142,10.624158876117224537
0.286000000000000143,10.299526930183244389
0.287000000000000144,9.982429196939843763
0.288000000000000145,9.672745061578941872
0.289000000000000146,9.370353120664690394
0.290000000000000147,9.075131365831211383
0.291000000000000147,8.786957357675310831
0.292000000000000148,8.505708390077071357
0.293000000000000149,8.231261645200174115
0.294000000000000150,7.963494339438357272
0.295000000000000151,7.702283860586587316
0.296000000000000152,7.447507896524510507
0.297000000000000153,7.199044555706786142
0.298000000000000154,6.956772479759012029
0.299000000000000155,6.720570948480711237
0.300000000000000155,6.490319977557500231
0.301000000000000156,6.265900409283782224
0.302000000000000157,6.047193996594832477
0.303000000000000158,5.834083480704148172
0.304000000000000159,5.626452662636995505
0.305000000000000160,5.424186468946111894
0.306000000000000161,5.227171011889144125
0.307000000000000162,5.035293644340716135
0.308000000000000163,4.848443009704753948
0.309000000000000163,4.666509087085017882
0.310000000000000164,4.489383231963567589
0.311000000000000165,4.316958212628877689
0.312000000000000166,4.149128242586576754
0.313000000000000167,3.985789009177353570
0.314000000000000168,3.826837698617995276
0.315000000000000169,3.672173017672785811
0.316000000000000170,3.521695212153841847
0.317000000000000171,3.375306082440776123
0.318000000000000171,3.232908996201387275
0.319000000000000172,3.094408898486951998
0.320000000000000173,2.959712319367682198
0.321000000000000174,2.828727379266095632
0.322000000000000175,2.701363792138159248
0.323000000000000176,2.577532866644963949
0.324000000000000177,2.457147505450182123
0.325000000000000178,2.340122202771929949
0.326000000000000179,2.226373040310583917
0.327000000000000179,2.115817681667987671
0.328000000000000180,2.008375365367108589
0.329000000000000181,1.903966896575231660
0.330000000000000182,1.802514637628264804
0.331000000000000183,1.703942497448022619
0.332000000000000184,1.608175919939392795
0.333000000000000185,1.515141871449220856
0.334000000000000186,1.424768827364019774
0.335000000000000187,1.336986757919146118
0.336000000000000187,1.251727113287741222
0.337000000000000188,1.168922808013910686
0.338000000000000189,1.088508204850412664
0.339000000000000190,1.010419098057753873
0.340000000000000191,0.934592696218066843
0.341000000000000192,0.860967604613882997
0.342000000000000193,0.789483807218765321
0.343000000000000194,0.720082648343863152
0.344000000000000195,0.652706813981968281
0.345000000000000195,0.587300312887452769
0.346000000000000196,0.523808457428774910
0.347000000000000197,0.462177844247282366
0.348000000000000198,0.402356334754273959
0.349000000000000199,0.344293035496093747
0.350000000000000200,0.287938278415051652
0.351000000000000201,0.233243601032293413
0.352000000000000202,0.180161726576943682
0.353000000000000203,0.128646544084259407
0.354000000000000203,0.078653088484000655
0.355000000000000204,0.030137520698952702
0.356000000000000205,-0.016942892227981864
0.357000000000000206,-0.062629796960931558
0.358000000000000207,-0.106963773636192805
0.359000000000000208,-0.149984355550518422
0.360000000000000209,-0.191730048758618821
0.361000000000000210,-0.232238351566786516
0.362000000000000210,-0.271545773910770893
0.363000000000000211,-0.309687856606516765
0.364000000000000212,-0.346699190463554185
0.365000000000000213,-0.382613435251292877
0.366000000000000214,-0.417463338509368120
0.367000000000000215,-0.451280754193764011
0.368000000000000216,-0.484096661151161123
0.369000000000000217,-0.515941181414413363
0.370000000000000218,-0.546843598312801382
0.371000000000000218,-0.576832374391016423
0.372000000000000219,-0.605935169131565310
0.373000000000000220,-0.634178856475573149
0.374000000000000221,-0.661589542137523190
0.375000000000000222,-0.688192580709682256
0.376000000000000223,-0.714012592552772274
0.377000000000000224,-0.739073480469315092
0.378000000000000225,-0.763398446156810295
0.379000000000000226,-0.787010006438002896
0.380000000000000226,-0.809930009266063622
0.381000000000000227,-0.832179649502447716
0.382000000000000228,-0.853779484465851390
0.383000000000000229,-0.874749449250717626
0.384000000000000230,-0.895108871813999785
0.385000000000000231,-0.914876487829351048
0.386000000000000232,-0.934070455307799086
0.387000000000000233,-0.952708368984513165
0.388000000000000234,-0.970807274471196635
0.389000000000000234,-0.988383682174053368
0.390000000000000235,-1.005453580977313965
0.391000000000000236,-1.022032451692556076
0.392000000000000237,-1.038135280274174566
0.393000000000000238,-1.053776570801583379
0.394000000000000239,-1.068970358228767514
0.395000000000000240,-1.083730220902083818
0.396000000000000241,-1.098069292847225320
0.397000000000000242,-1.112000275826446671
0.398000000000000242,-1.125535451167295475
0.399000000000000243,-1.138686691364115600
0.400000000000000244,-1.151465471453797740
0.401000000000000245,-1.163882880167355971
0.402000000000000246,-1.175949630858810213
0.403000000000000247,-1.187676072213305734
0.404000000000000248,-1.199072198736112593
0.405000000000000249,-1.210147661024512988
0.406000000000000250,-1.220911775824438550
0.407000000000000250,-1.231373535874011882
0.408000000000000251,-1.241541619536011609
0.409000000000000252,-1.251424400221487598
0.410000000000000253,-1.261029955606729480
0.411000000000000254,-1.270366076645889297
0.412000000000000255,-1.279440276381570651
0.413000000000000256,-1.288259798555832836
0.414000000000000257,-1.296831626023921435
0.415000000000000258,-1.305162488973361068
0.416000000000000258,-1.313258872950718636
0.417000000000000259,-1.321127026698767581
0.418000000000000260,-1.328772969806470527
0.419000000000000261,-1.336202500174480834
0.420000000000000262,-1.343421201298716117
0.421000000000000263,-1.350434449374704249
0.422000000000000264,-1.357247420225308643
0.423000000000000265,-1.363865096054519777
0.424000000000000266,-1.370292272030094738
0.425000000000000266,-1.376533562697566992
0.426000000000000267,-1.382593408228532939
0.427000000000000268,-1.388476080505795407
0.428000000000000269,-1.394185689048125898
0.429000000000000270,-1.399726186777420223
0.430000000000000271,-1.405101375630862126
0.431000000000000272,-1.410314912020933731
0.432000000000000273,-1.415370312145902476
0.433000000000000274,-1.420270957153538793
0.434000000000000274,-1.425020098160750148
0.435000000000000275,-1.429620861131842613
0.436000000000000276,-1.434076251618071174
0.437000000000000277,-1.438389159361165737
0.438000000000000278,-1.442562362763482264
0.439000000000000279,-1.446598533227429595
0.440000000000000280,-1.450500239366782518
0.441000000000000281,-1.454269951092479918
0.442000000000000282,-1.457910043575563197
0.443000000000000282,-1.461422801089688361
0.444000000000000283,-1.464810420735923158
0.445000000000000284,-1.468075016052218018
0.446000000000000285,-1.471218620510085007
0.447000000000000286,-1.474243190901047607
0.448000000000000287,-1.477150610615156623
0.449000000000000288,-1.479942692814157912
0.450000000000000289,-1.482621183501570572
0.451000000000000290,-1.485187764492131635
0.452000000000000290,-1.487644056282957150
0.453000000000000291,-1.489991620828641450
0.454000000000000292,-1.492231964222695328
0.455000000000000293,-1.494366539287489193
0.456000000000000294,-1.496396748074962924
0.457000000000000295,-1.498323944280323783
0.458000000000000296,-1.500149435570812928
0.459000000000000297,-1.501874485831766304
0.460000000000000298,-1.503500317332000957
0.461000000000000298,-1.505028112810634422
0.462000000000000299,-1.506459017487369323
0.463000000000000300,-1.507794140998190091
0.464000000000000301,-1.509034559258552788
0.465000000000000302,-1.510181316255908568
0.466000000000000303,-1.511235425773492125
0.467000000000000304,-1.512197873047299357
0.468000000000000305,-1.513069616358011071
0.469000000000000306,-1.513851588559727457
0.470000000000000306,-1.514544698547305446
0.471000000000000307,-1.515149832663955642
0.472000000000000308,-1.515667856050901374
0.473000000000000309,-1.516099613940736335
0.474000000000000310,-1.516445932896111959
0.475000000000000311,-1.516707621995394550
0.476000000000000312,-1.516885473966862907
0.477000000000000313,-1.516980266273005418
0.478000000000000314,-1.516992762146385676
0.479000000000000314,-1.516923711578648248
0.480000000000000315,-1.516773852264027500
0.481000000000000316,-1.516543910498867387
0.482000000000000317,-1.516234602038454282
0.483000000000000318,-1.515846632912620562
0.484000000000000319,-1.515380700201370612
0.485000000000000320,-1.514837492771885064
0.486000000000000321,-1.514217691978145597
0.487000000000000322,-1.513521972324457066
0.488000000000000322,-1.512751002093998709
0.489000000000000323,-1.511905443943734495
0.490000000000000324,-1.510985955466696229
0.491000000000000325,-1.509993189722849349
0.492000000000000326,-1.508927795739622324
0.493000000000000327,-1.507790418983182779
0.494000000000000328,-1.506581701801497086
0.495000000000000329,-1.505302283840215249
0.496000000000000330,-1.503952802432326985
0.497000000000000330,-1.502533892962681916
0.498000000000000331,-1.501046189208117054
0.499000000000000332,-1.499490323654334878
0.500000000000000333,-1.497866927790292735
0.501000000000000334,-1.496176632380975091
0.502000000000000335,-1.494420067719480993
0.503000000000000336,-1.492597863859173035
0.504000000000000337,-1.490710650826743366
0.505000000000000338,-1.488759058816932157
0.506000000000000338,-1.486743718369708311
0.507000000000000339,-1.484665260530611874
0.508000000000000340,-1.482524316994958236
0.509000000000000341,-1.480321520236696831
0.510000000000000342,-1.478057503622460356
0.511000000000000343,-1.475732901511579653
0.512000000000000344,-1.473348349342616714
0.513000000000000345,-1.470904483707079047
0.514000000000000346,-1.468401942410932248
0.515000000000000346,-1.465841364524411272
0.516000000000000347,-1.463223390420759440
0.517000000000000348,-1.460548661804447423
0.518000000000000349,-1.457817821729329610
0.519000000000000350,-1.455031514607334042
0.520000000000000351,-1.452190386208086270
0.521000000000000352,-1.449295083650063987
0.522000000000000353,-1.446346255383611723
0.523000000000000353,-1.443344551166361622
0.524000000000000354,-1.440290622031456635
0.525000000000000355,-1.437185120248990700
0.526000000000000356,-1.434028699281050256
0.527000000000000357,-1.430822013730821185
0.528000000000000358,-1.427565719286011836
0.529000000000000359,-1.424260472657107979
0.530000000000000360,-1.420906931510646620
0.531000000000000361,-1.417505754397982543
0.532000000000000361,-1.414057600679789362
0.533000000000000362,-1.410563130446641722
0.534000000000000363,-1.407023004435956626
0.535000000000000364,-1.403437883945619191
0.536000000000000365,-1.399808430744526433
0.537000000000000366,-1.396135306980363922
0.538000000000000367,-1.392419175084796290
0.539000000000000368,-1.388660697676448397
0.540000000000000369,-1.384860537461748198
0.541000000000000369,-1.381019357134031678
0.542000000000000370,-1.377137819270954466
0.543000000000000371,-1.373216586230572744
0.544000000000000372,-1.369256320046188691
0.545000000000000373,-1.365257682320216048
0.546000000000000374,-1.361221334117194592
0.547000000000000375,-1.357147935856169330
0.548000000000000376,-1.353038147202596297
0.549000000000000377,-1.348892626959909080
0.550000000000000377,-1.344712032960937220
0.551000000000000378,-1.340497021959264234
0.552000000000000379,-1.336248249520741282
0.553000000000000380,-1.331966369915221104
0.554000000000000381,-1.327652036008640790
0.555000000000000382,-1.323305899155654108
0.556000000000000383,-1.318928609092781423
0.557000000000000384,-1.314520813832346979
0.558000000000000385,-1.310083159557152044
0.559000000000000385,-1.305616290516097955
0.560000000000000386,-1.301120848920782391
0.561000000000000387,-1.296597474843177222
0.562000000000000388,-1.292046806114436786
0.563000000000000389,-1.287469478224991803
0.564000000000000390,-1.282866124225883198
0.565000000000000391,-1.278237374631503442
0.566000000000000392,-1.273583857323740576
0.567000000000000393,-1.268906197457636775
0.568000000000000393,-1.264205017368544848
0.569000000000000394,-1.259480936480902979
0.570000000000000395,-1.254734571218637296
0.571000000000000396,-1.249966534917213101
0.572000000000000397,-1.245177437737446713
0.573000000000000398,-1.240367886581011936
0.574000000000000399,-1.235538485007773080
0.575000000000000400,-1.230689833154891222
0.576000000000000401,-1.225822527657766114
0.577000000000000401,-1.220937161572879459
0.578000000000000402,-1.216034324302458947
0.579000000000000403,-1.211114601521053658
0.580000000000000404,-1.206178575104054351
0.581000000000000405,-1.201226823058073823
0.582000000000000406,-1.196259919453325438
0.583000000000000407,-1.191278434357885718
0.584000000000000408,-1.186282933773941561
0.585000000000000409,-1.181273979575975019
0.586000000000000409,-1.176252129450889417
0.587000000000000410,-1.171217936840118767
0.588000000000000411,-1.166171950883643005
0.589000000000000412,-1.161114716366012933
0.590000000000000413,-1.156046773664253235
0.591000000000000414,-1.150968658697739899
0.592000000000000415,-1.145880902880016761
0.593000000000000416,-1.140784033072496317
0.594000000000000417,-1.135678571540079229
0.595000000000000417,-1.130565035908723370
0.596000000000000418,-1.125443939124801229
0.597000000000000419,-1.120315789416429730
0.598000000000000420,-1.115181090256576191
0.599000000000000421,-1.110040340328055652
0.600000000000000422,-1.104894033490328997
0.601000000000000423,-1.099742658748100954
0.602000000000000424,-1.094586700221725994
0.603000000000000425,-1.089426637119370156
0.604000000000000425,-1.084262943710911031
0.605000000000000426,-1.079096089303569928
0.606000000000000427,-1.073926538219287963
0.607000000000000428,-1.068754749773681789
0.608000000000000429,-1.063581178256814974
0.609000000000000430,-1.058406272915436874
0.610000000000000431,-1.053230477936983878
0.611000000000000432,-1.048054232435079225
0.612000000000000433,-1.042877970436623558
0.613000000000000433,-1.037702120870441336
