# Montmorillonite-001-NaCEC143_CS-66579-AC
# h[nm],U(h)[kJ/mol]
0.149999999999999994,119.077448562152795830
0.150999999999999995,117.985542637621435347
0.151999999999999996,116.785591730116635745
0.152999999999999997,115.556601527895239201
0.153999999999999998,114.338027450602254476
0.154999999999999999,113.144677053214223861
0.156000000000000000,111.977534814547169617
0.157000000000000001,110.831091663026157335
0.158000000000000002,109.697928306680339006
0.159000000000000002,108.571284657500470416
0.160000000000000003,107.446246235557808291
0.161000000000000004,106.320048879734258662
0.162000000000000005,105.191875540470775263
0.163000000000000006,104.062407671887697802
0.164000000000000007,102.933303861461325823
0.165000000000000008,101.806709903588426869
0.166000000000000009,100.684855145376602081
0.167000000000000010,99.569756258774219759
0.168000000000000010,98.463028156224865484
0.169000000000000011,97.365789413455388512
0.170000000000000012,96.278643633761546994
0.171000000000000013,95.201716560551204793
0.172000000000000014,94.134729799112776050
0.173000000000000015,93.077094559570284105
0.174000000000000016,92.028012051500667212
0.175000000000000017,90.986570496222725524
0.176000000000000018,89.951831835049574693
0.177000000000000018,88.922903913284230271
0.178000000000000019,87.898996129397332311
0.179000000000000020,86.879458246277948774
0.180000000000000021,85.863803300136638086
0.181000000000000022,84.851716370303719827
0.182000000000000023,83.843051458272114473
0.183000000000000024,82.837818936955983418
0.184000000000000025,81.836166037288123221
0.185000000000000026,80.838352697659928481
0.186000000000000026,79.844724862211933214
0.187000000000000027,78.855687017350049928
0.188000000000000028,77.871675434087109124
0.189000000000000029,76.893133260974309451
0.190000000000000030,75.920488305726081535
0.191000000000000031,74.954134064652521374
0.192000000000000032,73.994414314571244518
0.193000000000000033,73.041611375219190450
0.194000000000000034,72.095937981846020648
0.195000000000000034,71.157532576193318619
0.196000000000000035,70.226457726661038805
0.197000000000000036,69.302701321524054379
0.198000000000000037,68.386180138537099538
0.199000000000000038,67.476745375985174746
0.200000000000000039,66.574189730117325325
0.201000000000000040,65.678255618100692459
0.202000000000000041,64.788644170655359744
0.203000000000000042,63.905024651278289127
0.204000000000000042,63.027043996756830779
0.205000000000000043,62.154336214252637660
0.206000000000000044,61.286531411750175380
0.207000000000000045,60.423264279627247220
0.208000000000000046,59.564181880378939127
0.209000000000000047,58.708950640260944454
0.210000000000000048,57.857262470229102291
0.211000000000000049,57.008839973670845325
0.212000000000000050,56.163440724855149710
0.213000000000000050,55.320860624738713796
0.214000000000000051,54.480936359816475090
0.215000000000000052,53.643547005263357619
0.216000000000000053,52.808614825899077516
0.217000000000000054,51.976105337784971994
0.218000000000000055,51.146026699827885409
0.219000000000000056,50.318428508923936704
0.220000000000000057,49.493400074232724251
0.221000000000000058,48.671068246435950755
0.222000000000000058,47.851594876584627514
0.223000000000000059,47.035173976655840988
0.224000000000000060,46.222028650464302757
0.225000000000000061,45.412407859340667926
0.226000000000000062,44.606583082194539713
0.227000000000000063,43.804844924409380269
0.228000000000000064,43.007499724622533677
0.229000000000000065,42.214866202960259045
0.230000000000000066,41.427272188838593081
0.231000000000000066,40.645051461097082779
0.232000000000000067,39.868540728081242719
0.233000000000000068,39.098076770387272916
0.234000000000000069,38.333993764375840385
0.235000000000000070,37.576620800281332890
0.236000000000000071,36.826279604810117974
0.237000000000000072,36.083282474546564345
0.238000000000000073,35.347930423273950851
0.239000000000000073,34.620511543465276816
0.240000000000000074,33.901299579694793351
0.241000000000000075,33.190552709558311051
0.242000000000000076,32.488512525845607115
0.243000000000000077,31.795403212167617113
0.244000000000000078,31.111430902982714741
0.245000000000000079,30.436783217967121828
0.246000000000000080,29.771628959915329204
0.247000000000000081,29.116117964811188301
0.248000000000000081,28.470381092360405262
0.249000000000000082,27.834530345096993642
0.250000000000000111,27.208659104149994334
0.251000000000000112,26.592842469861732724
0.252000000000000113,25.987137695667918535
0.253000000000000114,25.391584703964888092
0.254000000000000115,24.806206673083053715
0.255000000000000115,24.231010684945633926
0.256000000000000116,23.665988423502060556
0.257000000000000117,23.111116914575582371
0.258000000000000118,22.566359298342849371
0.259000000000000119,22.031665626259606228
0.260000000000000120,21.506973674852819300
0.261000000000000121,20.992209769408297859
0.262000000000000122,20.487289611186724869
0.263000000000000123,19.992119102395292884
0.264000000000000123,19.506595163722039388
0.265000000000000124,19.030606539800253074
0.266000000000000125,18.564034588510565982
0.267000000000000126,18.106754050543003132
0.268000000000000127,17.658633796129834082
0.269000000000000128,17.219537546322243315
0.270000000000000129,16.789324566616336654
0.271000000000000130,16.367850331137688613
0.272000000000000131,15.954967155969091763
0.273000000000000131,15.550524800551205118
0.274000000000000132,15.154371036403679440
0.275000000000000133,14.766352182703233353
0.276000000000000134,14.386313608517147244
0.277000000000000135,14.014100201727345052
0.278000000000000136,13.649556804890318418
0.279000000000000137,13.292528618465638601
0.280000000000000138,12.942861572010352589
0.281000000000000139,12.600402664079098258
0.282000000000000139,12.265000271693299538
0.283000000000000140,11.936504430346742467
0.284000000000000141,11.614767085602046848
0.285000000000000142,11.299642317403078451
0.286000000000000143,10.990986538284627017
0.287000000000000144,10.688658666703179989
0.288000000000000145,10.392520276742304830
0.289000000000000146,10.102435725465955585
0.290000000000000147,9.818272259200947261
0.291000000000000147,9.539900100030383356
0.292000000000000148,9.267192513771151496
0.293000000000000149,9.000025860693668278
0.294000000000000150,8.738279630220382899
0.295000000000000151,8.481836460812605338
0.296000000000000152,8.230582146223911266
0.297000000000000153,7.984405629262875337
0.298000000000000154,7.743198984169174182
0.299000000000000155,7.506857388665959085
0.300000000000000155,7.275279086707845622
0.301000000000000156,7.048365342899049146
0.302000000000000157,6.826020389509852571
0.303000000000000158,6.608151366972997209
0.304000000000000159,6.394668258694176544
0.305000000000000160,6.185483820963724177
0.306000000000000161,5.980513508709512038
0.307000000000000162,5.779675397784634683
0.308000000000000163,5.582890104437817413
0.309000000000000163,5.390080702569683524
0.310000000000000164,5.201172639334223469
0.311000000000000165,5.016093649602612281
0.312000000000000166,4.834773669765199955
0.313000000000000167,4.657144751308068820
0.314000000000000168,4.483140974562398462
0.315000000000000169,4.312698362988406586
0.316000000000000170,4.145754798320613332
0.317000000000000171,3.982249936868275775
0.318000000000000171,3.822125127232980368
0.319000000000000172,3.665323329675666653
0.320000000000000173,3.511789037337100350
0.321000000000000174,3.361468199489339614
0.322000000000000175,3.214308146970609847
0.323000000000000176,3.070257519932899193
0.324000000000000177,2.929266198009540467
0.325000000000000178,2.791285232990066589
0.326000000000000179,2.656266784070431264
0.327000000000000179,2.524164055729703815
0.328000000000000180,2.394931238268020568
0.329000000000000181,2.268523451025950433
0.330000000000000182,2.144896688292103004
0.331000000000000183,2.024007767893241549
0.332000000000000184,1.905814282450419395
0.333000000000000185,1.790274553274359137
0.334000000000000186,1.677347586864408768
0.335000000000000187,1.566993033967364113
0.336000000000000187,1.459171151145260747
0.337000000000000188,1.353842764795274656
0.338000000000000189,1.250969237559004466
0.339000000000000190,1.150512437054051817
0.340000000000000191,1.052434706856816060
0.341000000000000192,0.956698839661983436
0.342000000000000193,0.863268052541573461
0.343000000000000194,0.772105964224204966
0.344000000000000195,0.683176574313872464
0.345000000000000195,0.596444244365932574
0.346000000000000196,0.511873680737845227
0.347000000000000197,0.429429919131499638
0.348000000000000198,0.349078310744290743
0.349000000000000199,0.270784509946406626
0.350000000000000200,0.194514463402533450
0.351000000000000201,0.120234400557153884
0.352000000000000202,0.047910825403892777
0.353000000000000203,-0.022489490539317369
0.354000000000000203,-0.090999514125780306
0.355000000000000204,-0.157651955420955309
0.356000000000000205,-0.222479271561654812
0.357000000000000206,-0.285513669704352768
0.358000000000000207,-0.346787109131047100
0.359000000000000208,-0.406331302579222342
0.360000000000000209,-0.464177716859980827
0.361000000000000210,-0.520357572825981274
0.362000000000000210,-0.574901844748650914
0.363000000000000211,-0.627841259161497356
0.364000000000000212,-0.679206293224071445
0.365000000000000213,-0.729027172658618050
0.366000000000000214,-0.777333869309052017
0.367000000000000215,-0.824156098369448364
0.368000000000000216,-0.869523315326946267
0.369000000000000217,-0.913464712661448131
0.370000000000000218,-0.956009216342378010
0.371000000000000218,-0.997185482160202641
0.372000000000000219,-1.037021891928526784
0.373000000000000220,-1.075546549590120193
0.374000000000000221,-1.112787277258252772
0.375000000000000222,-1.148771611222466404
0.376000000000000223,-1.183526797946282683
0.377000000000000224,-1.217079790081912805
0.378000000000000225,-1.249457242525530587
0.379000000000000226,-1.280685508534632477
0.380000000000000226,-1.310790635927467473
0.381000000000000227,-1.339798363382550761
0.382000000000000228,-1.367734116854975701
0.383000000000000229,-1.394623006124451337
0.384000000000000230,-1.420489821488607252
0.385000000000000231,-1.445359030613764473
0.386000000000000232,-1.469254775553836989
0.387000000000000233,-1.492200869946982866
0.388000000000000234,-1.514220796398157098
0.389000000000000234,-1.535337704054806407
0.390000000000000235,-1.555574406381664110
0.391000000000000236,-1.574953379139686138
0.392000000000000237,-1.593496758573114791
0.393000000000000238,-1.611226339807868557
0.394000000000000239,-1.628163575463382085
0.395000000000000240,-1.644329574479484801
0.396000000000000241,-1.659745101158929925
0.397000000000000242,-1.674430574425577634
0.398000000000000242,-1.688406067297630653
0.399000000000000243,-1.701691306574578233
0.400000000000000244,-1.714305672736101682
0.401000000000000245,-1.726268200050587565
0.402000000000000246,-1.737597576890377082
0.403000000000000247,-1.748312146250605492
0.404000000000000248,-1.758429906467914750
0.405000000000000249,-1.767968512135093206
0.406000000000000250,-1.776945275207253871
0.407000000000000250,-1.785377166295025742
0.408000000000000251,-1.793280816139807943
0.409000000000000252,-1.800672517266033168
0.410000000000000253,-1.807568225805131545
0.411000000000000254,-1.813983563485718431
0.412000000000000255,-1.819933819784351980
0.413000000000000256,-1.825433954231215905
0.414000000000000257,-1.830498598864739535
0.415000000000000258,-1.835142060829375810
0.416000000000000258,-1.839378325110434087
0.417000000000000259,-1.843221057400034724
0.418000000000000260,-1.846683607088054568
0.419000000000000261,-1.849779010372115451
0.420000000000000262,-1.852519993480424843
0.421000000000000263,-1.854918976001616926
0.422000000000000264,-1.856988074315438553
0.423000000000000265,-1.858739105118446533
0.424000000000000266,-1.860183589038834073
0.425000000000000266,-1.861332754334477979
0.426000000000000267,-1.862197540668596663
0.427000000000000268,-1.862788602957280215
0.428000000000000269,-1.863116315283357638
0.429000000000000270,-1.863190774871210653
0.430000000000000271,-1.863021806117059809
0.431000000000000272,-1.862618964669645383
0.432000000000000273,-1.861991541556049068
0.433000000000000274,-1.861148567347776339
0.434000000000000274,-1.860098816362145913
0.435000000000000275,-1.858850810894303152
0.436000000000000276,-1.857412825475248663
0.437000000000000277,-1.855792891151375468
0.438000000000000278,-1.853998799781212625
0.439000000000000279,-1.852038108345181344
0.440000000000000280,-1.849918143264276393
0.441000000000000281,-1.847646004723747071
0.442000000000000282,-1.845228570998078910
0.443000000000000282,-1.842672502773473386
0.444000000000000283,-1.839984247464508060
0.445000000000000284,-1.837170043521461071
0.446000000000000285,-1.834235924725113875
0.447000000000000286,-1.831187724466012412
0.448000000000000287,-1.828031080005081632
0.449000000000000288,-1.824771436712922634
0.450000000000000289,-1.821414052284954010
0.451000000000000290,-1.817964000929920942
0.452000000000000290,-1.814426177529327777
0.453000000000000291,-1.810805301765404440
0.454000000000000292,-1.807105922215509253
0.455000000000000293,-1.803332420410822534
0.456000000000000294,-1.799489014857400537
0.457000000000000295,-1.795579765017790930
0.458000000000000296,-1.791608575251381508
0.459000000000000297,-1.787579198711978012
0.460000000000000298,-1.783495241201008552
0.461000000000000298,-1.779360164975016589
0.462000000000000299,-1.775177292506100901
0.463000000000000300,-1.770949810194068830
0.464000000000000301,-1.766680772029270985
0.465000000000000302,-1.762373103205039371
0.466000000000000303,-1.758029603678780806
0.467000000000000304,-1.753652951680977123
0.468000000000000305,-1.749245707171228847
0.469000000000000306,-1.744810315240716392
0.470000000000000306,-1.740349109460535448
0.471000000000000307,-1.735864315175250638
0.472000000000000308,-1.731358052741349907
0.473000000000000309,-1.726832340710169778
0.474000000000000310,-1.722289098954959297
0.475000000000000311,-1.717730151741871270
0.476000000000000312,-1.713157230744699389
0.477000000000000313,-1.708571978003218250
0.478000000000000314,-1.703975948825045661
0.479000000000000314,-1.699370614631087850
0.480000000000000315,-1.694757365744497424
0.481000000000000316,-1.690137514123356777
0.482000000000000317,-1.685512296037114499
0.483000000000000318,-1.680882874687035455
0.484000000000000319,-1.676250342770853052
0.485000000000000320,-1.671615724991905028
0.486000000000000321,-1.666979980513045634
0.487000000000000322,-1.662344005355712140
0.488000000000000322,-1.657708634744430087
0.489000000000000323,-1.653074645397315523
0.490000000000000324,-1.648442757762872635
0.491000000000000325,-1.643813638203629024
0.492000000000000326,-1.639187901127082458
0.493000000000000327,-1.634566111064504668
0.494000000000000328,-1.629948784698100228
0.495000000000000329,-1.625336392837147814
0.496000000000000330,-1.620729362343630076
0.497000000000000330,-1.616128078008086888
0.498000000000000331,-1.611532884376118302
0.499000000000000332,-1.606944087526403164
0.500000000000000333,-1.602361956800735232
0.501000000000000334,-1.597786726486742470
0.502000000000000335,-1.593218597454084229
0.503000000000000336,-1.588657738744689407
0.504000000000000337,-1.584104289117822084
0.505000000000000338,-1.579558358550621433
0.506000000000000338,-1.575020029694887302
0.507000000000000339,-1.570489359290784703
0.508000000000000340,-1.565966379538203501
0.509000000000000341,-1.561451099426568234
0.510000000000000342,-1.556943506023711787
0.511000000000000343,-1.552443565724680008
0.512000000000000344,-1.547951225461096758
0.513000000000000345,-1.543466413871902976
0.514000000000000346,-1.538989042436201604
0.515000000000000346,-1.534519006568903610
0.516000000000000347,-1.530056186679943586
0.517000000000000348,-1.525600449197842767
0.518000000000000349,-1.521151647558260267
0.519000000000000350,-1.516709623158366771
0.520000000000000351,-1.512274206277667288
0.521000000000000352,-1.507845216966119395
0.522000000000000353,-1.503422465900132732
0.523000000000000353,-1.499005755207258872
0.524000000000000354,-1.494594879260261688
0.525000000000000355,-1.490189625441248111
0.526000000000000356,-1.485789774876558500
0.527000000000000357,-1.481395103143157144
0.528000000000000358,-1.477005380947114421
0.529000000000000359,-1.472620374774988417
0.530000000000000360,-1.468239847518610919
0.531000000000000361,-1.463863559074098486
0.532000000000000361,-1.459491266915633689
0.533000000000000362,-1.455122726644721753
0.534000000000000363,-1.450757692515508790
0.535000000000000364,-1.446395917936857289
0.536000000000000365,-1.442037155951721994
0.537000000000000366,-1.437681159694512489
0.538000000000000367,-1.433327682826956995
0.539000000000000368,-1.428976479953172785
0.540000000000000369,-1.424627307014401101
0.541000000000000369,-1.420279921664105105
0.542000000000000370,-1.415934083623871187
0.543000000000000371,-1.411589555020774878
0.544000000000000372,-1.407246100706695202
0.545000000000000373,-1.402903488560147682
0.546000000000000374,-1.398561489771116939
0.547000000000000375,-1.394219879109458216
0.548000000000000376,-1.389878435177351879
0.549000000000000377,-1.385536940646294513
0.550000000000000377,-1.381195182479146411
0.551000000000000378,-1.376852952137669339
0.552000000000000379,-1.372510045776084597
0.553000000000000380,-1.368166264421055267
0.554000000000000381,-1.363821414138546517
0.555000000000000382,-1.359475306188077992
0.556000000000000383,-1.355127757164668489
0.557000000000000384,-1.350778589129039586
0.558000000000000385,-1.346427629726364428
0.559000000000000385,-1.342074712294053285
0.560000000000000386,-1.337719675958933596
0.561000000000000387,-1.333362365724208187
0.562000000000000388,-1.329002632546556040
0.563000000000000389,-1.324640333403812154
0.564000000000000390,-1.320275331353480741
0.565000000000000391,-1.315907495582514297
0.566000000000000392,-1.311536701448658748
0.567000000000000393,-1.307162830513733720
0.568000000000000393,-1.302785770569118151
0.569000000000000394,-1.298405415653808959
0.570000000000000395,-1.294021666065350518
0.571000000000000396,-1.289634428363893859
0.572000000000000397,-1.285243615369768388
0.573000000000000398,-1.280849146154733997
0.574000000000000399,-1.276450946027306355
0.575000000000000400,-1.272048946512333023
0.576000000000000401,-1.267643085325127705
0.577000000000000401,-1.263233306340452611
0.578000000000000402,-1.258819559556499934
0.579000000000000403,-1.254401801054195742
0.580000000000000404,-1.249979992952059860
0.581000000000000405,-1.245554103356771192
0.582000000000000406,-1.241124106309775765
0.583000000000000407,-1.236689981730033638
0.584000000000000408,-1.232251715353204879
0.585000000000000409,-1.227809298667434046
0.586000000000000409,-1.223362728845914793
0.587000000000000410,-1.218912008676482417
0.588000000000000411,-1.214457146488328032
0.589000000000000412,-1.209998156076134812
0.590000000000000413,-1.205535056621664936
0.591000000000000414,-1.201067872613078569
0.592000000000000415,-1.196596633762114781
0.593000000000000416,-1.192121374919242971
0.594000000000000417,-1.187642135986984204
0.595000000000000417,-1.183158961831589640
0.596000000000000418,-1.178671902193059839
0.597000000000000419,-1.174181011593859125
0.598000000000000420,-1.169686349246250812
0.599000000000000421,-1.165187978958524884
0.600000000000000422,-1.160685969040168963
0.601000000000000423,-1.156180392206103580
0.602000000000000424,-1.151671325480136954
0.603000000000000425,-1.147158850097703020
0.604000000000000425,-1.142643051407993271
0.605000000000000426,-1.138124018775610535
0.606000000000000427,-1.133601845481850612
0.607000000000000428,-1.129076628625581558
0.608000000000000429,-1.124548469024068353
0.609000000000000430,-1.120017471113487373
0.610000000000000431,-1.115483742849548099
0.611000000000000432,-1.110947395608056443
0.612000000000000433,-1.106408544085602186
0.613000000000000433,-1.101867306200454477
