# Montmorillonite-001-NaCEC143_CS-13835861-AC
# h[nm],U(h)[kJ/mol]
0.149999999999999994,165.520704856154168283
0.150999999999999995,164.342379069196255159
0.151999999999999996,162.600519151900869019
0.152999999999999997,160.736023872847056282
0.153999999999999998,158.917454679563491027
0.154999999999999999,157.181420615444039868
0.156000000000000000,155.510117731337373925
0.157000000000000001,153.871234921997967149
0.158000000000000002,152.236153619018466543
0.159000000000000002,150.586281675283345294
0.160000000000000003,148.913427301447967466
0.161000000000000004,147.217619937058572077
0.162000000000000005,145.504232461452204461
0.163000000000000006,143.781322275771231034
0.164000000000000007,142.057565606566271299
0.165000000000000008,140.340862653179442532
0.166000000000000009,138.637544481320048817
0.167000000000000010,136.952053677718055269
0.168000000000000010,135.286960438601965961
0.169000000000000011,133.643189788546891350
0.170000000000000012,132.020359662508610654
0.171000000000000013,130.417155553045006400
0.172000000000000014,128.831691158272349185
0.173000000000000015,127.261824155314940299
0.174000000000000016,125.705411418680384372
0.175000000000000017,124.160498978611073539
0.176000000000000018,122.625449383662456171
0.177000000000000018,121.099013615123638488
0.178000000000000019,119.580357000010351953
0.179000000000000020,118.069049303541504514
0.180000000000000021,116.565028863761966704
0.181000000000000022,115.068549663404311900
0.182000000000000023,113.580118920224961698
0.183000000000000024,112.100431334284621698
0.184000000000000025,110.630304706693735284
0.185000000000000026,109.170620332527988694
0.186000000000000026,107.722270423355638513
0.187000000000000027,106.286113855014448859
0.188000000000000028,104.862940766459132647
0.189000000000000029,103.453445944996616390
0.190000000000000030,102.058210503519177337
0.191000000000000031,100.677691064027811763
0.192000000000000032,99.312215485245303626
0.193000000000000033,97.961984087576894353
0.194000000000000034,96.627075315039405723
0.195000000000000034,95.307454812455972615
0.196000000000000035,94.002986971332688881
0.197000000000000036,92.713448096262709441
0.198000000000000037,91.438540454892404341
0.199000000000000038,90.177906590237370210
0.200000000000000039,88.931143388305457620
0.201000000000000040,87.697815502170726631
0.202000000000000041,86.477467832900231315
0.203000000000000042,85.269636856275965897
0.204000000000000042,84.073860661219626422
0.205000000000000043,82.889687631042448857
0.206000000000000044,81.716683752454997602
0.207000000000000045,80.554438580383546764
0.208000000000000046,79.402569919979725910
0.209000000000000047,78.260727311849379362
0.210000000000000048,77.128594423580565831
0.211000000000000049,76.005890461244575818
0.212000000000000050,74.892370719746509167
0.213000000000000050,73.787826391727165287
0.214000000000000051,72.692083752069976299
0.215000000000000052,71.605002829770555195
0.216000000000000053,70.526475671688814373
0.217000000000000054,69.456424294138429332
0.218000000000000055,68.394798408889613484
0.219000000000000056,67.341573000394376436
0.220000000000000057,66.296745821224291717
0.221000000000000058,65.260334863119808801
0.222000000000000058,64.232375851875303852
0.223000000000000059,63.212919805688422059
0.224000000000000060,62.202030688677780290
0.225000000000000061,61.199783184083990761
0.226000000000000062,60.206260605246598061
0.227000000000000063,59.221552956794255351
0.228000000000000064,58.245755153584767072
0.229000000000000065,57.278965400748369063
0.230000000000000066,56.321283734685991362
0.231000000000000066,55.372810721995577410
0.232000000000000067,54.433646310996344653
0.233000000000000068,53.503888828729735394
0.234000000000000069,52.583634114982281460
0.235000000000000070,51.672974783941491239
0.236000000000000071,50.771999603507495635
0.237000000000000072,49.880792981987525536
0.238000000000000073,48.999434551850740149
0.239000000000000073,48.127998840375070699
0.240000000000000074,47.266555017329665134
0.241000000000000075,46.415166710280402640
0.242000000000000076,45.573891878640381492
0.243000000000000077,44.742782738191635872
0.244000000000000078,43.921885728452608078
0.245000000000000079,43.111241515936541191
0.246000000000000080,42.310885027025946670
0.247000000000000081,41.520845504858556296
0.248000000000000081,40.741146585274620406
0.249000000000000082,39.971806387502070379
0.250000000000000111,39.212837615848393114
0.251000000000000112,38.464247669223304626
0.252000000000000113,37.726038755827836724
0.253000000000000114,36.998208010815744728
0.254000000000000115,36.280747615156101915
0.255000000000000115,35.573644914306825626
0.256000000000000116,34.876882535644895711
0.257000000000000117,34.190438503893332722
0.258000000000000118,33.514286354040038418
0.259000000000000119,32.848395241460181637
0.260000000000000120,32.192730049135178660
0.261000000000000121,31.547251492011735508
0.262000000000000122,30.911916218663456846
0.263000000000000123,30.286676910511623362
0.264000000000000123,29.671482378930726043
0.265000000000000124,29.066277660613195621
0.266000000000000125,28.471004111597316921
0.267000000000000126,27.885599500376891058
0.268000000000000127,27.309998100510632923
0.269000000000000128,26.744130783139333118
0.270000000000000129,26.187925109797788537
0.271000000000000130,25.641305425880176472
0.272000000000000131,25.104192955084421612
0.273000000000000131,24.576505895122103595
0.274000000000000132,24.058159514939582380
0.275000000000000133,23.549066253652437553
0.276000000000000134,23.049135821351274700
0.277000000000000135,22.558275301893448983
0.278000000000000136,22.076389257751213080
0.279000000000000137,21.603379836945290293
0.280000000000000138,21.139146882053573506
0.281000000000000139,20.683588041245872802
0.282000000000000139,20.236598881262004568
0.283000000000000140,19.798073002217872585
0.284000000000000141,19.367902154095329337
0.285000000000000142,18.945976354746399295
0.286000000000000143,18.532184009219239584
0.287000000000000144,18.126412030194835268
0.288000000000000145,17.728545959306213575
0.289000000000000146,17.338470089100400884
0.290000000000000147,16.956067585391792818
0.291000000000000147,16.581220609749717454
0.292000000000000148,16.213810441857418709
0.293000000000000149,15.853717601478598098
0.294000000000000150,15.500821969767272890
0.295000000000000151,15.155002909659714305
0.296000000000000152,14.816139385091252834
0.297000000000000153,14.484110078787466591
0.298000000000000154,14.158793508386537496
0.299000000000000155,13.840068140659189666
0.300000000000000155,13.527812503602746119
0.301000000000000156,13.221905296197627777
0.302000000000000157,12.922225495626458169
0.303000000000000158,12.628652461769522830
0.304000000000000159,12.341066038803496951
0.305000000000000160,12.059346653744704270
0.306000000000000161,11.783375411792235354
0.307000000000000162,11.513034188340888875
0.308000000000000163,11.248205717548398042
0.309000000000000163,10.988773677355917258
0.310000000000000164,10.734622770875043685
0.311000000000000165,10.485638804068898366
0.312000000000000166,10.241708759668474826
0.313000000000000167,10.002720867279087713
0.314000000000000168,9.768564669644817400
0.315000000000000169,9.539131085051320014
0.316000000000000170,9.314312465859554635
0.317000000000000171,9.094002653174559470
0.318000000000000171,8.878097027664384910
0.319000000000000172,8.666492556554540982
0.320000000000000173,8.459087836833285579
0.321000000000000174,8.255783134712215698
0.322000000000000175,8.056480421395001201
0.323000000000000176,7.861083405215270936
0.324000000000000177,7.669497560211691045
0.325000000000000178,7.481630151215246549
0.326000000000000179,7.297390255529412784
0.327000000000000179,7.116688781289839838
0.328000000000000180,6.939438482594624702
0.329000000000000181,6.765553971500859021
0.330000000000000182,6.594951726986797880
0.331000000000000183,6.427550100982173831
0.332000000000000184,6.263269321572029646
0.333000000000000185,6.102031493481667290
0.334000000000000186,5.943760595951991021
0.335000000000000187,5.788382478115960517
0.336000000000000187,5.635824851987632833
0.337000000000000188,5.486017283176188641
0.338000000000000189,5.338891179436880741
0.339000000000000190,5.194379777171135970
0.340000000000000191,5.052418125987355957
0.341000000000000192,4.912943071433144127
0.342000000000000193,4.775893236008514009
0.343000000000000194,4.641208998568290056
0.344000000000000195,4.508832472220658971
0.345000000000000195,4.378707480826269816
0.346000000000000196,4.250779534201183374
0.347000000000000197,4.124995802124027833
0.348000000000000198,4.001305087245903280
0.349000000000000199,3.879657796998817965
0.350000000000000200,3.760005914595981658
0.351000000000000201,3.642302969214525454
0.352000000000000202,3.526504005448528822
0.353000000000000203,3.412565552117240664
0.354000000000000203,3.300445590510538096
0.355000000000000204,3.190103522150818272
0.356000000000000205,3.081500136147343305
0.357000000000000206,2.974597576216004846
0.358000000000000207,2.869359307434779627
0.359000000000000208,2.765750082801777587
0.360000000000000209,2.663735909659753709
0.361000000000000210,2.563284016048352321
0.362000000000000210,2.464362817041782172
0.363000000000000211,2.366941881127223812
0.364000000000000212,2.270991896675911281
0.365000000000000213,2.176484638556281048
0.366000000000000214,2.083392934935553775
0.367000000000000215,1.991690634313508124
0.368000000000000216,1.901352572829232868
0.369000000000000217,1.812354541879415804
0.370000000000000218,1.724673256083649520
0.371000000000000218,1.638286321630185283
0.372000000000000219,1.553172205032747888
0.373000000000000220,1.469310202326837400
0.374000000000000221,1.386680408731628678
0.375000000000000222,1.305263688801451494
0.376000000000000223,1.225041647088283892
0.377000000000000224,1.145996599335202593
0.378000000000000225,1.068111544218275144
0.379000000000000226,0.991370135652738349
0.380000000000000226,0.915756655677209652
0.381000000000000227,0.841255987928284044
0.382000000000000228,0.767853591715758066
0.383000000000000229,0.695535476707444200
0.384000000000000230,0.624288178230886559
0.385000000000000231,0.554098733197709192
0.386000000000000232,0.484954656655208871
0.387000000000000233,0.416843918968144322
0.388000000000000234,0.349754923632813297
0.389000000000000234,0.283676485723936611
0.390000000000000235,0.218597810974059559
0.391000000000000236,0.154508475483971897
0.392000000000000237,0.091398406061724183
0.393000000000000238,0.029257861186825763
0.394000000000000239,-0.031922587404497646
0.395000000000000240,-0.092152072518142281
0.396000000000000241,-0.151439448690759676
0.397000000000000242,-0.209793308774680914
0.398000000000000242,-0.267221999926296749
0.399000000000000243,-0.323733639005498897
0.400000000000000244,-0.379336127394576283
0.401000000000000245,-0.434037165245259260
0.402000000000000246,-0.487844265163007607
0.403000000000000247,-0.540764765338399789
0.404000000000000248,-0.592805842135380123
0.405000000000000249,-0.643974522146812167
0.406000000000000250,-0.694277693727853307
0.407000000000000250,-0.743722118018104394
0.408000000000000251,-0.792314439463536080
0.409000000000000252,-0.840061195849489240
0.410000000000000253,-0.886968827856213893
0.411000000000000254,-0.933043688148441297
0.412000000000000255,-0.978292050010665881
0.413000000000000256,-1.022720115539945684
0.414000000000000257,-1.066334023407847775
0.415000000000000258,-1.109139856203560370
0.416000000000000258,-1.151143647369758050
0.417000000000000259,-1.192351387743237456
0.418000000000000260,-1.232769031711910879
0.419000000000000261,-1.272402503000030993
0.420000000000000262,-1.311257700093134915
0.421000000000000263,-1.349340501314457041
0.422000000000000264,-1.386656769564049707
0.423000000000000265,-1.423212356732150630
0.424000000000000266,-1.459013107797981545
0.425000000000000266,-1.494064864624936817
0.426000000000000267,-1.528373469463312428
0.427000000000000268,-1.561944768171205755
0.428000000000000269,-1.594784613164245357
0.429000000000000270,-1.626898866104675490
0.430000000000000271,-1.658293400339915014
0.431000000000000272,-1.688974103100868263
0.432000000000000273,-1.718946877469682111
0.433000000000000274,-1.748217644126800918
0.434000000000000274,-1.776792342886738707
0.435000000000000275,-1.804676934031864022
0.436000000000000276,-1.831877399453313515
0.437000000000000277,-1.858399743607890287
0.438000000000000278,-1.884249994299583175
0.439000000000000279,-1.909434203294236854
0.440000000000000280,-1.933958446775517315
0.441000000000000281,-1.957828825650230087
0.442000000000000282,-1.981051465710860882
0.443000000000000282,-2.003632517662786494
0.444000000000000283,-2.025578157023706805
0.445000000000000284,-2.046894583902316267
0.446000000000000285,-2.067588022663224834
0.447000000000000286,-2.087664721484931984
0.448000000000000287,-2.107130951817234088
0.449000000000000288,-2.125993007744579000
0.450000000000000289,-2.144257205261296484
0.451000000000000290,-2.161929881464764058
0.452000000000000290,-2.179017393672199709
0.453000000000000291,-2.195526118466513132
0.454000000000000292,-2.211462450676661806
0.455000000000000293,-2.226832802297570968
0.456000000000000294,-2.241643601354566862
0.457000000000000295,-2.255901290717158947
0.458000000000000296,-2.269612326866617291
0.459000000000000297,-2.282783178621888620
0.460000000000000298,-2.295420325827972174
0.461000000000000298,-2.307530258010880075
0.462000000000000299,-2.319119473003040888
0.463000000000000300,-2.330194475542844312
0.464000000000000301,-2.340761775851970317
0.465000000000000302,-2.350827888193843584
0.466000000000000303,-2.360399329416472458
0.467000000000000304,-2.369482617482855158
0.468000000000000305,-2.378084269991812771
0.469000000000000306,-2.386210802692128041
0.470000000000000306,-2.393868727992730872
0.471000000000000307,-2.401064553471333518
0.472000000000000308,-2.407804780384089405
0.473000000000000309,-2.414095902178505337
0.474000000000000310,-2.419944403011764500
0.475000000000000311,-2.425356756276559445
0.476000000000000312,-2.430339423136342436
0.477000000000000313,-2.434898851071876980
0.478000000000000314,-2.439041472440699021
0.479000000000000314,-2.442773703051270839
0.480000000000000315,-2.446101940753171444
0.481000000000000316,-2.449032564044896887
0.482000000000000317,-2.451571930700462421
0.483000000000000318,-2.453726376416152544
0.484000000000000319,-2.455502213478491846
0.485000000000000320,-2.456905729454516241
0.486000000000000321,-2.457943185905360206
0.487000000000000322,-2.458620817124036684
0.488000000000000322,-2.458944828898173007
0.489000000000000323,-2.458921397298609257
0.490000000000000324,-2.458556667494406600
0.491000000000000325,-2.457856752594937966
0.492000000000000326,-2.456827732519599294
0.493000000000000327,-2.455475652895687588
0.494000000000000328,-2.453806523984776611
0.495000000000000329,-2.451826319638097829
0.496000000000000330,-2.449540976281090021
0.497000000000000330,-2.446956391927616270
0.498000000000000331,-2.444078425223752404
0.499000000000000332,-2.440912894521679810
0.500000000000000333,-2.437465576983567139
0.501000000000000334,-2.433742207715556383
0.502000000000000335,-2.429748478932040712
0.503000000000000336,-2.425490039150079546
0.504000000000000337,-2.420972492414048993
0.505000000000000338,-2.416201397550364671
0.506000000000000338,-2.411182267452276484
0.507000000000000339,-2.405920568394543047
0.508000000000000340,-2.400421719377827667
0.509000000000000341,-2.394691091502745728
0.510000000000000342,-2.388734007373163770
0.511000000000000343,-2.382555740528720545
0.512000000000000344,-2.376161514906140582
0.513000000000000345,-2.369556504329178193
0.514000000000000346,-2.362745832026891257
0.515000000000000346,-2.355734570179833121
0.516000000000000347,-2.348527739493907252
0.517000000000000348,-2.341130308801579574
0.518000000000000349,-2.333547194689933324
0.519000000000000350,-2.325783261155371928
0.520000000000000351,-2.317843319284385473
0.521000000000000352,-2.309732126960198251
0.522000000000000353,-2.301454388594659228
0.523000000000000353,-2.293014754885103201
0.524000000000000354,-2.284417822595731451
0.525000000000000355,-2.275668134363001194
0.526000000000000356,-2.266770178524628143
0.527000000000000357,-2.257728388971788291
0.528000000000000358,-2.248547145023943816
0.529000000000000359,-2.239230771325996017
0.530000000000000360,-2.229783537767100032
0.531000000000000361,-2.220209659420867343
0.532000000000000361,-2.210513296506344094
0.533000000000000362,-2.200698554369361126
0.534000000000000363,-2.190769483483740565
0.535000000000000364,-2.180730079471934868
0.536000000000000365,-2.170584283144548987
0.537000000000000366,-2.160335980558359736
0.538000000000000367,-2.149989003092230178
0.539000000000000368,-2.139547127540627258
0.540000000000000369,-2.129014076224052143
0.541000000000000369,-2.118393517116143876
0.542000000000000370,-2.107689063986746270
0.543000000000000371,-2.096904276560702662
0.544000000000000372,-2.086042660691747042
0.545000000000000373,-2.075107668551140705
0.546000000000000374,-2.064102698830521110
0.547000000000000375,-2.053031096958564117
0.548000000000000376,-2.041896155331007101
0.549000000000000377,-2.030701113553567971
0.550000000000000377,-2.019449158697363522
0.551000000000000378,-2.008143425566314200
0.552000000000000379,-1.996786996976244399
0.553000000000000380,-1.985382904045118746
0.554000000000000381,-1.973934126494052865
0.555000000000000382,-1.962443592958776239
0.556000000000000383,-1.950914181310935636
0.557000000000000384,-1.939348718989097220
0.558000000000000385,-1.927749983338821860
0.559000000000000385,-1.916120701961588013
0.560000000000000386,-1.904463553072124338
0.561000000000000387,-1.892781165863774762
0.562000000000000388,-1.881076120881501001
0.563000000000000389,-1.869350950402280276
0.564000000000000390,-1.857608138822390176
0.565000000000000391,-1.845850123051335334
0.566000000000000392,-1.834079292912042858
0.567000000000000393,-1.822297991547025875
0.568000000000000393,-1.810508515830109300
0.569000000000000394,-1.798713116783481114
0.570000000000000395,-1.786913999999742986
0.571000000000000396,-1.775113326068567643
0.572000000000000397,-1.763313211007814019
0.573000000000000398,-1.751515726698651410
0.574000000000000399,-1.739722901324526561
0.575000000000000400,-1.727936719813607525
0.576000000000000401,-1.716159124284463600
0.577000000000000401,-1.704392014494785057
0.578000000000000402,-1.692637248292713892
0.579000000000000403,-1.680896642070683900
0.580000000000000404,-1.669171971221498962
0.581000000000000405,-1.657464970596296938
0.582000000000000406,-1.645777334964333649
0.583000000000000407,-1.634110719474189732
0.584000000000000408,-1.622466740116323081
0.585000000000000409,-1.610846974186641134
0.586000000000000409,-1.599252960750923158
0.587000000000000410,-1.587686201109939521
0.588000000000000411,-1.576148159264933346
0.589000000000000412,-1.564640262383452107
0.590000000000000413,-1.553163901265165014
0.591000000000000414,-1.541720430807595132
0.592000000000000415,-1.530311170471590154
0.593000000000000416,-1.518937404746268705
0.594000000000000417,-1.507600383613362682
0.595000000000000417,-1.496301323010830853
0.596000000000000418,-1.485041405295391304
0.597000000000000419,-1.473821779704117763
0.598000000000000420,-1.462643562814664566
0.599000000000000421,-1.451507839004199552
0.600000000000000422,-1.440415660906786410
0.601000000000000423,-1.429368049869105484
0.602000000000000424,-1.418365996404452378
0.603000000000000425,-1.407410460644813455
0.604000000000000425,-1.396502372790930480
0.605000000000000426,-1.385642633560250747
0.606000000000000427,-1.374832114632700497
0.607000000000000428,-1.364071659093994970
0.608000000000000429,-1.353362081876717582
0.609000000000000430,-1.342704170198660396
0.610000000000000431,-1.332098683998726552
0.611000000000000432,-1.321546356370032704
0.612000000000000433,-1.311047893990233026
0.613000000000000433,-1.300603977549023238
