# Montmorillonite-001-NaCEC143_CS-61591-AC
# h[nm],U(h)[kJ/mol]
0.149999999999999994,127.727114326038645231
0.150999999999999995,125.562214736756160960
0.151999999999999996,124.068661817389852331
0.152999999999999997,122.696579593750499271
0.153999999999999998,121.255293507763781236
0.154999999999999999,119.719327158721100091
0.156000000000000000,118.124625735083412792
0.157000000000000001,116.517691558887079850
0.158000000000000002,114.934390306569667928
0.159000000000000002,113.394322544792629515
0.160000000000000003,111.902490627847782889
0.161000000000000004,110.453643314927518304
0.162000000000000005,109.036907334223357680
0.163000000000000006,107.639625801144077855
0.164000000000000007,106.250056721641541913
0.165000000000000008,104.858963484210406136
0.166000000000000009,103.460297474500549697
0.167000000000000010,102.051222383642922864
0.168000000000000010,100.631717278977532715
0.169000000000000011,99.203955199900946127
0.170000000000000012,97.771605490548154194
0.171000000000000013,96.339161695371529959
0.172000000000000014,94.911357461373370370
0.173000000000000015,93.492702095577826071
0.174000000000000016,92.087145021003863121
0.175000000000000017,90.697863292168705129
0.176000000000000018,89.327157179554021127
0.177000000000000018,87.976434200340733582
0.178000000000000019,86.646260588311591277
0.179000000000000020,85.336459994112502159
0.180000000000000021,84.046241344288844743
0.181000000000000022,82.774340626989186376
0.182000000000000023,81.519164456663403939
0.183000000000000024,80.278926289288619955
0.184000000000000025,79.051768918887205473
0.185000000000000026,77.835869277586908765
0.186000000000000026,76.629523540276792914
0.187000000000000027,75.431212099374434388
0.188000000000000028,74.239645151599944484
0.189000000000000029,73.053790469593991475
0.190000000000000030,71.872885467266797832
0.191000000000000031,70.696435961486855604
0.192000000000000032,69.524204134752366713
0.193000000000000033,68.356188160131551967
0.194000000000000034,67.192595801654405818
0.195000000000000034,66.033814084948147638
0.196000000000000035,64.880376872535549637
0.197000000000000036,63.732931898367496615
0.198000000000000037,62.592208534113254359
0.199000000000000038,61.458987288211446298
0.200000000000000039,60.334071786558844508
0.201000000000000040,59.218263756673721332
0.202000000000000041,58.112341338368615595
0.203000000000000042,57.017040874572614939
0.204000000000000042,55.933042195639941951
0.205000000000000043,54.860957297883636841
0.206000000000000044,53.801322230059099638
0.207000000000000045,52.754591937530257439
0.208000000000000046,51.721137770080169105
0.209000000000000047,50.701247332913069954
0.210000000000000048,49.695126348537506544
0.211000000000000049,48.702902197261167316
0.212000000000000050,47.724628813520759252
0.213000000000000050,46.760292632010646230
0.214000000000000051,45.809819299610680332
0.215000000000000052,44.873080894766978588
0.216000000000000053,43.949903423817566761
0.217000000000000054,43.040074392592188701
0.218000000000000055,42.143350280486103543
0.219000000000000056,41.259463772352354738
0.220000000000000057,40.388130630384779352
0.221000000000000058,39.529056113255634841
0.222000000000000058,38.681940872823076916
0.223000000000000059,37.846486279558845922
0.224000000000000060,37.022399146373778933
0.225000000000000061,36.209395836722713113
0.226000000000000062,35.407205756799172036
0.227000000000000063,34.615574243373401941
0.228000000000000064,33.834264868511191082
0.229000000000000065,33.063061190183553606
0.230000000000000066,32.301767983804481332
0.231000000000000066,31.550211994185254127
0.232000000000000067,30.808242250448053312
0.233000000000000068,30.075729988265969439
0.234000000000000069,29.352568224563647448
0.235000000000000070,28.638671029676068258
0.236000000000000071,27.933972541076052210
0.237000000000000072,27.238425761275397718
0.238000000000000073,26.552001180510252709
0.239000000000000073,25.874685262449389711
0.240000000000000074,25.206478828511063028
0.241000000000000075,24.547395373535490393
0.242000000000000076,23.897459342605607446
0.243000000000000077,23.256704395807808794
0.244000000000000078,22.625171684732219290
0.245000000000000079,22.002908161572840129
0.246000000000000080,21.389964938842989994
0.247000000000000081,20.786395714995485662
0.248000000000000081,20.192255278658652884
0.249000000000000082,19.607598101781736233
0.250000000000000111,19.032477029739215624
0.251000000000000112,18.466942074381432093
0.252000000000000113,17.911039314139170386
0.253000000000000114,17.364809903596619023
0.254000000000000115,16.828289193432695470
0.255000000000000115,16.301505960294271347
0.256000000000000116,15.784481744997250985
0.257000000000000117,15.277230296444590962
0.258000000000000118,14.779757117797586830
0.259000000000000119,14.292059110723883464
0.260000000000000120,13.814124312966294283
0.261000000000000121,13.345931724018223363
0.262000000000000122,12.887451213343442902
0.263000000000000123,12.438643505330960082
0.264000000000000123,11.999460235017917142
0.265000000000000124,11.569844068536381698
0.266000000000000125,11.149728882233169713
0.267000000000000126,10.739039994466816452
0.268000000000000127,10.337694444193708421
0.269000000000000128,9.945601310609161416
0.270000000000000129,9.562662068300564755
0.271000000000000130,9.188770972591791875
0.272000000000000131,8.823815470006447725
0.273000000000000131,8.467676629043912939
0.274000000000000132,8.120229586744066808
0.275000000000000133,7.781344006807522362
0.276000000000000134,7.450884545335239473
0.277000000000000135,7.128711320551397890
0.278000000000000136,6.814680383171088707
0.279000000000000137,6.508644184370008468
0.280000000000000138,6.210452038602623404
0.281000000000000139,5.919950578796436602
0.282000000000000139,5.636984201722617271
0.283000000000000140,5.361395501604489411
0.284000000000000141,5.093025690275490014
0.285000000000000142,4.831715002435447381
0.286000000000000143,4.577303084778402642
0.287000000000000144,4.329629367976315812
0.288000000000000145,4.088533420699777210
0.289000000000000146,3.853855285041077217
0.290000000000000147,3.625435792874179164
0.291000000000000147,3.403116862843213575
0.292000000000000148,3.186741777813761445
0.293000000000000149,2.976155442752181912
0.294000000000000150,2.771204623115776311
0.295000000000000151,2.571738163942814737
0.296000000000000152,2.377607189926030706
0.297000000000000153,2.188665286836917190
0.298000000000000154,2.004768664741428008
0.299000000000000155,1.825776303511452481
0.300000000000000155,1.651550081190841679
0.301000000000000156,1.481954885820827350
0.302000000000000157,1.316858711367322243
0.303000000000000158,1.156132738423586215
0.304000000000000159,0.999651400385061506
0.305000000000000160,0.847292435810982902
0.306000000000000161,0.698936927698896371
0.307000000000000162,0.554469330404762095
0.308000000000000163,0.413777484943199270
0.309000000000000163,0.276752623399914077
0.310000000000000164,0.143289363181988844
0.311000000000000165,0.013285691822250900
0.312000000000000166,-0.113357056958900110
0.313000000000000167,-0.236734235245904395
0.314000000000000168,-0.356937920303970979
0.315000000000000169,-0.474056960687120110
0.316000000000000170,-0.588177028448212513
0.317000000000000171,-0.699380676842848770
0.318000000000000171,-0.807747402942778359
0.319000000000000172,-0.913353714598696298
0.320000000000000173,-1.016273201217141375
0.321000000000000174,-1.116576607841590629
0.322000000000000175,-1.214331912053560725
0.323000000000000176,-1.309604403235042680
0.324000000000000177,-1.402456763759386549
0.325000000000000178,-1.492949151702946953
0.326000000000000179,-1.581139284695310954
0.327000000000000179,-1.667082524550234979
0.328000000000000180,-1.750831962343910586
0.329000000000000181,-1.832438503630831050
0.330000000000000182,-1.911950953510340501
0.331000000000000183,-1.989416101279648519
0.332000000000000184,-2.064878804430284376
0.333000000000000185,-2.138382071766108172
0.334000000000000186,-2.209967145440854708
0.335000000000000187,-2.279673581732448717
0.336000000000000187,-2.347539330389783352
0.337000000000000188,-2.413600812404863127
0.338000000000000189,-2.477892996080326871
0.339000000000000190,-2.540449471277906213
0.340000000000000191,-2.601302521748286800
0.341000000000000192,-2.660483195457273631
0.342000000000000193,-2.718021372836200822
0.343000000000000194,-2.773945832897285690
0.344000000000000195,-2.828284317165966844
0.345000000000000195,-2.881063591393808743
0.346000000000000196,-2.932309505025123553
0.347000000000000197,-2.982047048400410016
0.348000000000000198,-3.030300407688238717
0.349000000000000199,-3.077093017545406539
0.350000000000000200,-3.122447611512631394
0.351000000000000201,-3.166386270159854188
0.352000000000000202,-3.208930467001427367
0.353000000000000203,-3.250101112207219867
0.354000000000000203,-3.289918594140743835
0.355000000000000204,-3.328402818759849335
0.356000000000000205,-3.365573246919938644
0.357000000000000206,-3.401448929623144490
0.358000000000000207,-3.436048541259963507
0.359000000000000208,-3.469390410892962073
0.360000000000000209,-3.501492551634370898
0.361000000000000210,-3.532372688171392383
0.362000000000000210,-3.562048282494918006
0.363000000000000211,-3.590536557888586167
0.364000000000000212,-3.617854521236280707
0.365000000000000213,-3.644018983706943882
0.366000000000000214,-3.669046579876154901
0.367000000000000215,-3.692953785344210704
0.368000000000000216,-3.715756932910655230
0.369000000000000217,-3.737472227364917465
0.370000000000000218,-3.758115758952685237
0.371000000000000218,-3.777703515576921411
0.372000000000000219,-3.796251393792079654
0.373000000000000220,-3.813775208649246906
0.374000000000000221,-3.830290702449028029
0.375000000000000222,-3.845813552458027029
0.376000000000000223,-3.860359377643939549
0.377000000000000224,-3.873943744482774232
0.378000000000000225,-3.886582171890750281
0.379000000000000226,-3.898290135332001860
0.380000000000000226,-3.909083070152034711
0.381000000000000227,-3.918976374185180411
0.382000000000000228,-3.927985409683272255
0.383000000000000229,-3.936125504610950454
0.384000000000000230,-3.943411953351677823
0.385000000000000231,-3.949860016867133616
0.386000000000000232,-3.955484922350886556
0.387000000000000233,-3.960301862416024221
0.388000000000000234,-3.964325993854621366
0.389000000000000234,-3.967572436005684100
0.390000000000000235,-3.970056268766443797
0.391000000000000236,-3.971792530280612077
0.392000000000000237,-3.972796214335533538
0.393000000000000238,-3.973082267498894371
0.394000000000000239,-3.972665586024041406
0.395000000000000240,-3.971561012551718672
0.396000000000000241,-3.969783332634513329
0.397000000000000242,-3.967347271109005646
0.398000000000000242,-3.964267488339336953
0.399000000000000243,-3.960558576354490157
0.400000000000000244,-3.956235054900476111
0.401000000000000245,-3.951311367427302379
0.402000000000000246,-3.945801877029365468
0.403000000000000247,-3.939720862356911546
0.404000000000000248,-3.933082513514931211
0.405000000000000249,-3.925900927964884879
0.406000000000000250,-3.918190106443526499
0.407000000000000250,-3.909963948912179799
0.408000000000000251,-3.901236250548747453
0.409000000000000252,-3.892020697793912909
0.410000000000000253,-3.882330864461999376
0.411000000000000254,-3.872180207926146700
0.412000000000000255,-3.861582065386613749
0.413000000000000256,-3.850549650230296272
0.414000000000000257,-3.839096048488625623
0.415000000000000258,-3.827234215400562967
0.416000000000000258,-3.814976972086387974
0.417000000000000259,-3.802337002337674132
0.418000000000000260,-3.789326849527893337
0.419000000000000261,-3.775958913647781579
0.420000000000000262,-3.762245448468815479
0.421000000000000263,-3.748198558837822159
0.422000000000000264,-3.733830198105020148
0.423000000000000265,-3.719152165687496847
0.424000000000000266,-3.704176104769702160
0.425000000000000266,-3.688913500141840274
0.426000000000000267,-3.673375676177042415
0.427000000000000268,-3.657573794947524881
0.428000000000000269,-3.641518854479710576
0.429000000000000270,-3.625221687148042271
0.430000000000000271,-3.608692958206694446
0.431000000000000272,-3.591943164458403892
0.432000000000000273,-3.574982633059109016
0.433000000000000274,-3.557821520457044695
0.434000000000000274,-3.540469811464584726
0.435000000000000275,-3.522937318461010214
0.436000000000000276,-3.505233680724180179
0.437000000000000277,-3.487368363888825762
0.438000000000000278,-3.469350659529180980
0.439000000000000279,-3.451189684863423590
0.440000000000000280,-3.432894382577255321
0.441000000000000281,-3.414473520763942282
0.442000000000000282,-3.395935692977982256
0.443000000000000282,-3.377289318399379958
0.444000000000000283,-3.358542642105684539
0.445000000000000284,-3.339703735448598998
0.446000000000000285,-3.320780496532071080
0.447000000000000286,-3.301780650788811666
0.448000000000000287,-3.282711751651863352
0.449000000000000288,-3.263581181318198965
0.450000000000000289,-3.244396151600933198
0.451000000000000290,-3.225163704867014758
0.452000000000000290,-3.205890715057139850
0.453000000000000291,-3.186583888784549234
0.454000000000000292,-3.167249766509590891
0.455000000000000293,-3.147894723786734072
0.456000000000000294,-3.128524972580858599
0.457000000000000295,-3.109146562649686363
0.458000000000000296,-3.089765382989116294
0.459000000000000297,-3.070387163338444747
0.460000000000000298,-3.051017475742317853
0.461000000000000298,-3.031661736166447518
0.462000000000000299,-3.012325206164068181
0.463000000000000300,-2.993012994590164233
0.464000000000000301,-2.973730059360660594
0.465000000000000302,-2.954481209253675633
0.466000000000000303,-2.935271105750048459
0.467000000000000304,-2.916104264910475585
0.468000000000000305,-2.896985059286528497
0.469000000000000306,-2.877917719862957746
0.470000000000000306,-2.858906338028819771
0.471000000000000307,-2.839954867574784991
0.472000000000000308,-2.821067126714363660
0.473000000000000309,-2.802246800126613202
0.474000000000000310,-2.783497441018049301
0.475000000000000311,-2.764822473201520303
0.476000000000000312,-2.746225193189955505
0.477000000000000313,-2.727708772302787743
0.478000000000000314,-2.709276258783077207
0.479000000000000314,-2.690930579923396238
0.480000000000000315,-2.672674544198494484
0.481000000000000316,-2.654510843403007581
0.482000000000000317,-2.636442054792328626
0.483000000000000318,-2.618470643225040639
0.484000000000000319,-2.600598963305162048
0.485000000000000320,-2.582829261522717967
0.486000000000000321,-2.565163678391036761
0.487000000000000322,-2.547604250579370788
0.488000000000000322,-2.530152913039338092
0.489000000000000323,-2.512811501124017077
0.490000000000000324,-2.495581752698222466
0.491000000000000325,-2.478465310238856745
0.492000000000000326,-2.461463722924086994
0.493000000000000327,-2.444578448710315044
0.494000000000000328,-2.427810856395773875
0.495000000000000329,-2.411162227669847447
0.496000000000000330,-2.394633759147031249
0.497000000000000330,-2.378226564384774200
0.498000000000000331,-2.361941675884162262
0.499000000000000332,-2.345780047072810071
0.500000000000000333,-2.329742554269087496
0.501000000000000334,-2.313829998626940831
0.502000000000000335,-2.298043108060740192
0.503000000000000336,-2.282382539149423906
0.504000000000000337,-2.266848879019390139
0.505000000000000338,-2.251442647205579295
0.506000000000000338,-2.236164297490239594
0.507000000000000339,-2.221014219718902449
0.508000000000000340,-2.205992741593110207
0.509000000000000341,-2.191100130439573856
0.510000000000000342,-2.176336594955281534
0.511000000000000343,-2.161702286928348649
0.512000000000000344,-2.147197302934204632
0.513000000000000345,-2.132821686006932005
0.514000000000000346,-2.118575427285507295
0.515000000000000346,-2.104458467634687135
0.516000000000000347,-2.090470699240418284
0.517000000000000348,-2.076611967179632590
0.518000000000000349,-2.062882070964216386
0.519000000000000350,-2.049280766059184078
0.520000000000000351,-2.035807765374844980
0.521000000000000352,-2.022462740733051323
0.522000000000000353,-2.009245324307379121
0.523000000000000353,-1.996155110037294733
0.524000000000000354,-1.983191655016344868
0.525000000000000355,-1.970354480854331625
0.526000000000000356,-1.957643075013575373
0.527000000000000357,-1.945056892119352954
0.528000000000000358,-1.932595355244510316
0.529000000000000359,-1.920257857168488069
0.530000000000000360,-1.908043761610727973
0.531000000000000361,-1.895952404438719041
0.532000000000000361,-1.883983094850758544
0.533000000000000362,-1.872135116533618415
0.534000000000000363,-1.860407728795268723
0.535000000000000364,-1.848800167672872918
0.536000000000000365,-1.837311647016212079
0.537000000000000366,-1.825941359546796150
0.538000000000000367,-1.814688477892791196
0.539000000000000368,-1.803552155600127049
0.540000000000000369,-1.792531528119842177
0.541000000000000369,-1.781625713772094333
0.542000000000000370,-1.770833814686919583
0.543000000000000371,-1.760154917722109191
0.544000000000000372,-1.749588095358421302
0.545000000000000373,-1.739132406572409861
0.546000000000000374,-1.728786897687123458
0.547000000000000375,-1.718550603200980520
0.548000000000000376,-1.708422546595096847
0.549000000000000377,-1.698401741119345498
0.550000000000000377,-1.688487190557448558
0.551000000000000378,-1.678677889971382342
0.552000000000000379,-1.668972826425428879
0.553000000000000380,-1.659370979690135028
0.554000000000000381,-1.649871322926478312
0.555000000000000382,-1.640472823350628051
0.556000000000000383,-1.631174442879455455
0.557000000000000384,-1.621975138757277168
0.558000000000000385,-1.612873864163981041
0.559000000000000385,-1.603869568804959345
0.560000000000000386,-1.594961199483098779
0.561000000000000387,-1.586147700653159909
0.562000000000000388,-1.577428014958823344
0.563000000000000389,-1.568801083752785708
0.564000000000000390,-1.560265847600114553
0.565000000000000391,-1.551821246765254347
0.566000000000000392,-1.543466221682933126
0.567000000000000393,-1.535199713413332834
0.568000000000000393,-1.527020664081752965
0.569000000000000394,-1.518928017303134093
0.570000000000000395,-1.510920718591726386
0.571000000000000396,-1.502997715756160257
0.572000000000000397,-1.495157959280303483
0.573000000000000398,-1.487400402690088885
0.574000000000000399,-1.479724002906713576
0.575000000000000400,-1.472127720586410948
0.576000000000000401,-1.464610520447128028
0.577000000000000401,-1.457171371582421271
0.578000000000000402,-1.449809247762768649
0.579000000000000403,-1.442523127724636423
0.580000000000000404,-1.435311995447607458
0.581000000000000405,-1.428174840419742520
0.582000000000000406,-1.421110657891558215
0.583000000000000407,-1.414118449118791476
0.584000000000000408,-1.407197221594295611
0.585000000000000409,-1.400345989269269786
0.586000000000000409,-1.393563772764098818
0.587000000000000410,-1.386849599569085711
0.588000000000000411,-1.380202504235254146
0.589000000000000412,-1.373621528555571292
0.590000000000000413,-1.367105721736725510
0.591000000000000414,-1.360654140561773584
0.592000000000000415,-1.354265849543888622
0.593000000000000416,-1.347939921071383607
0.594000000000000417,-1.341675435544300132
0.595000000000000417,-1.335471481502797264
0.596000000000000418,-1.329327155747461076
0.597000000000000419,-1.323241563451909020
0.598000000000000420,-1.317213818267747971
0.599000000000000421,-1.311243042422219451
0.600000000000000422,-1.305328366808663931
0.601000000000000423,-1.299468931070035138
0.602000000000000424,-1.293663883675673087
0.603000000000000425,-1.287912381991522803
0.604000000000000425,-1.282213592343978581
0.605000000000000426,-1.276566690077558963
0.606000000000000427,-1.270970859606638470
0.607000000000000428,-1.265425294461277383
0.608000000000000429,-1.259929197327570138
0.609000000000000430,-1.254481780082392195
0.610000000000000431,-1.249082263823003913
0.611000000000000432,-1.243729878891468577
0.612000000000000433,-1.238423864894137028
0.613000000000000433,-1.233163470716394539
