# Montmorillonite-001-NaCEC143_BSAI11
# h[nm],U(h)[kJ/mol]
0.149999999999999994,118.393675581245162221
0.150999999999999995,116.550882690904899164
0.151999999999999996,115.109252160793474218
0.152999999999999997,113.692175616778357039
0.153999999999999998,112.199952520881950591
0.154999999999999999,110.646028675057976898
0.156000000000000000,109.075257229699857930
0.157000000000000001,107.528068633942979204
0.158000000000000002,106.028809877356451352
0.159000000000000002,104.585602767038267302
0.160000000000000003,103.194700911078967920
0.161000000000000004,101.845720576263147450
0.162000000000000005,100.526096465968151961
0.163000000000000006,99.224205846775674900
0.164000000000000007,97.931161530646036795
0.165000000000000008,96.641518547387008198
0.166000000000000009,95.353210340016900659
0.167000000000000010,94.067013071360946697
0.168000000000000010,92.785781256845794474
0.169000000000000011,91.513632460288263815
0.170000000000000012,90.255197621755456794
0.171000000000000013,89.015003037008554543
0.172000000000000014,87.797011783517120875
0.173000000000000015,86.604325779198234159
0.174000000000000016,85.439032861058947788
0.175000000000000017,84.302174142410308377
0.176000000000000018,83.193803388270623600
0.177000000000000018,82.113110452942279949
0.178000000000000019,81.058583509985396631
0.179000000000000020,80.028188774598916666
0.180000000000000021,79.019550879802608279
0.181000000000000022,78.030121483749297795
0.182000000000000023,77.057327720168544261
0.183000000000000024,76.098695573035428197
0.184000000000000025,75.151946084686628069
0.185000000000000026,74.215064492557971221
0.186000000000000026,73.286343979378798963
0.187000000000000027,72.364406787651574859
0.188000000000000028,71.448206076286282951
0.189000000000000029,70.537012172050921777
0.190000000000000030,69.630386873211406851
0.191000000000000031,68.728149271110481777
0.192000000000000032,67.830336230894005212
0.193000000000000033,66.937160267608192044
0.194000000000000034,66.048967110340754516
0.195000000000000034,65.166194797079739942
0.196000000000000035,64.289335710056647599
0.197000000000000036,63.418902561767524162
0.198000000000000037,62.555398985860151129
0.199000000000000038,61.699295080083331300
0.200000000000000039,60.851007992261806123
0.201000000000000040,60.010887433793399737
0.202000000000000041,59.179205845533807917
0.203000000000000042,58.356152823937328833
0.204000000000000042,57.541833336011869449
0.205000000000000043,56.736269204754762541
0.206000000000000044,55.939403326963052621
0.207000000000000045,55.151106087575371362
0.208000000000000046,54.371183454270124003
0.209000000000000047,53.599386268639896969
0.210000000000000048,52.835420292117326824
0.211000000000000049,52.078956612694604189
0.212000000000000050,51.329642069624661360
0.213000000000000050,50.587109405477221458
0.214000000000000051,49.850986906352872552
0.215000000000000052,49.120907340352523818
0.216000000000000053,48.396516050531651842
0.217000000000000054,47.677478100826235163
0.218000000000000055,46.963484411366856364
0.219000000000000056,46.254256852970002001
0.220000000000000057,45.549552299348491147
0.221000000000000058,44.849165659809273166
0.222000000000000058,44.152931935087039506
0.223000000000000059,43.460727354774263631
0.224000000000000060,42.772469666870421179
0.225000000000000061,42.088117658645600727
0.226000000000000062,41.407669993669962594
0.227000000000000063,40.731163452879854958
0.228000000000000064,40.058670668305232709
0.229000000000000065,39.390297436927070862
0.230000000000000066,38.726179699406358736
0.231000000000000066,38.066480264434709113
0.232000000000000067,37.411385354488764676
0.233000000000000068,36.761101043077275108
0.234000000000000069,36.115849647378539089
0.235000000000000070,35.475866133672738556
0.236000000000000071,34.841394586349181850
0.237000000000000072,34.212684784652374503
0.238000000000000073,33.589988924846124974
0.239000000000000073,32.973558519215210083
0.240000000000000074,32.363641497364746158
0.241000000000000075,31.760479529679695787
0.242000000000000076,31.164305587609796078
0.243000000000000077,30.575341750676805930
0.244000000000000078,29.993797265779733152
0.245000000000000079,29.419866860501379335
0.246000000000000080,28.853729308697232625
0.247000000000000081,28.295546243661853225
0.248000000000000081,27.745461211605039864
0.249000000000000082,27.203598956010416998
0.250000000000000111,26.670064921666732261
0.251000000000000112,26.144944965734804754
0.252000000000000113,25.628305262109744689
0.253000000000000114,25.120192384534973939
0.254000000000000115,24.620633553388529435
0.255000000000000115,24.129637030768769534
0.256000000000000116,23.647192648426624828
0.257000000000000117,23.173272453198514143
0.258000000000000118,22.707831454863729448
0.259000000000000119,22.250808461756797385
0.260000000000000120,21.802126989988259709
0.261000000000000121,21.361696232745259749
0.262000000000000122,20.929412076836388934
0.263000000000000123,20.505158154397665982
0.264000000000000123,20.088806918470588414
0.265000000000000124,19.680220731986651117
0.266000000000000125,19.279252960531671590
0.267000000000000126,18.885749060107372088
0.268000000000000127,18.499547651947064963
0.269000000000000128,18.120481577268826356
0.270000000000000129,17.748378925656311367
0.271000000000000130,17.383064031537621474
0.272000000000000131,17.024358433983266536
0.273000000000000131,16.672081795759570610
0.274000000000000132,16.326052778252094555
0.275000000000000133,15.986089869512104755
0.276000000000000134,15.652012163276300072
0.277000000000000135,15.323640087365507867
0.278000000000000136,15.000796080380553121
0.279000000000000137,14.683305216084169942
0.280000000000000138,14.370995775286946383
0.281000000000000139,14.063699765442621015
0.282000000000000139,13.761253388507006079
0.283000000000000140,13.463497457924139766
0.284000000000000141,13.170277765877049347
0.285000000000000142,12.881445402178290038
0.286000000000000143,12.596857026380790856
0.287000000000000144,12.316375094863470707
0.288000000000000145,12.039868044790321022
0.289000000000000146,11.767210436959711473
0.290000000000000147,11.498283059651992488
0.291000000000000147,11.232972995652978909
0.292000000000000148,10.971173654677688347
0.293000000000000149,10.712784773447395992
0.294000000000000150,10.457712385682764733
0.295000000000000151,10.205868764270713100
0.296000000000000152,9.957172337842720822
0.297000000000000153,9.711547583970258302
0.298000000000000154,9.468924901139283534
0.299000000000000155,9.229240461613246183
0.300000000000000155,8.992436047232292395
0.301000000000000156,8.758458870128734475
0.302000000000000157,8.527261380263977841
0.303000000000000158,8.298801061613993113
0.304000000000000159,8.073040218747149055
0.305000000000000160,7.849945755453186180
0.306000000000000161,7.629488946994364085
0.307000000000000162,7.411645207460976437
0.308000000000000163,7.196393853624309500
0.309000000000000163,6.983717866590597012
0.310000000000000164,6.773603652470791658
0.311000000000000165,6.566040803193365250
0.312000000000000166,6.361021858501036519
0.313000000000000167,6.158542070088041775
0.314000000000000168,5.958599168752396480
0.315000000000000169,5.761193135357796535
0.316000000000000170,5.566325976322724856
0.317000000000000171,5.374001504280222719
0.318000000000000171,5.184225124480558833
0.319000000000000172,4.997003627440692597
0.320000000000000173,4.812344988279922298
0.321000000000000174,4.630258173119214504
0.322000000000000175,4.450752952863370915
0.323000000000000176,4.273839724630252412
0.324000000000000177,4.099529341039343855
0.325000000000000178,3.927832947523643092
0.326000000000000179,3.758761827783172471
0.327000000000000179,3.592327257456679579
0.328000000000000180,3.428540366048557164
0.329000000000000181,3.267412007112215466
0.330000000000000182,3.108952636657778434
0.331000000000000183,2.953172199721505020
0.332000000000000184,2.800080025006795204
0.333000000000000185,2.649684727481421032
0.334000000000000186,2.501994118792970845
0.335000000000000187,2.357015125344335438
0.336000000000000187,2.214753713852873673
0.337000000000000188,2.075214824201387032
0.338000000000000189,1.938402309374784860
0.339000000000000190,1.804318882264665858
0.340000000000000191,1.672966069113960064
0.341000000000000192,1.544344169365185149
0.342000000000000193,1.418452221669174396
0.343000000000000194,1.295287975805625491
0.344000000000000195,1.174847870263222793
0.345000000000000195,1.057127015223690458
0.346000000000000196,0.942119180693410607
0.347000000000000197,0.829816789525139265
0.348000000000000198,0.720210915073293600
0.349000000000000199,0.613291283227608952
0.350000000000000200,0.509046278572229394
0.351000000000000201,0.407462954420394041
0.352000000000000202,0.308527046478619060
0.353000000000000203,0.212222989898488340
0.354000000000000203,0.118533939479085526
0.355000000000000204,0.027441792788512741
0.356000000000000205,-0.061072784021441631
0.357000000000000206,-0.147030327927372806
0.358000000000000207,-0.230452548486231257
0.359000000000000208,-0.311362295234050013
0.360000000000000209,-0.389783523231260143
0.361000000000000210,-0.465741256947256599
0.362000000000000210,-0.539261552669918598
0.363000000000000211,-0.610371459618329060
0.364000000000000212,-0.679098979929736113
0.365000000000000213,-0.745473027684360412
0.366000000000000214,-0.809523387124309601
0.367000000000000215,-0.871280670215506481
0.368000000000000216,-0.930776273694389311
0.369000000000000217,-0.988042335733626431
0.370000000000000218,-1.043111692354366404
0.371000000000000218,-1.096017833705099642
0.372000000000000219,-1.146794860320678566
0.373000000000000220,-1.195477439468081604
0.374000000000000221,-1.242100761678933907
0.375000000000000222,-1.286700497562277112
0.376000000000000223,-1.329312754985072953
0.377000000000000224,-1.369974036701411935
0.378000000000000225,-1.408721198505783923
0.379000000000000226,-1.445591407979837983
0.380000000000000226,-1.480622103896709119
0.381000000000000227,-1.513850956341328491
0.382000000000000228,-1.545315827600315162
0.383000000000000229,-1.575054733869817758
0.384000000000000230,-1.603105807824993789
0.385000000000000231,-1.629507262090366115
0.386000000000000232,-1.654297353645635793
0.387000000000000233,-1.677514349197737120
0.388000000000000234,-1.699196491545485133
0.389000000000000234,-1.719381966959820929
0.390000000000000235,-1.738108873598716686
0.391000000000000236,-1.755415190972528405
0.392000000000000237,-1.771338750472329249
0.393000000000000238,-1.785917206970692561
0.394000000000000239,-1.799188011501402729
0.395000000000000240,-1.811188385022046932
0.396000000000000241,-1.821955293260705933
0.397000000000000242,-1.831525422645562839
0.398000000000000242,-1.839935157314211978
0.399000000000000243,-1.847220557197029933
0.400000000000000244,-1.853417337167314161
0.401000000000000245,-1.858560847248936998
0.402000000000000246,-1.862686053870536096
0.403000000000000247,-1.865827522153900686
0.404000000000000248,-1.868019399222599741
0.405000000000000249,-1.869295398515705475
0.406000000000000250,-1.869688785090228622
0.407000000000000250,-1.869232361894850314
0.408000000000000251,-1.867958456996510863
0.409000000000000252,-1.865898911740555777
0.410000000000000253,-1.863085069824413909
0.411000000000000254,-1.859547767264013718
0.412000000000000255,-1.855317323231572502
0.413000000000000256,-1.850423531742975358
0.414000000000000257,-1.844895654172272970
0.415000000000000258,-1.838762412570803750
0.416000000000000258,-1.832051983767791770
0.417000000000000259,-1.824791994229346681
0.418000000000000260,-1.817009515652373342
0.419000000000000261,-1.808731061270004492
0.420000000000000262,-1.799982582844893431
0.421000000000000263,-1.790789468326929423
0.422000000000000264,-1.781176540151735876
0.423000000000000265,-1.771168054156583294
0.424000000000000266,-1.760787699090455849
0.425000000000000266,-1.750058596694973545
0.426000000000000267,-1.739003302333412604
0.427000000000000268,-1.727643806144954608
0.428000000000000269,-1.716001534701782960
0.429000000000000270,-1.704097353146902138
0.430000000000000271,-1.691951567790707545
0.431000000000000272,-1.679583929144931265
0.432000000000000273,-1.667013635372717628
0.433000000000000274,-1.654259336134090930
0.434000000000000274,-1.641339136806419408
0.435000000000000275,-1.628270603059883470
0.436000000000000276,-1.615070765768446437
0.437000000000000277,-1.601756126237117162
0.438000000000000278,-1.588342661726882321
0.439000000000000279,-1.574845831259092055
0.440000000000000280,-1.561280581681439017
0.441000000000000281,-1.547661353978276200
0.442000000000000282,-1.534002089808452762
0.443000000000000282,-1.520316238254183050
0.444000000000000283,-1.506616762765162765
0.445000000000000284,-1.492916148282399824
0.446000000000000285,-1.479226408526808978
0.447000000000000286,-1.465559093438173921
0.448000000000000287,-1.451925296750262051
0.449000000000000288,-1.438335663688747434
0.450000000000000289,-1.424800398778663268
0.451000000000000290,-1.411329273748844315
0.452000000000000290,-1.397931635521191485
0.453000000000000291,-1.384616414272927143
0.454000000000000292,-1.371392131560658090
0.455000000000000293,-1.358266908495340486
0.456000000000000294,-1.345248473957716850
0.457000000000000295,-1.332344172844289965
0.458000000000000296,-1.319560974334168968
0.459000000000000297,-1.306905480167708911
0.460000000000000298,-1.294383932928088177
0.461000000000000298,-1.282002224317554839
0.462000000000000299,-1.269765903420251085
0.463000000000000300,-1.257680184944064639
0.464000000000000301,-1.245749957434270083
0.465000000000000302,-1.233979791452072261
0.466000000000000303,-1.222373947711476116
0.467000000000000304,-1.210936385168392748
0.468000000000000305,-1.199670769056038644
0.469000000000000306,-1.188580478861131606
0.470000000000000306,-1.177668616235731935
0.471000000000000307,-1.166938012839695560
0.472000000000000308,-1.156391238109254704
0.473000000000000309,-1.146030606947353370
0.474000000000000310,-1.135858187331701741
0.475000000000000311,-1.125875807836775655
0.476000000000000312,-1.116085065066310555
0.477000000000000313,-1.106487330992979912
0.478000000000000314,-1.097083760202264502
0.479000000000000314,-1.087875297037810940
0.480000000000000315,-1.078862682645641113
0.481000000000000316,-1.070046461915004743
0.482000000000000317,-1.061426990313668384
0.483000000000000318,-1.053004440615845194
0.484000000000000319,-1.044778809520982232
0.485000000000000320,-1.036749924161941783
0.486000000000000321,-1.028917448501236453
0.487000000000000322,-1.021280889614179843
0.488000000000000322,-1.013839603857892957
0.489000000000000323,-1.006592802925479813
0.490000000000000324,-0.999539559784564546
0.491000000000000325,-0.992678814499733497
0.492000000000000326,-0.986009379938486474
0.493000000000000327,-0.979529947360445519
0.494000000000000328,-0.973239091889692376
0.495000000000000329,-0.967135277870251664
0.496000000000000330,-0.961216864104788682
0.497000000000000330,-0.955482108976841937
0.498000000000000331,-0.949929175456760588
0.499000000000000332,-0.944556135991967416
0.500000000000000333,-0.939360977281931797
0.501000000000000334,-0.934341604938471071
0.502000000000000335,-0.929495848032172667
0.503000000000000336,-0.924821463525590581
0.504000000000000337,-0.920316140594149013
0.505000000000000338,-0.915977504835619571
0.506000000000000338,-0.911803122369191477
0.507000000000000339,-0.907790503825147477
0.508000000000000340,-0.903937108226244179
0.509000000000000341,-0.900240346762015919
0.510000000000000342,-0.896697586457093188
0.511000000000000343,-0.893306153734898856
0.512000000000000344,-0.890063337877922245
0.513000000000000345,-0.886966394385957257
0.514000000000000346,-0.884012548233670925
0.515000000000000346,-0.881198997028854736
0.516000000000000347,-0.878522914072820682
0.517000000000000348,-0.875981451324422400
0.518000000000000349,-0.873571742269105833
0.519000000000000350,-0.871290904694576041
0.520000000000000351,-0.869136043374515666
0.521000000000000352,-0.867104252661969666
0.522000000000000353,-0.865192618993880003
0.523000000000000353,-0.863398223308362689
0.524000000000000354,-0.861718143376302370
0.525000000000000355,-0.860149456048827643
0.526000000000000356,-0.858689239422234407
0.527000000000000357,-0.857334574922009374
0.528000000000000358,-0.856082549307451424
0.529000000000000359,-0.854930256598576799
0.530000000000000360,-0.853874799926798600
0.531000000000000361,-0.852913293311062026
0.532000000000000361,-0.852042863360945146
0.533000000000000362,-0.851260650908349126
0.534000000000000363,-0.850563812569302691
0.535000000000000364,-0.849949522237507304
0.536000000000000365,-0.849414972511097544
0.537000000000000366,-0.848957376054240376
0.538000000000000367,-0.848573966895018628
0.539000000000000368,-0.848262001661224341
0.540000000000000369,-0.848018760755452128
0.541000000000000369,-0.847841549471111455
0.542000000000000370,-0.847727699050693340
0.543000000000000371,-0.847674567687909275
0.544000000000000372,-0.847679541475017451
0.545000000000000373,-0.847740035296872363
0.546000000000000374,-0.847853493673027314
0.547000000000000375,-0.848017391549352739
0.548000000000000376,-0.848229235040518170
0.549000000000000377,-0.848486562124691424
0.550000000000000377,-0.848786943291843010
0.551000000000000378,-0.849127982146902438
0.552000000000000379,-0.849507315969161070
0.553000000000000380,-0.849922616229128458
0.554000000000000381,-0.850371589064138123
0.555000000000000382,-0.850851975713979969
0.556000000000000383,-0.851361552917696662
0.557000000000000384,-0.851898133272854352
0.558000000000000385,-0.852459565558368659
0.559000000000000385,-0.853043735022122385
0.560000000000000386,-0.853648563634487600
0.561000000000000387,-0.854272010308862351
0.562000000000000388,-0.854912071090319081
0.563000000000000389,-0.855566779313498671
0.564000000000000390,-0.856234205730712850
0.565000000000000391,-0.856912458611379657
0.566000000000000392,-0.857599683813737967
0.567000000000000393,-0.858294064829912662
0.568000000000000393,-0.858993822805212304
0.569000000000000394,-0.859697216532684272
0.570000000000000395,-0.860402542423845063
0.571000000000000396,-0.861108134456462837
0.572000000000000397,-0.861812364100348782
0.573000000000000398,-0.862513640221955535
0.574000000000000399,-0.863210408968707932
0.575000000000000400,-0.863901153633841012
0.576000000000000401,-0.864584394502575515
0.577000000000000401,-0.865258688680476062
0.578000000000000402,-0.865922629904679164
0.579000000000000403,-0.866574848338785286
0.580000000000000404,-0.867214010352220122
0.581000000000000405,-0.867838818284639713
0.582000000000000406,-0.868448010196236964
0.583000000000000407,-0.869040359604506540
0.584000000000000408,-0.869614675208211785
0.585000000000000409,-0.870169800599172816
0.586000000000000409,-0.870704613962489438
0.587000000000000410,-0.871218027765867653
0.588000000000000411,-0.871708988438560040
0.589000000000000412,-0.872176476040606774
0.590000000000000413,-0.872619503922833828
0.591000000000000414,-0.873037118378236388
0.592000000000000415,-0.873428398285247765
0.593000000000000416,-0.873792454743398395
0.594000000000000417,-0.874128430701884840
0.595000000000000417,-0.874435500581566716
0.596000000000000418,-0.874712869890762357
0.597000000000000419,-0.874959774835437520
0.598000000000000420,-0.875175481924104992
0.599000000000000421,-0.875359287567958333
0.600000000000000422,-0.875510517676608702
0.601000000000000423,-0.875628527249810218
0.602000000000000424,-0.875712699965636387
0.603000000000000425,-0.875762447765416119
0.604000000000000425,-0.875777210435802034
0.605000000000000426,-0.875756455188362537
0.606000000000000427,-0.875699676237029268
0.607000000000000428,-0.875606394373632080
0.608000000000000429,-0.875476156542050910
0.609000000000000430,-0.875308535411021382
0.610000000000000431,-0.875103128946135178
0.611000000000000432,-0.874859559981152168
0.612000000000000433,-0.874577475788965053
0.613000000000000433,-0.874256547652495053
