# Montmorillonite-001-NaCEC143_BSAI19
# h[nm],U(h)[kJ/mol]
0.149999999999999994,119.047744561146672027
0.150999999999999995,117.429365778566221934
0.151999999999999996,115.866407745159264664
0.152999999999999997,114.272771963215859614
0.153999999999999998,112.646337546809533592
0.154999999999999999,111.012001918857208693
0.156000000000000000,109.395537013274449123
0.157000000000000001,107.814036104724706888
0.158000000000000002,106.274565776999480704
0.159000000000000002,104.776284061760094346
0.160000000000000003,103.313508372182511152
0.161000000000000004,101.878528776877928408
0.162000000000000005,100.463702563773466636
0.163000000000000006,99.062756356698031368
0.164000000000000007,97.671404724351020832
0.165000000000000008,96.287459249700333430
0.166000000000000009,94.910604932020348201
0.167000000000000010,93.541994773863223145
0.168000000000000010,92.183777448761318851
0.169000000000000011,90.838637190187753845
0.170000000000000012,89.509394276346640140
0.171000000000000013,88.198690394806121162
0.172000000000000014,86.908765754148745941
0.173000000000000015,85.641323243214401373
0.174000000000000016,84.397468087537063752
0.175000000000000017,83.177708156065037315
0.176000000000000018,81.981999285680444700
0.177000000000000018,80.809820850437347417
0.178000000000000019,79.660268630077027296
0.179000000000000020,78.532154326875456718
0.180000000000000021,77.424103489787427179
0.181000000000000022,76.334645899724947071
0.182000000000000023,75.262294512383348888
0.183000000000000024,74.205610776635339221
0.184000000000000025,73.163255526634060288
0.185000000000000026,72.134025695774568021
0.186000000000000026,71.116877851357202189
0.187000000000000027,70.110940041255716437
0.188000000000000028,69.115513722978732858
0.189000000000000029,68.130067655539093607
0.190000000000000030,67.154225616526616705
0.191000000000000031,66.187749696921855502
0.192000000000000032,65.230520755208289074
0.193000000000000033,64.282517405371635277
0.194000000000000034,63.343794690276091330
0.195000000000000034,62.414463367750599332
0.196000000000000035,61.494670522436493343
0.197000000000000036,60.584582019480400561
0.198000000000000037,59.684367141098348952
0.199000000000000038,58.794185596230093438
0.200000000000000039,57.914176967574334753
0.201000000000000040,57.044452558597981806
0.202000000000000041,56.185089524121352156
0.203000000000000042,55.336127109700498750
0.204000000000000042,54.497564784828647078
0.205000000000000043,53.669362030412663955
0.206000000000000044,52.851439529489518065
0.207000000000000045,52.043681509305557142
0.208000000000000046,51.245938990421038284
0.209000000000000047,50.458033712394680492
0.210000000000000048,49.679762524052783590
0.211000000000000049,48.910902047815106641
0.212000000000000050,48.151213450736335631
0.213000000000000050,47.400447178764906653
0.214000000000000051,46.658347534365333331
0.215000000000000052,45.924657000436980070
0.216000000000000053,45.199120234900277637
0.217000000000000054,44.481487680061761125
0.218000000000000055,43.771518748691946143
0.219000000000000056,43.068984564532726722
0.220000000000000057,42.373670248653944270
0.221000000000000058,41.685376754735521843
0.222000000000000058,41.003922266031388233
0.223000000000000059,40.329143174599217048
0.224000000000000060,39.660894669488889974
0.225000000000000061,38.999050965136021318
0.226000000000000062,38.343505204366287842
0.227000000000000063,37.694169072355499850
0.228000000000000064,37.050972158771195097
0.229000000000000065,36.413861105306338573
0.230000000000000066,35.782798575056105506
0.231000000000000066,35.157762078823303398
0.232000000000000067,34.538742691596077350
0.233000000000000068,33.925743690238633121
0.234000000000000069,33.318779140973695974
0.235000000000000070,32.717872462604233874
0.236000000000000071,32.123054988700275203
0.237000000000000072,31.534364549227699825
0.238000000000000073,30.951844089377125613
0.239000000000000073,30.375540340706727704
0.240000000000000074,29.805502557176843936
0.241000000000000075,29.241781326257630269
0.242000000000000076,28.684427463051729745
0.243000000000000077,28.133490993306718764
0.244000000000000078,27.589020229306690624
0.245000000000000079,27.051060940931186849
0.246000000000000080,26.519655622655267990
0.247000000000000081,25.994842855930905046
0.248000000000000081,25.476656765234416469
0.249000000000000082,24.965126565078026744
0.250000000000000111,24.460276194456817223
0.251000000000000112,23.962124034525778882
0.252000000000000113,23.470682704762850790
0.253000000000000114,22.985958932463962157
0.254000000000000115,22.507953490119358975
0.255000000000000115,22.036661195029758176
0.256000000000000116,21.572070965420909516
0.257000000000000117,21.114165927297104730
0.258000000000000118,20.662923566327386027
0.259000000000000119,20.218315919170727568
0.260000000000000120,19.780309798811305910
0.261000000000000121,19.348867048682166114
0.262000000000000122,18.923944820596496186
0.263000000000000123,18.505495871774865435
0.264000000000000123,18.093468876545188095
0.265000000000000124,17.687808748595752917
0.266000000000000125,17.288456969974088651
0.267000000000000126,16.895351923341248579
0.268000000000000127,16.508429224308009964
0.269000000000000128,16.127622050993672076
0.270000000000000129,15.752861468255536792
0.271000000000000130,15.384076744335752451
0.272000000000000131,15.021195657960518588
0.273000000000000131,14.664144794201401822
0.274000000000000132,14.312849827670415692
0.275000000000000133,13.967235791866595918
0.276000000000000134,13.627227333722894187
0.277000000000000135,13.292748952617293057
0.278000000000000136,12.963725223310396117
0.279000000000000137,12.640081002454198966
0.280000000000000138,12.321741618483670777
0.281000000000000139,12.008633044852510707
0.282000000000000139,11.700682056710501655
0.283000000000000140,11.397816371239866129
0.284000000000000141,11.099964771974455857
0.285000000000000142,10.807057217518352132
0.286000000000000143,10.519024935160192769
0.287000000000000144,10.235800499947590225
0.288000000000000145,9.957317899842148989
0.289000000000000146,9.683512587622148615
0.290000000000000147,9.414321520235468199
0.291000000000000147,9.149683186333401608
0.292000000000000148,8.889537622734208000
0.293000000000000149,8.633826420577729976
0.294000000000000150,8.382492721936497304
0.295000000000000151,8.135481207648028956
0.296000000000000152,7.892738077126097096
0.297000000000000153,7.654211020897665030
0.298000000000000154,7.419849186596283452
0.299000000000000155,7.189603139123915021
0.300000000000000155,6.963424815670537171
0.301000000000000156,6.741267476256501467
0.302000000000000157,6.523085650434920169
0.303000000000000158,6.308835080763293135
0.304000000000000159,6.098472663623033085
0.305000000000000160,5.891956387934636830
0.306000000000000161,5.689245272284421340
0.307000000000000162,5.490299300946559491
0.308000000000000163,5.295079359251897877
0.309000000000000163,5.103547168722810667
0.310000000000000164,4.915665222361402797
0.311000000000000165,4.731396720447017756
0.312000000000000166,4.550705507168201436
0.313000000000000167,4.373556008384232641
0.314000000000000168,4.199913170782329175
0.315000000000000169,4.029742402668402335
0.316000000000000170,3.863009516602191606
0.317000000000000171,3.699680674061755159
0.318000000000000171,3.539722332297551954
0.319000000000000172,3.383101193512655591
0.320000000000000173,3.229784156483565205
0.321000000000000174,3.079738270715012494
0.322000000000000175,2.932930693202215444
0.323000000000000176,2.789328647855779497
0.324000000000000177,2.648899387626971524
0.325000000000000178,2.511610159355240235
0.326000000000000179,2.377428171344771801
0.327000000000000179,2.246320563663540160
0.328000000000000180,2.118254381145492804
0.329000000000000181,1.993196549065298528
0.330000000000000182,1.871113851444692999
0.331000000000000183,1.751972911940077093
0.332000000000000184,1.635740177252826610
0.333000000000000185,1.522381902996273073
0.334000000000000186,1.411864141946862494
0.335000000000000187,1.304152734601393915
0.336000000000000187,1.199213301957196665
0.337000000000000188,1.097011240428433565
0.338000000000000189,0.997511718807806980
0.339000000000000190,0.900679677180603377
0.340000000000000191,0.806479827695852025
0.341000000000000192,0.714876657097747392
0.342000000000000193,0.625834430919576690
0.343000000000000194,0.539317199241849066
0.344000000000000195,0.455288803916543638
0.345000000000000195,0.373712887159222129
0.346000000000000196,0.294552901412226009
0.347000000000000197,0.217772120382654422
0.348000000000000198,0.143333651160663267
0.349000000000000199,0.071200447325115185
0.350000000000000200,0.001335322945569262
0.351000000000000201,-0.066299032608111874
0.352000000000000202,-0.131740039135043008
0.353000000000000203,-0.195025209435386537
0.354000000000000203,-0.256192132586514687
0.355000000000000204,-0.315278456741619528
0.356000000000000205,-0.372321871526423154
0.357000000000000206,-0.427360090106691903
0.358000000000000207,-0.480430830995909719
0.359000000000000208,-0.531571799669814160
0.360000000000000209,-0.580820670051185317
0.361000000000000210,-0.628215065925081695
0.362000000000000210,-0.673792542341821177
0.363000000000000211,-0.717590567061722751
0.364000000000000212,-0.759646502092637399
0.365000000000000213,-0.799997585368199315
0.366000000000000214,-0.838680912611751816
0.367000000000000215,-0.875733419427887183
0.368000000000000216,-0.911191863660776868
0.369000000000000217,-0.945092808055388311
0.370000000000000218,-0.977472603255191475
0.371000000000000218,-1.008367371166985382
0.372000000000000219,-1.037812988721076746
0.373000000000000220,-1.065845072052396203
0.374000000000000221,-1.092498961125651924
0.375000000000000222,-1.117809704825222017
0.376000000000000223,-1.141812046528440039
0.377000000000000224,-1.164540410178358076
0.378000000000000225,-1.186028886870240218
0.379000000000000226,-1.206311221963874747
0.380000000000000226,-1.225420802732023473
0.381000000000000227,-1.243390646553198531
0.382000000000000228,-1.260253389655573431
0.383000000000000229,-1.276041276416855608
0.384000000000000230,-1.290786149223514423
0.385000000000000231,-1.304519438891348360
0.386000000000000232,-1.317272155647719156
0.387000000000000233,-1.329074880674784964
0.388000000000000234,-1.339957758211488326
0.389000000000000234,-1.349950488211194344
0.390000000000000235,-1.359082319550571016
0.391000000000000236,-1.367382043784403312
0.392000000000000237,-1.374877989440060899
0.393000000000000238,-1.381598016844521659
0.394000000000000239,-1.387569513475917171
0.395000000000000240,-1.392819389831056798
0.396000000000000241,-1.397374075799509896
0.397000000000000242,-1.401259517534301668
0.398000000000000242,-1.404501174808803654
0.399000000000000243,-1.407124018848739500
0.400000000000000244,-1.409152530627925115
0.401000000000000245,-1.410610699615995056
0.402000000000000246,-1.411522022965803647
0.403000000000000247,-1.411909505128232212
0.404000000000000248,-1.411795657881611543
0.405000000000000249,-1.411202500762901213
0.406000000000000250,-1.410151561887527549
0.407000000000000250,-1.408663879144767650
0.408000000000000251,-1.406760001755313905
0.409000000000000252,-1.404459992177742311
0.410000000000000253,-1.401783428350498628
0.411000000000000254,-1.398749406256039052
0.412000000000000255,-1.395376542793774988
0.413000000000000256,-1.391682978948627358
0.414000000000000257,-1.387686383241850896
0.415000000000000258,-1.383403955451206091
0.416000000000000258,-1.378852430587356626
0.417000000000000259,-1.374048083113789787
0.418000000000000260,-1.369006731397492516
0.419000000000000261,-1.363743742377983681
0.420000000000000262,-1.358274036442324251
0.421000000000000263,-1.352612092494083429
0.422000000000000264,-1.346771953204319860
0.423000000000000265,-1.340767230432956314
0.424000000000000266,-1.334611110809185153
0.425000000000000266,-1.328316361459620731
0.426000000000000267,-1.321895335873414679
0.427000000000000268,-1.315359979893591991
0.428000000000000269,-1.308721837824244671
0.429000000000000270,-1.301992058643525851
0.430000000000000271,-1.295181402312473917
0.431000000000000272,-1.288300246170253960
0.432000000000000273,-1.281358591406399627
0.433000000000000274,-1.274366069601156948
0.434000000000000274,-1.267331949325126716
0.435000000000000275,-1.260265142789818604
0.436000000000000276,-1.253174212540960397
0.437000000000000277,-1.246067378186644037
0.438000000000000278,-1.238952523152768048
0.439000000000000279,-1.231837201458445774
0.440000000000000280,-1.224728644504313735
0.441000000000000281,-1.217633767866993511
0.442000000000000282,-1.210559178093274291
0.443000000000000282,-1.203511179487643412
0.444000000000000283,-1.196495780887383065
0.445000000000000284,-1.189518702419402718
0.446000000000000285,-1.182585382233369620
0.447000000000000286,-1.175700983206068750
0.448000000000000287,-1.168870399611857902
0.449000000000000288,-1.162098263754696381
0.450000000000000289,-1.155388952557134363
0.451000000000000290,-1.148746594102123764
0.452000000000000290,-1.142175074123629397
0.453000000000000291,-1.135678042442200386
0.454000000000000292,-1.129258919342023271
0.455000000000000293,-1.122920901886018452
0.456000000000000294,-1.116666970165884676
0.457000000000000295,-1.110499893484137690
0.458000000000000296,-1.104422236465342433
0.459000000000000297,-1.098436365094046963
0.460000000000000298,-1.092544452676964095
0.461000000000000298,-1.086748485727258018
0.462000000000000299,-1.081050269768872640
0.463000000000000300,-1.075451435059024075
0.464000000000000301,-1.069953442227212559
0.465000000000000302,-1.064557587829156216
0.466000000000000303,-1.059265009814251091
0.467000000000000304,-1.054076692905366430
0.468000000000000305,-1.048993473889795691
0.469000000000000306,-1.044016046820417376
0.470000000000000306,-1.039144968126276325
0.471000000000000307,-1.034380661631741694
0.472000000000000308,-1.029723423483780431
0.473000000000000309,-1.025173426986772274
0.474000000000000310,-1.020730727344525191
0.475000000000000311,-1.016395266309215284
0.476000000000000312,-1.012166876737108812
0.477000000000000313,-1.008045287050960415
0.478000000000000314,-1.004030125609120860
0.479000000000000314,-1.000120924981502402
0.480000000000000315,-0.996317126132515218
0.481000000000000316,-0.992618082511355859
0.482000000000000317,-0.989023064049878720
0.483000000000000318,-0.985531261068575359
0.484000000000000319,-0.982141788091088097
0.485000000000000320,-0.978853687567819764
0.486000000000000321,-0.975665933509282768
0.487000000000000322,-0.972577435029840842
0.488000000000000322,-0.969587039802514483
0.489000000000000323,-0.966693537425750593
0.490000000000000324,-0.963895662702855760
0.491000000000000325,-0.961192098835028652
0.492000000000000326,-0.958581480528861940
0.493000000000000327,-0.956062397019308841
0.494000000000000328,-0.953633395009047424
0.495000000000000329,-0.951292981525292070
0.496000000000000330,-0.949039626695061367
0.497000000000000330,-0.946871766440060214
0.498000000000000331,-0.944787805092131228
0.499000000000000332,-0.942786117930563328
0.500000000000000333,-0.940865053642308879
0.501000000000000334,-0.939022936706235045
0.502000000000000335,-0.937258069702725294
0.503000000000000336,-0.935568735549680119
0.504000000000000337,-0.933953199666232137
0.505000000000000338,-0.932409712065329188
0.506000000000000338,-0.930936509376458554
0.507000000000000339,-0.929531816799724409
0.508000000000000340,-0.928193849992507203
0.509000000000000341,-0.926920816890032695
0.510000000000000342,-0.925710919460979831
0.511000000000000343,-0.924562355399499713
0.512000000000000344,-0.923473319754814836
0.513000000000000345,-0.922442006499692324
0.514000000000000346,-0.921466610039063716
0.515000000000000346,-0.920545326659978125
0.516000000000000347,-0.919676355924181399
0.517000000000000348,-0.918857902004579508
0.518000000000000349,-0.918088174966746329
0.519000000000000350,-0.917365391996796675
0.520000000000000351,-0.916687778576752876
0.521000000000000352,-0.916053569608720863
0.522000000000000353,-0.915461010488964000
0.523000000000000353,-0.914908358133160959
0.524000000000000354,-0.914393881953987075
0.525000000000000355,-0.913915864792200994
0.526000000000000356,-0.913472603802371830
0.527000000000000357,-0.913062411294464860
0.528000000000000358,-0.912683615532309256
0.529000000000000359,-0.912334561490207974
0.530000000000000360,-0.912013611568643467
0.531000000000000361,-0.911719146270322467
0.532000000000000361,-0.911449564837523263
0.533000000000000362,-0.911203285851894584
0.534000000000000363,-0.910978747797681843
0.535000000000000364,-0.910774409589498624
0.536000000000000365,-0.910588751065572466
0.537000000000000366,-0.910420273447570039
0.538000000000000367,-0.910267499767863364
0.539000000000000368,-0.910128975265364071
0.540000000000000369,-0.910003267750729150
0.541000000000000369,-0.909888967942009019
0.542000000000000370,-0.909784689771542254
0.543000000000000371,-0.909689070665111621
0.544000000000000372,-0.909600771794179530
0.545000000000000373,-0.909518478302118849
0.546000000000000374,-0.909440899505260303
0.547000000000000375,-0.909366769069636094
0.548000000000000376,-0.909294845164220988
0.549000000000000377,-0.909223910591484552
0.550000000000000377,-0.909152772896062111
0.551000000000000378,-0.909080264452277520
0.552000000000000379,-0.909005242531341962
0.553000000000000380,-0.908926589348919678
0.554000000000000381,-0.908843212093791819
0.555000000000000382,-0.908754042938392126
0.556000000000000383,-0.908658039031800868
0.557000000000000384,-0.908554182475996397
0.558000000000000385,-0.908441480285931413
0.559000000000000385,-0.908318964334146273
0.560000000000000386,-0.908185691280526286
0.561000000000000387,-0.908040742487825403
0.562000000000000388,-0.907883223923548144
0.563000000000000389,-0.907712266048824601
0.564000000000000390,-0.907527023694790991
0.565000000000000391,-0.907326675927075499
0.566000000000000392,-0.907110425898921213
0.567000000000000393,-0.906877500693502592
0.568000000000000393,-0.906627151155900535
0.569000000000000394,-0.906358651715292174
0.570000000000000395,-0.906071300197831220
0.571000000000000396,-0.905764417630664509
0.572000000000000397,-0.905437348037621215
0.573000000000000398,-0.905089458226930099
0.574000000000000399,-0.904720137571499827
0.575000000000000400,-0.904328797782116056
0.576000000000000401,-0.903914872673989733
0.577000000000000401,-0.903477817927113458
0.578000000000000402,-0.903017110840718451
0.579000000000000403,-0.902532250082268783
0.580000000000000404,-0.902022755431396206
0.581000000000000405,-0.901488167519022054
0.582000000000000406,-0.900928047562138845
0.583000000000000407,-0.900341977094480272
0.584000000000000408,-0.899729557693473181
0.585000000000000409,-0.899090410703749732
0.586000000000000409,-0.898424176957525411
0.587000000000000410,-0.897730516492175057
0.588000000000000411,-0.897009108265200972
0.589000000000000412,-0.896259649867000796
0.590000000000000413,-0.895481857231549383
0.591000000000000414,-0.894675464345378701
0.592000000000000415,-0.893840222955029740
0.593000000000000416,-0.892975902273227207
0.594000000000000417,-0.892082288684010627
0.595000000000000417,-0.891159185447087610
0.596000000000000418,-0.890206412401503222
0.597000000000000419,-0.889223805668986955
0.598000000000000420,-0.888211217357032234
0.599000000000000421,-0.887168515261999802
0.600000000000000422,-0.886095582572377305
0.601000000000000423,-0.884992317572357856
0.602000000000000424,-0.883858633345969813
0.603000000000000425,-0.882694457481849937
0.604000000000000425,-0.881499731778841777
0.605000000000000426,-0.880274411952570057
0.606000000000000427,-0.879018467343163912
0.607000000000000428,-0.877731880624143201
0.608000000000000429,-0.876414647512808953
0.609000000000000430,-0.875066776482004371
0.610000000000000431,-0.873688288473606911
0.611000000000000432,-0.872279216613690123
0.612000000000000433,-0.870839605929532690
0.613000000000000433,-0.869369513068593669
