# Montmorillonite-001-NaCEC143_BSAI26
# h[nm],U(h)[kJ/mol]
0.149999999999999994,93.073202170755536144
0.150999999999999995,91.366818029117069955
0.151999999999999996,90.049805967552117636
0.152999999999999997,88.763715026358397608
0.153999999999999998,87.406677581497248752
0.154999999999999999,85.985470943537137600
0.156000000000000000,84.540097561618651412
0.157000000000000001,83.109509159877148932
0.158000000000000002,81.719414101011338403
0.159000000000000002,80.380944312390411710
0.160000000000000003,79.093850636161192824
0.161000000000000004,77.850875687703108952
0.162000000000000005,76.641710533515478687
0.163000000000000006,75.455931382573297128
0.164000000000000007,74.284832575576288605
0.165000000000000008,73.122313898261268150
0.166000000000000009,71.965064553533892422
0.167000000000000010,70.812287576906513209
0.168000000000000010,69.665171621532209656
0.169000000000000011,68.526267310386117515
0.170000000000000012,67.398876293657465908
0.171000000000000013,66.286519111993982278
0.172000000000000014,65.192515142241532544
0.173000000000000015,64.119684224925336480
0.174000000000000016,63.070163881814593765
0.175000000000000017,62.045326760227872853
0.176000000000000018,61.045778495413244968
0.177000000000000018,60.071415137404208906
0.178000000000000019,59.121520464162031772
0.179000000000000020,58.194885978609150357
0.180000000000000021,57.289939483532307918
0.181000000000000022,56.404871370184423540
0.182000000000000023,55.537750833542851581
0.183000000000000024,54.686626956037983405
0.184000000000000025,53.849611891636619987
0.185000000000000026,53.024945208019872211
0.186000000000000026,52.211039823712475538
0.187000000000000027,51.406510952842793927
0.188000000000000028,50.610190099693326715
0.189000000000000029,49.821126490060230196
0.190000000000000030,49.038578447263979854
0.191000000000000031,48.261997173282267681
0.192000000000000032,47.491005228952836603
0.193000000000000033,46.725371762920836716
0.194000000000000034,45.964986250680354374
0.195000000000000034,45.209832199098372030
0.196000000000000035,44.459961968102057028
0.197000000000000036,43.715473573988035128
0.198000000000000037,42.976490077575576265
0.199000000000000038,42.243141930839151144
0.200000000000000039,41.515552460368084553
0.201000000000000040,40.793826505375491820
0.202000000000000041,40.078042100715833840
0.203000000000000042,39.368244999036555498
0.204000000000000042,38.664445757625571787
0.205000000000000043,37.966619071191331614
0.206000000000000044,37.274705008056791655
0.207000000000000045,36.588611800464896362
0.208000000000000046,35.908219846472775316
0.209000000000000047,35.233386598129335709
0.210000000000000048,34.563952035500349780
0.211000000000000049,33.899744456194106590
0.212000000000000050,33.240586343282913617
0.213000000000000050,32.586300109195107666
0.214000000000000051,31.936713547878081698
0.215000000000000052,31.291664861217576288
0.216000000000000053,30.651007157518563417
0.217000000000000054,30.014612349218065646
0.218000000000000055,29.382374403518987549
0.219000000000000056,28.754211923082873881
0.220000000000000057,28.130070054206036900
0.221000000000000058,27.509921737054988000
0.222000000000000058,26.893768326649222900
0.223000000000000059,26.281639624529766763
0.224000000000000060,25.673593369645566042
0.225000000000000061,25.069714243173898183
0.226000000000000062,24.470112446021317965
0.227000000000000063,23.874921909893547678
0.228000000000000064,23.284298203339893973
0.229000000000000065,22.698416193320092304
0.230000000000000066,22.117467520854106056
0.231000000000000066,21.541657946416950864
0.232000000000000067,20.971204617139271420
0.233000000000000068,20.406333303751861052
0.234000000000000069,19.847275650733529062
0.235000000000000070,19.294266478429111800
0.236000000000000071,18.747541171121966386
0.237000000000000072,18.207333180275373508
0.238000000000000073,17.673871667488732840
0.239000000000000073,17.147379307216898070
0.240000000000000074,16.628070265027197649
0.241000000000000075,16.116148363166086455
0.242000000000000076,15.611805441501051206
0.243000000000000077,15.115219918516620723
0.244000000000000078,14.626555553986406721
0.245000000000000079,14.145960412219233504
0.246000000000000080,13.673566022385202245
0.247000000000000081,13.209486730357193451
0.248000000000000081,12.753819234744865341
0.249000000000000082,12.306642298335335184
0.250000000000000111,11.868016624969186523
0.251000000000000112,11.437984890954661310
0.252000000000000113,11.016571919433332027
0.253000000000000114,10.603784985640157146
0.254000000000000115,10.199614240723592573
0.255000000000000115,9.804033241690259359
0.256000000000000116,9.416999575090525099
0.257000000000000117,9.038455562247133201
0.258000000000000118,8.668329034130543675
0.259000000000000119,8.306534164382618712
0.260000000000000120,7.952972349469031421
0.261000000000000121,7.607533125485038461
0.262000000000000122,7.270095111733828830
0.263000000000000123,6.940526971830115244
0.264000000000000123,6.618688383740568781
0.265000000000000124,6.304431010848611905
0.266000000000000125,5.997599466813317903
0.267000000000000126,5.698032267673329265
0.268000000000000127,5.405562765319473328
0.269000000000000128,5.120020057118809476
0.270000000000000129,4.841229867112198271
0.271000000000000130,4.569015394823277454
0.272000000000000131,4.303198128306434000
0.273000000000000131,4.043598618620642959
0.274000000000000132,3.790037213444708009
0.275000000000000133,3.542334748044389414
0.276000000000000134,3.300313192263438111
0.277000000000000135,3.063796252638127715
0.278000000000000136,2.832609929127134940
0.279000000000000137,2.606583026307679685
0.280000000000000138,2.385547619214424486
0.281000000000000139,2.169339474289881942
0.282000000000000139,1.957798426176709849
0.283000000000000140,1.750768711312794990
0.284000000000000141,1.548099259492171642
0.285000000000000142,1.349643944728928124
0.286000000000000143,1.155261796909685668
0.287000000000000144,0.964817175844311592
0.288000000000000145,0.778179909425235738
0.289000000000000146,0.595225397686225621
0.290000000000000147,0.415834684611239958
0.291000000000000147,0.239894499586830900
0.292000000000000148,0.067297270416913663
0.293000000000000149,-0.102058890169704153
0.294000000000000150,-0.268270222591756480
0.295000000000000151,-0.431427381154823153
0.296000000000000152,-0.591615515570021122
0.297000000000000153,-0.748914371399226564
0.298000000000000154,-0.903398407617270416
0.299000000000000155,-1.055136929531655499
0.300000000000000155,-1.204194235356744525
0.301000000000000156,-1.350629774800748306
0.302000000000000157,-1.494498318089694244
0.303000000000000158,-1.635850133921205485
0.304000000000000159,-1.774731174912887566
0.305000000000000160,-1.911183269183202471
0.306000000000000161,-2.045244316777595550
0.307000000000000162,-2.176948489727933200
0.308000000000000163,-2.306326434608585441
0.309000000000000163,-2.433405476527684463
0.310000000000000164,-2.558209823566349961
0.311000000000000165,-2.680760770751771993
0.312000000000000166,-2.801076902721841844
0.313000000000000167,-2.919174294308868323
0.314000000000000168,-3.035066708337944785
0.315000000000000169,-3.148765790001341713
0.316000000000000170,-3.260281257233807573
0.317000000000000171,-3.369621086574563940
0.318000000000000171,-3.476791694060202165
0.319000000000000172,-3.581798110748607655
0.320000000000000173,-3.684644152526856065
0.321000000000000174,-3.785332583906472426
0.322000000000000175,-3.883865275556956043
0.323000000000000176,-3.980243355373279890
0.324000000000000177,-4.074467352915135621
0.325000000000000178,-4.166537337094956328
0.326000000000000179,-4.256453047028773362
0.327000000000000179,-4.344214015997609479
0.328000000000000180,-4.429819688499114783
0.329000000000000181,-4.513269530398078544
0.330000000000000182,-4.594563132211153089
0.331000000000000183,-4.673700305585705372
0.332000000000000184,-4.750681173054835504
0.333000000000000185,-4.825506251170740946
0.334000000000000186,-4.898176527136667957
0.335000000000000187,-4.968693529073902937
0.336000000000000187,-5.037059390074530185
0.337000000000000188,-5.103276906203119800
0.338000000000000189,-5.167349588621716450
0.339000000000000190,-5.229281710021626672
0.340000000000000191,-5.289078345553426708
0.341000000000000192,-5.346745408453284831
0.342000000000000193,-5.402289680568798325
0.343000000000000194,-5.455718837991812897
0.344000000000000195,-5.507041472008204153
0.345000000000000195,-5.556267105577221699
0.346000000000000196,-5.603406205553238983
0.347000000000000197,-5.648470190863382534
0.348000000000000198,-5.691471436853595023
0.349000000000000199,-5.732423276014240621
0.350000000000000200,-5.771339995294427538
0.351000000000000201,-5.808236830211370716
0.352000000000000202,-5.843129955957984123
0.353000000000000203,-5.876036475708154683
0.354000000000000203,-5.906974406315132597
0.355000000000000204,-5.935962661593639389
0.356000000000000205,-5.963021033371830093
0.357000000000000206,-5.988170170494081290
0.358000000000000207,-6.011431555949756422
0.359000000000000208,-6.032827482298218413
0.360000000000000209,-6.052381025554182337
0.361000000000000210,-6.070116017691688626
0.362000000000000210,-6.086057017919205059
0.363000000000000211,-6.100229282872168035
0.364000000000000212,-6.112658735863350401
0.365000000000000213,-6.123371935325138793
0.366000000000000214,-6.132396042572084482
0.367000000000000215,-6.139758789005620443
0.368000000000000216,-6.145488442877231172
0.369000000000000217,-6.149613775720100151
0.370000000000000218,-6.152164028553677610
0.371000000000000218,-6.153168877959522831
0.372000000000000219,-6.152658402121467418
0.373000000000000220,-6.150663046917326682
0.374000000000000221,-6.147213592144071370
0.375000000000000222,-6.142341117953006524
0.376000000000000223,-6.136076971566501115
0.377000000000000224,-6.128452734342653585
0.378000000000000225,-6.119500189249432509
0.379000000000000226,-6.109251288805200630
0.380000000000000226,-6.097738123538025690
0.381000000000000227,-6.084992891011564708
0.382000000000000228,-6.071047865461373760
0.383000000000000229,-6.055935368081266645
0.384000000000000230,-6.039687737995405037
0.385000000000000231,-6.022337303948289033
0.386000000000000232,-6.003916356740938376
0.387000000000000233,-5.984457122438424648
0.388000000000000234,-5.963991736370403807
0.389000000000000234,-5.942552217943446458
0.390000000000000235,-5.920170446280806686
0.391000000000000236,-5.896878136702592421
0.392000000000000237,-5.872706818056601108
0.393000000000000238,-5.847687810907674866
0.394000000000000239,-5.821852206590858891
0.395000000000000240,-5.795230847131710661
0.396000000000000241,-5.767854306034784884
0.397000000000000242,-5.739752869939446889
0.398000000000000242,-5.710956521140396980
0.399000000000000243,-5.681494920968444440
0.400000000000000244,-5.651397394025572396
0.401000000000000245,-5.620692913266912782
0.402000000000000246,-5.589410085920668791
0.403000000000000247,-5.557577140236029223
0.404000000000000248,-5.525221913047766442
0.405000000000000249,-5.492371838145243323
0.406000000000000250,-5.459053935432521598
0.407000000000000250,-5.425294800865470890
0.408000000000000251,-5.391120597150910854
0.409000000000000252,-5.356557045192126942
0.410000000000000253,-5.321629416264505252
0.411000000000000254,-5.286362524904406612
0.412000000000000255,-5.250780722493978203
0.413000000000000256,-5.214907891524168448
0.414000000000000257,-5.178767440517733966
0.415000000000000258,-5.142382299593997175
0.416000000000000258,-5.105774916656545592
0.417000000000000259,-5.068967254185129612
0.418000000000000260,-5.031980786612760603
0.419000000000000261,-4.994836498268919733
0.420000000000000262,-4.957554881869817187
0.421000000000000263,-4.920155937536522472
0.422000000000000264,-4.882659172321945462
0.423000000000000265,-4.845083600227559018
0.424000000000000266,-4.807447742691126180
0.425000000000000266,-4.769769629526424026
0.426000000000000267,-4.732066800296577114
0.427000000000000268,-4.694356306102408283
0.428000000000000269,-4.656654711767681754
0.429000000000000270,-4.618978098403288435
0.430000000000000271,-4.581342066332568130
0.431000000000000272,-4.543761738360413638
0.432000000000000273,-4.506251763368974039
0.433000000000000274,-4.468826320223124426
0.434000000000000274,-4.431499121969175725
0.435000000000000275,-4.394283420310647337
0.436000000000000276,-4.357192010345282362
0.437000000000000277,-4.320237235547754295
0.438000000000000278,-4.283430992982994567
0.439000000000000279,-4.246784738735384757
0.440000000000000280,-4.210309493539350356
0.441000000000000281,-4.174015848597421474
0.442000000000000282,-4.137913971572111826
0.443000000000000282,-4.102013612738307557
0.444000000000000283,-4.066324111283400100
0.445000000000000284,-4.030854401742622883
0.446000000000000285,-3.995613020557434059
0.447000000000000286,-3.960608112745425125
0.448000000000000287,-3.925847438670185596
0.449000000000000288,-3.891338380900406069
0.450000000000000289,-3.857087951147440741
0.451000000000000290,-3.823102797271306308
0.452000000000000290,-3.789389210345192716
0.453000000000000291,-3.755953131769043551
0.454000000000000292,-3.722800160423152871
0.455000000000000293,-3.689935559852970837
0.456000000000000294,-3.657364265476793719
0.457000000000000295,-3.625090891808274929
0.458000000000000296,-3.593119739686029046
0.459000000000000297,-3.561454803503008915
0.460000000000000298,-3.530099778428580581
0.461000000000000298,-3.499058067616607648
0.462000000000000299,-3.468332789393117288
0.463000000000000300,-3.437926784417451476
0.464000000000000301,-3.407842622811132482
0.465000000000000302,-3.378082611248941269
0.466000000000000303,-3.348648800006941428
0.467000000000000304,-3.319542989962587676
0.468000000000000305,-3.290766739542201780
0.469000000000000306,-3.262321371611424325
0.470000000000000306,-3.234207980304553587
0.471000000000000307,-3.206427437788768486
0.472000000000000308,-3.178980400959717567
0.473000000000000309,-3.151867318064954571
0.474000000000000310,-3.125088435252111108
0.475000000000000311,-3.098643803038751088
0.476000000000000312,-3.072533282701310320
0.477000000000000313,-3.046756552580384358
0.478000000000000314,-3.021313114300168579
0.479000000000000314,-2.996202298899863781
0.480000000000000315,-2.971423272875027166
0.481000000000000316,-2.946975044127182919
0.482000000000000317,-2.922856467819977766
0.483000000000000318,-2.899066252140530153
0.484000000000000319,-2.875602963964623449
0.485000000000000320,-2.852465034424644053
0.486000000000000321,-2.829650764379297190
0.487000000000000322,-2.807158329784218420
0.488000000000000322,-2.784985786962786314
0.489000000000000323,-2.763131077776632250
0.490000000000000324,-2.741592034695301994
0.491000000000000325,-2.720366385764794170
0.492000000000000326,-2.699451759474744694
0.493000000000000327,-2.678845689524171458
0.494000000000000328,-2.658545619485743305
0.495000000000000329,-2.638548907368710061
0.496000000000000330,-2.618852830080623750
0.497000000000000330,-2.599454587788215587
0.498000000000000331,-2.580351308177682768
0.499000000000000332,-2.561540050614952158
0.500000000000000333,-2.543017810206331664
0.501000000000000334,-2.524781521760199432
0.502000000000000335,-2.506828063650369920
0.503000000000000336,-2.489154261581873584
0.504000000000000337,-2.471756892259910021
0.505000000000000338,-2.454632686962832988
0.506000000000000338,-2.437778335020045262
0.507000000000000339,-2.421190487195741703
0.508000000000000340,-2.404865758979486401
0.509000000000000341,-2.388800733784692376
0.510000000000000342,-2.372991966055979507
0.511000000000000343,-2.357435984286623487
0.512000000000000344,-2.342129293947144308
0.513000000000000345,-2.327068380326249741
0.514000000000000346,-2.312249711285349285
0.515000000000000346,-2.297669739927790111
0.516000000000000347,-2.283324907184125507
0.517000000000000348,-2.269211644314684584
0.518000000000000349,-2.255326375330665378
0.519000000000000350,-2.241665519335121814
0.520000000000000351,-2.228225492785129269
0.521000000000000352,-2.215002711676471225
0.522000000000000353,-2.201993593652167291
0.523000000000000353,-2.189194560036200610
0.524000000000000354,-2.176602037793829325
0.525000000000000355,-2.164212461419789069
0.526000000000000356,-2.152022274755781339
0.527000000000000357,-2.140027932738644001
0.528000000000000358,-2.128225903080488202
0.529000000000000359,-2.116612667882278309
0.530000000000000360,-2.105184725182116967
0.531000000000000361,-2.093938590439671010
0.532000000000000361,-2.082870797958063847
0.533000000000000362,-2.071977902244590997
0.534000000000000363,-2.061256479311615930
0.535000000000000364,-2.050703127918971358
0.536000000000000365,-2.040314470759208909
0.537000000000000366,-2.030087155587021464
0.538000000000000367,-2.020017856294123781
0.539000000000000368,-2.010103273930951229
0.540000000000000369,-2.000340137676390295
0.541000000000000369,-1.990725205756904925
0.542000000000000370,-1.981255266316229058
0.543000000000000371,-1.971927138236972965
0.544000000000000372,-1.962737671915317339
0.545000000000000373,-1.953683749990053453
0.546000000000000374,-1.944762288027152675
0.547000000000000375,-1.935970235161085240
0.548000000000000376,-1.927304574694066686
0.549000000000000377,-1.918762324654372575
0.550000000000000377,-1.910340538314897696
0.551000000000000378,-1.902036304673063727
0.552000000000000379,-1.893846748893224241
0.553000000000000380,-1.885769032712628857
0.554000000000000381,-1.877800354812038108
0.555000000000000382,-1.869937951152093492
0.556000000000000383,-1.862179095276397689
0.557000000000000384,-1.854521098582446070
0.558000000000000385,-1.846961310561315628
0.559000000000000385,-1.839497119007183601
0.560000000000000386,-1.832125950197603714
0.561000000000000387,-1.824845269045524798
0.562000000000000388,-1.817652579223958842
0.563000000000000389,-1.810545423264274145
0.564000000000000390,-1.803521382628956671
0.565000000000000391,-1.796578077759771741
0.566000000000000392,-1.789713168102160523
0.567000000000000393,-1.782924352106773025
0.568000000000000393,-1.776209367208895884
0.569000000000000394,-1.769565989786657578
0.570000000000000395,-1.762992035098789101
0.571000000000000396,-1.756485357202689501
0.572000000000000397,-1.750043848853626738
0.573000000000000398,-1.743665441385743531
0.574000000000000399,-1.737348104575669128
0.575000000000000400,-1.731089846489397344
0.576000000000000401,-1.724888713313144750
0.577000000000000401,-1.718742789168909324
0.578000000000000402,-1.712650195915315976
0.579000000000000403,-1.706609092934449290
0.580000000000000404,-1.700617676905327169
0.581000000000000405,-1.694674181564551407
0.582000000000000406,-1.688776877454827741
0.583000000000000407,-1.682924071661870524
0.584000000000000408,-1.677114107540312649
0.585000000000000409,-1.671345364429137392
0.586000000000000409,-1.665616257357197316
0.587000000000000410,-1.659925236739354659
0.588000000000000411,-1.654270788063715969
0.589000000000000412,-1.648651431570514747
0.590000000000000413,-1.643065721923071099
0.591000000000000414,-1.637512247871338644
0.592000000000000415,-1.631989631908498550
0.593000000000000416,-1.626496529920996803
0.594000000000000417,-1.621031630832511228
0.595000000000000417,-1.615593656242265697
0.596000000000000418,-1.610181360058025701
0.597000000000000419,-1.604793528124285995
0.598000000000000420,-1.599428977845916533
0.599000000000000421,-1.594086557807721238
0.600000000000000422,-1.588765147390232668
0.601000000000000423,-1.583463656382080087
0.602000000000000424,-1.578181024589304871
0.603000000000000425,-1.572916221441915230
0.604000000000000425,-1.567668245598001331
0.605000000000000426,-1.562436124545727667
0.606000000000000427,-1.557218914203514215
0.607000000000000428,-1.552015698518590003
0.608000000000000429,-1.546825589064390494
0.609000000000000430,-1.541647724636813654
0.610000000000000431,-1.536481270849828995
0.611000000000000432,-1.531325419730513726
0.612000000000000433,-1.526179389313821133
0.613000000000000433,-1.521042423237344732
