# Montmorillonite-001-NaCEC143_CYS-AC
# h[nm],U(h)[kJ/mol]
0.149999999999999994,152.071150996492150398
0.150999999999999995,151.018037354631388780
0.151999999999999996,149.464824763467134972
0.152999999999999997,147.773453629590932223
0.153999999999999998,146.092164440538226700
0.154999999999999999,144.462976571657293334
0.156000000000000000,142.881660966196591289
0.157000000000000001,141.329149033825160586
0.158000000000000002,139.786362105334262651
0.159000000000000002,138.239882287172918041
0.160000000000000003,136.682934008587920971
0.161000000000000004,135.114268938618153015
0.162000000000000005,133.536379182182230352
0.163000000000000006,131.953757070978326738
0.164000000000000007,130.371508376166218568
0.165000000000000008,128.794399207663957441
0.166000000000000009,127.226303060748591633
0.167000000000000010,125.669966889885216688
0.168000000000000010,124.127004315313826055
0.169000000000000011,122.598031978309975898
0.170000000000000012,121.082880880099509113
0.171000000000000013,119.580832181181975216
0.172000000000000014,118.090843240671091507
0.173000000000000015,116.611743243267056869
0.174000000000000016,115.142388216634827813
0.175000000000000017,113.681772751867953275
0.176000000000000018,112.229100727452532738
0.177000000000000018,110.783820310277221211
0.178000000000000019,109.345629962870290797
0.179000000000000020,107.914462563503249726
0.180000000000000021,106.490454408022131361
0.181000000000000022,105.073905093644000885
0.182000000000000023,103.665233297957044556
0.183000000000000024,102.264932412014687202
0.184000000000000025,100.873528965910097099
0.185000000000000026,99.491545861016803087
0.186000000000000026,98.119471628697922938
0.187000000000000027,96.757736283550002554
0.188000000000000028,95.406693828870331231
0.189000000000000029,94.066611092790253679
0.190000000000000030,92.737662310033584845
0.191000000000000031,91.419928698850299043
0.192000000000000032,90.113402197232488788
0.193000000000000033,88.817992499784310212
0.194000000000000034,87.533536560956804351
0.195000000000000034,86.259809788142163711
0.196000000000000035,84.996538227877167060
0.197000000000000036,83.743411140780111168
0.198000000000000037,82.500093458454273332
0.199000000000000038,81.266237712819489047
0.200000000000000039,80.041495121092680165
0.201000000000000040,78.825525595125697009
0.202000000000000041,77.618006520268224335
0.203000000000000042,76.418640215441811847
0.204000000000000042,75.227160042412762664
0.205000000000000043,74.043335178546158204
0.206000000000000044,72.866974104159766057
0.207000000000000045,71.697926883752998606
0.208000000000000046,70.536086340776407155
0.209000000000000047,69.381388239208234836
0.210000000000000048,68.233810593008485057
0.211000000000000049,67.093372227486980819
0.212000000000000050,65.960130715649228250
0.213000000000000050,64.834179808509759368
0.214000000000000051,63.715646471917281701
0.215000000000000052,62.604687634281596331
0.216000000000000053,61.501486740285336907
0.217000000000000054,60.406250195678808268
0.218000000000000055,59.319203777988185777
0.219000000000000056,58.240589077732558110
0.220000000000000057,57.170660024790819875
0.221000000000000058,56.109679545083089636
0.222000000000000058,55.057916383860629139
0.223000000000000059,54.015642123739347369
0.224000000000000060,52.983128418212366739
0.225000000000000061,51.960644454770523737
0.226000000000000062,50.948454655943955061
0.227000000000000063,49.946816621537678316
0.228000000000000064,48.955979311039385493
0.229000000000000065,47.976181461579258780
0.230000000000000066,47.007650233878599977
0.231000000000000066,46.050600076271791750
0.232000000000000067,45.105231795074679724
0.233000000000000068,44.171731818238214373
0.234000000000000069,43.250271638316498013
0.235000000000000070,42.341007420233346181
0.236000000000000071,41.444079759104020866
0.237000000000000072,40.559613573403311193
0.238000000000000073,39.687718119029412378
0.239000000000000073,38.828487110248929071
0.240000000000000074,37.981998934084970188
0.241000000000000075,37.148316945397752420
0.242000000000000076,36.327489830673641791
0.243000000000000077,35.519552029357114975
0.244000000000000078,34.724524202414151830
0.245000000000000079,33.942413738680023982
0.246000000000000080,33.173215290409373779
0.247000000000000081,32.416911330294190918
0.248000000000000081,31.673472723039530763
0.249000000000000082,30.942859305376725132
0.250000000000000111,30.225020469144261881
0.251000000000000112,29.519895742772682468
0.252000000000000113,28.827415367168146787
0.253000000000000114,28.147500862600583815
0.254000000000000115,27.480065583761025039
0.255000000000000115,26.825015260664066830
0.256000000000000116,26.182248523532727802
0.257000000000000117,25.551657410217355704
0.258000000000000118,24.933127855069542989
0.259000000000000119,24.326540158517868662
0.260000000000000120,23.731769436876966495
0.261000000000000121,23.148686052169729521
0.262000000000000122,22.577156021953516785
0.263000000000000123,22.017041409322025913
0.264000000000000123,21.468200693403606039
0.265000000000000124,20.930489120801148317
0.266000000000000125,20.403759038517058855
0.267000000000000126,19.887860208985085109
0.268000000000000127,19.382640107888509107
0.269000000000000128,18.887944205486412841
0.270000000000000129,18.403616232196387870
0.271000000000000130,17.929498429195781739
0.272000000000000131,17.465431784807631033
0.273000000000000131,17.011256257430677152
0.274000000000000132,16.566810985759993002
0.275000000000000133,16.131934487024476965
0.276000000000000134,15.706464843942473664
0.277000000000000135,15.290239881068851346
0.278000000000000136,14.883097331174131028
0.279000000000000137,14.484874992263021554
0.280000000000000138,14.095410875805001183
0.281000000000000139,13.714543346713000460
0.282000000000000139,13.342111255571420969
0.283000000000000140,12.977954063578394539
0.284000000000000141,12.621911960633202199
0.285000000000000142,12.273825976965660800
0.286000000000000143,11.933538088672273503
0.287000000000000144,11.600891317493204014
0.288000000000000145,11.275729825134581219
0.289000000000000146,10.957899002414320577
0.290000000000000147,10.647245553482978409
0.291000000000000147,10.343617575348694970
0.292000000000000148,10.046864632912702930
0.293000000000000149,9.756837829702813991
0.294000000000000150,9.473389874473744143
0.295000000000000151,9.196375143827214771
0.296000000000000152,8.925649740990083458
0.297000000000000153,8.661071550876194181
0.298000000000000154,8.402500291545704769
0.299000000000000155,8.149797562166366305
0.300000000000000155,7.902826887572106607
0.301000000000000156,7.661453759507539374
0.302000000000000157,7.425545674640088301
0.303000000000000158,7.194972169417096275
0.304000000000000159,6.969604851840459858
0.305000000000000160,6.749317430228441772
0.306000000000000161,6.533985739031517248
0.307000000000000162,6.323487761767294657
0.308000000000000163,6.117703651138319820
0.309000000000000163,5.916515746395795361
0.310000000000000164,5.719808588011800587
0.311000000000000165,5.527468929722814117
0.312000000000000166,5.339385748007556387
0.313000000000000167,5.155450249062807799
0.314000000000000168,4.975555873341750868
0.315000000000000169,4.799598297720132578
0.316000000000000170,4.627475435356696920
0.317000000000000171,4.459087433315454874
0.318000000000000171,4.294336668018425840
0.319000000000000172,4.133127738598552980
0.320000000000000173,3.975367458223634909
0.321000000000000174,3.820964843463177552
0.322000000000000175,3.669831101770808068
0.323000000000000176,3.521879617155957654
0.324000000000000177,3.377025934119008532
0.325000000000000178,3.235187739924968220
0.326000000000000179,3.096284845290843357
0.327000000000000179,2.960239163562509379
0.328000000000000180,2.826974688456951768
0.329000000000000181,2.696417470445601428
0.330000000000000182,2.568495591854733195
0.331000000000000183,2.443139140758168182
0.332000000000000184,2.320280183737497559
0.333000000000000185,2.199852737584271800
0.334000000000000186,2.081792740017913701
0.335000000000000187,1.966038019492354350
0.336000000000000187,1.852528264163229910
0.337000000000000188,1.741204990086801185
0.338000000000000189,1.632011508719995119
0.339000000000000190,1.524892893790044557
0.340000000000000191,1.419795947600755559
0.341000000000000192,1.316669166840744420
0.342000000000000193,1.215462707957538191
0.343000000000000194,1.116128352159615700
0.344000000000000195,1.018619470107104075
0.345000000000000195,0.922890986349359510
0.346000000000000196,0.828899343566586566
0.347000000000000197,0.736602466670118639
0.348000000000000198,0.645959726814423596
0.349000000000000199,0.556931905371754299
0.350000000000000200,0.469481157918392011
0.351000000000000201,0.383570978279436037
0.352000000000000202,0.299166162677115988
0.353000000000000203,0.216232774025425012
0.354000000000000203,0.134738106411944614
0.355000000000000204,0.054650649805788556
0.356000000000000205,-0.024059944971607194
0.357000000000000206,-0.101422900978115932
0.358000000000000207,-0.177466349551913372
0.359000000000000208,-0.252217364351133067
0.360000000000000209,-0.325701995003232880
0.361000000000000210,-0.397945300336855712
0.362000000000000210,-0.468971381171192359
0.363000000000000211,-0.538803412639290435
0.364000000000000212,-0.607463676023849208
0.365000000000000213,-0.674973590085558128
0.366000000000000214,-0.741353741865870886
0.367000000000000215,-0.806623916947633246
0.368000000000000216,-0.870803129158774114
0.369000000000000217,-0.933909649705540468
0.370000000000000218,-0.995961035723581745
0.371000000000000218,-1.056974158236267503
0.372000000000000219,-1.116965229511410307
0.373000000000000220,-1.175949829808641045
0.374000000000000221,-1.233942933511062323
0.375000000000000222,-1.290958934635910493
0.376000000000000223,-1.347011671720589110
0.377000000000000224,-1.402114452080899909
0.378000000000000225,-1.456280075439950306
0.379000000000000226,-1.509520856926922505
0.380000000000000226,-1.561848649446079706
0.381000000000000227,-1.613274865417055226
0.382000000000000228,-1.663810497888660977
0.383000000000000229,-1.713466141029021284
0.384000000000000230,-1.762252009995723512
0.385000000000000231,-1.810177960190514579
0.386000000000000232,-1.857253505903509350
0.387000000000000233,-1.903487838352833750
0.388000000000000234,-1.948889843125901633
0.389000000000000234,-1.993468117029415065
0.390000000000000235,-2.037230984355403507
0.391000000000000236,-2.080186512571292834
0.392000000000000237,-2.122342527442351745
0.393000000000000238,-2.163706627595290310
0.394000000000000239,-2.204286198532097174
0.395000000000000240,-2.244088426103673761
0.396000000000000241,-2.283120309452949304
0.397000000000000242,-2.321388673437534411
0.398000000000000242,-2.358900180542234271
0.399000000000000243,-2.395661342291790952
0.400000000000000244,-2.431678530174623099
0.401000000000000245,-2.466957986088359256
0.402000000000000246,-2.501505832317961087
0.403000000000000247,-2.535328081057703464
0.404000000000000248,-2.568430643487929821
0.405000000000000249,-2.600819338417895032
0.406000000000000250,-2.632499900505787860
0.407000000000000250,-2.663477988067275426
0.408000000000000251,-2.693759190483707933
0.409000000000000252,-2.723349035221237724
0.410000000000000253,-2.752252994472011327
0.411000000000000254,-2.780476491428538921
0.412000000000000255,-2.808024906202273741
0.413000000000000256,-2.834903581397474337
0.414000000000000257,-2.861117827351050469
0.415000000000000258,-2.886672927049372728
0.416000000000000258,-2.911574140732516636
0.417000000000000259,-2.935826710196619338
0.418000000000000260,-2.959435862804641992
0.419000000000000261,-2.982406815215893126
0.420000000000000262,-3.004744776844300080
0.421000000000000263,-3.026454953055529806
0.422000000000000264,-3.047542548112561978
0.423000000000000265,-3.068012767879469749
0.424000000000000266,-3.087870822292825501
0.425000000000000266,-3.107121927609882484
0.426000000000000267,-3.125771308442772067
0.427000000000000268,-3.143824199587473167
0.428000000000000269,-3.161285847656302828
0.429000000000000270,-3.178161512522463816
0.430000000000000271,-3.194456468584876419
0.431000000000000272,-3.210176005861529180
0.432000000000000273,-3.225325430919138370
0.433000000000000274,-3.239910067646948555
0.434000000000000274,-3.253935257882132781
0.435000000000000275,-3.267406361894132694
0.436000000000000276,-3.280328758735086669
0.437000000000000277,-3.292707846463237331
0.438000000000000278,-3.304549042246093027
0.439000000000000279,-3.315857782349863392
0.440000000000000280,-3.326639522021509698
0.441000000000000281,-3.336899735269544642
0.442000000000000282,-3.346643914549638055
0.443000000000000282,-3.355877570360630280
0.444000000000000283,-3.364606230756739702
0.445000000000000284,-3.372835440781208227
0.446000000000000285,-3.380570761826658277
0.447000000000000286,-3.387817770927293193
0.448000000000000287,-3.394582059987617306
0.449000000000000288,-3.400869234952593523
0.450000000000000289,-3.406684914923560736
0.451000000000000290,-3.412034731224379502
0.452000000000000290,-3.416924326422024372
0.453000000000000291,-3.421359353305515327
0.454000000000000292,-3.425345473827228204
0.455000000000000293,-3.428888358010171000
0.456000000000000294,-3.431993682824861391
0.457000000000000295,-3.434667131039247145
0.458000000000000296,-3.436914390044830903
0.459000000000000297,-3.438741150662288248
0.460000000000000298,-3.440153105929445676
0.461000000000000298,-3.441155949874569409
0.462000000000000299,-3.441755376277656264
0.463000000000000300,-3.441957077422304057
0.464000000000000301,-3.441766742840731474
0.465000000000000302,-3.441190058054226508
0.466000000000000303,-3.440232703311275397
0.467000000000000304,-3.438900352325577892
0.468000000000000305,-3.437198671015857965
0.469000000000000306,-3.435133316249448399
0.470000000000000306,-3.432709934591500200
0.471000000000000307,-3.429934161061384490
0.472000000000000308,-3.426811617898056106
0.473000000000000309,-3.423347913335805348
0.474000000000000310,-3.419548640391818051
0.475000000000000311,-3.415419375666933099
0.476000000000000312,-3.410965678160818637
0.477000000000000313,-3.406193088102740685
0.478000000000000314,-3.401107125798973563
0.479000000000000314,-3.395713290497981429
0.480000000000000315,-3.390017059274147648
0.481000000000000316,-3.384023885931090270
0.482000000000000317,-3.377739199925204439
0.483000000000000318,-3.371168405310299043
0.484000000000000319,-3.364316879703912910
0.485000000000000320,-3.357189973275951811
0.486000000000000321,-3.349793007760212049
0.487000000000000322,-3.342131275489277353
0.488000000000000322,-3.334210038453161218
0.489000000000000323,-3.326034527382238259
0.490000000000000324,-3.317609940854674644
0.491000000000000325,-3.308941444428692868
0.492000000000000326,-3.300034169799926254
0.493000000000000327,-3.290893213984076304
0.494000000000000328,-3.281523638525032371
0.495000000000000329,-3.271930468728581953
0.496000000000000330,-3.262118692921749386
0.497000000000000330,-3.252093261737986296
0.498000000000000331,-3.241859087427950037
0.499000000000000332,-3.231421043196169851
0.500000000000000333,-3.220783962563364078
0.501000000000000334,-3.209952638754335119
0.502000000000000335,-3.198931824111492794
0.503000000000000336,-3.187726229533724531
0.504000000000000337,-3.176340523940565763
0.505000000000000338,-3.164779333761440494
0.506000000000000338,-3.153047242449839693
0.507000000000000339,-3.141148790022179949
0.508000000000000340,-3.129088472621086581
0.509000000000000341,-3.116870742103007075
0.510000000000000342,-3.104500005649644567
0.511000000000000343,-3.091980625403182081
0.512000000000000344,-3.079316918124809455
0.513000000000000345,-3.066513154876350011
0.514000000000000346,-3.053573560724699654
0.515000000000000346,-3.040502314468602307
0.516000000000000347,-3.027303548387567655
0.517000000000000348,-3.013981348012546579
0.518000000000000349,-3.000539751917919773
0.519000000000000350,-2.986982751534578817
0.520000000000000351,-2.973314290983565478
0.521000000000000352,-2.959538266930075157
0.522000000000000353,-2.945658528457236525
0.523000000000000353,-2.931678876959438629
0.524000000000000354,-2.917603066054758276
0.525000000000000355,-2.903434801516058261
0.526000000000000356,-2.889177741220380291
0.527000000000000357,-2.874835495116282225
0.528000000000000358,-2.860411625208596043
0.529000000000000359,-2.845909645560365853
0.530000000000000360,-2.831333022311361081
0.531000000000000361,-2.816685173712949908
0.532000000000000361,-2.801969470178806709
0.533000000000000362,-2.787189234351083567
0.534000000000000363,-2.772347741181638625
0.535000000000000364,-2.757448218027935827
0.536000000000000365,-2.742493844763174593
0.537000000000000366,-2.727487753900307954
0.538000000000000367,-2.712433030729447747
0.539000000000000368,-2.697332713468438836
0.540000000000000369,-2.682189793425980184
0.541000000000000369,-2.667007215177148005
0.542000000000000370,-2.651787876750704598
0.543000000000000371,-2.636534629827999687
0.544000000000000372,-2.621250279952963336
0.545000000000000373,-2.605937586752896884
0.546000000000000374,-2.590599264169618721
0.547000000000000375,-2.575237980700653573
0.548000000000000376,-2.559856359650103386
0.549000000000000377,-2.544456979388809437
0.550000000000000377,-2.529042373623487716
0.551000000000000378,-2.513615031674453437
0.552000000000000379,-2.498177398761665113
0.553000000000000380,-2.482731876298662321
0.554000000000000381,-2.467280822194108048
0.555000000000000382,-2.451826551160682932
0.556000000000000383,-2.436371335030821150
0.557000000000000384,-2.420917403079223540
0.558000000000000385,-2.405466942351600856
0.559000000000000385,-2.390022097999523698
0.560000000000000386,-2.374584973620978090
0.561000000000000387,-2.359157631606381589
0.562000000000000388,-2.343742093489724176
0.563000000000000389,-2.328340340304656308
0.564000000000000390,-2.312954312945108448
0.565000000000000391,-2.297585912530290209
0.566000000000000392,-2.282237000773724045
0.567000000000000393,-2.266909400356160287
0.568000000000000393,-2.251604895301963616
0.569000000000000394,-2.236325231358863963
0.570000000000000395,-2.221072116380804928
0.571000000000000396,-2.205847220713547774
0.572000000000000397,-2.190652177582982141
0.573000000000000398,-2.175488583485735816
0.574000000000000399,-2.160357998582017380
0.575000000000000400,-2.145261947090351562
0.576000000000000401,-2.130201917684080293
0.577000000000000401,-2.115179363889448272
0.578000000000000402,-2.100195704484950632
0.579000000000000403,-2.085252323901877425
0.580000000000000404,-2.070350572625847541
0.581000000000000405,-2.055491767599056274
0.582000000000000406,-2.040677192623205460
0.583000000000000407,-2.025908098762793763
0.584000000000000408,-2.011185704748738257
0.585000000000000409,-1.996511197382066838
0.586000000000000409,-1.981885731937549355
0.587000000000000410,-1.967310432567175749
0.588000000000000411,-1.952786392703207863
0.589000000000000412,-1.938314675460820480
0.590000000000000413,-1.923896314040040689
0.591000000000000414,-1.909532312126946296
0.592000000000000415,-1.895223644293998699
0.593000000000000416,-1.880971256399297742
0.594000000000000417,-1.866776065984709465
0.595000000000000417,-1.852638962672812806
0.596000000000000418,-1.838560808562319071
0.597000000000000419,-1.824542438622187790
0.598000000000000420,-1.810584661084008173
0.599000000000000421,-1.796688257832794733
0.600000000000000422,-1.782853984795954805
0.601000000000000423,-1.769082572330377134
0.602000000000000424,-1.755374725607587560
0.603000000000000425,-1.741731124996828139
0.604000000000000425,-1.728152426445998868
0.605000000000000426,-1.714639261860392505
0.606000000000000427,-1.701192239479189627
0.607000000000000428,-1.687811944249461238
0.608000000000000429,-1.674498938197932052
0.609000000000000430,-1.661253760800048607
0.610000000000000431,-1.648076929346655728
0.611000000000000432,-1.634968939307955837
0.612000000000000433,-1.621930264694801282
0.613000000000000433,-1.608961358417315690
